Sensor0,Sensor1,Sensor2,Sensor3,Sensor4

495,493,561,494,497
496,493,723,494,499
495,493,803,496,493
342,493,497,495,493
464,493,497,494,493
582,493,497,496,493
738,493,498,497,493
3,286,494,498,496
493,342,493,497,495
493,464,493,497,494
493,582,493,497,496
493,738,493,498,497
493,791,493,496,495
493,760,495,499,496
493,672,493,496,495
493,484,494,497,495
493,333,495,498,495
493,266,495,498,494
493,245,493,497,494
493,265,494,499,497
493,305,493,496,495
493,398,494,496,495
493,514,494,498,496
493,645,492,496,496
493,780,496,498,495
493,780,494,498,495
493,744,494,499,497
493,607,494,498,496
493,401,494,497,496
493,308,494,496,495
493,241,495,498,495
493,253,492,497,496
493,282,495,497,494
493,336,494,497,495
493,446,494,497,495
493,565,493,498,495
493,719,495,500,496
493,791,493,497,496
494,767,494,498,496
493,694,493,498,497
493,513,495,497,495
492,341,493,497,496
493,272,493,495,496
493,251,493,498,494
493,270,492,497,494
493,296,492,497,494
493,385,492,497,495
493,496,495,497,495
493,631,494,499,497
493,762,497,497,494
493,776,495,497,495
491,747,492,496,495
493,633,496,498,495
492,420,493,497,495
493,315,492,496,496
493,246,493,497,496
493,255,493,498,496
492,281,494,495,495
493,334,494,499,496
493,431,493,497,494
493,552,494,497,495
493,707,496,499,495
493,782,495,498,496
493,770,493,496,495
493,713,493,499,497
493,531,494,496,495
492,356,494,497,495
493,284,493,496,495
493,244,492,496,496
493,269,495,497,496
493,292,492,496,494
493,371,493,497,495
493,482,494,498,495
493,609,493,499,496
493,758,493,496,494
493,784,495,499,494
493,754,492,497,495
493,651,496,497,495
493,445,495,497,495
493,323,494,497,496
493,259,493,496,493
493,246,494,498,495
493,275,492,496,495
493,319,492,497,496
493,418,493,497,495
493,538,494,497,494
493,680,493,498,494
493,775,494,499,496
493,774,494,498,495
493,735,495,499,496
493,559,494,498,495
492,373,493,496,495
493,295,495,497,494
493,248,493,498,494
493,260,494,496,494
493,285,493,496,495
493,355,492,496,495
493,472,494,498,495
493,589,494,498,494
493,743,492,497,496
493,785,493,499,497
493,758,492,499,497
493,663,492,496,495
493,472,494,498,495
493,328,495,497,494
493,268,496,498,494
493,252,495,497,494
493,275,493,498,496
493,315,494,496,494
493,410,493,498,496
493,522,493,497,494
493,655,493,496,495
493,768,493,498,497
493,772,492,497,494
493,739,497,498,497
493,586,496,496,495
493,391,495,497,495
493,304,495,498,496
493,252,494,499,495
493,258,493,496,495
493,287,496,497,496
493,345,493,496,494
493,456,494,497,495
493,569,494,497,494
493,725,495,499,496
493,785,494,497,495
493,762,496,498,494
493,680,493,496,496
493,496,494,496,495
493,338,493,497,496
493,274,495,495,497
493,254,494,496,495
493,269,494,498,495
493,307,495,499,495
493,395,495,499,496
493,503,493,498,495
493,635,490,497,496
493,765,492,497,497
493,776,491,496,495
493,740,494,496,495
493,607,495,497,495
493,410,495,496,495
493,315,494,496,496
493,254,496,498,495
493,262,494,497,496
493,287,495,498,497
493,337,494,498,496
493,439,494,497,494
493,556,495,496,495
493,706,495,499,495
493,781,496,497,494
493,758,496,497,495
493,699,493,498,497
493,521,494,497,494
492,348,493,497,495
493,283,493,496,494
493,250,492,496,496
493,269,493,497,497
493,298,492,497,494
493,381,494,498,496
492,490,494,497,495
493,622,494,498,496
493,759,494,498,496
493,778,495,499,495
493,746,492,497,494
493,637,496,497,497
493,431,494,496,494
493,319,495,496,495
493,251,495,496,495
493,253,494,498,495
493,279,493,497,495
493,332,495,498,496
493,428,493,496,495
493,542,493,498,496
493,687,492,498,494
493,775,494,498,495
493,769,494,497,496
493,727,496,498,495
493,547,495,497,495
493,366,494,498,496
493,294,494,497,495
493,254,491,498,494
493,263,493,499,496
493,297,493,495,494
493,367,495,497,495
493,475,495,497,495
493,598,495,498,494
493,745,493,497,496
493,776,495,497,497
493,758,494,499,496
493,661,495,498,496
492,458,493,498,495
493,328,493,497,494
493,264,492,496,496
493,257,493,496,494
493,281,493,496,494
494,318,494,496,495
493,419,493,498,495
493,528,496,497,495
493,671,495,497,495
494,775,493,497,496
493,768,494,498,497
493,735,493,498,498
493,573,495,496,495
493,381,495,497,496
493,298,494,496,496
493,258,494,498,495
494,268,495,499,494
494,290,496,498,496
493,353,493,497,495
493,461,493,498,496
493,580,493,496,495
494,733,496,497,495
494,776,494,497,496
494,759,495,498,495
493,670,493,497,495
493,483,495,497,495
493,337,493,497,496
494,274,494,498,497
494,255,492,497,496
494,273,492,498,495
494,304,490,497,497
493,403,494,497,496
494,518,494,498,495
494,643,496,497,494
494,765,494,497,496
493,776,496,497,496
494,736,497,499,496
493,596,495,497,496
493,401,495,497,496
494,307,494,498,497
494,249,495,496,495
493,266,495,499,496
494,283,493,499,494
494,346,496,498,495
494,449,495,499,495
493,562,495,499,497
494,721,496,496,494
493,782,495,499,497
493,756,493,497,496
494,686,494,497,497
493,509,495,498,496
493,345,494,497,495
493,283,494,497,494
494,249,494,499,496
494,278,494,498,495
494,304,495,499,494
493,388,495,498,496
493,498,494,497,495
494,626,496,497,497
494,760,493,497,495
493,772,494,497,496
493,742,493,497,496
493,621,492,497,495
494,425,494,496,495
493,314,495,497,496
494,253,492,498,496
494,264,494,498,495
494,285,495,498,495
494,329,492,497,494
494,436,495,498,495
493,548,494,497,495
494,700,495,497,494
493,775,495,497,495
493,759,495,499,495
493,710,493,497,496
493,532,495,498,496
493,358,493,497,496
493,293,493,498,497
493,255,494,499,496
493,273,494,496,496
493,293,495,499,494
493,372,492,497,496
493,485,492,498,495
494,607,492,497,494
494,748,493,498,496
493,781,494,498,495
493,748,494,498,495
493,649,494,497,496
493,444,495,496,495
493,324,495,498,496
493,260,495,497,495
493,261,495,499,495
493,278,493,498,495
493,328,496,497,494
494,423,495,497,495
494,536,495,498,496
493,680,493,497,494
493,774,495,499,495
493,763,492,498,496
493,728,492,497,497
493,557,494,497,496
493,373,494,497,496
493,297,494,496,496
494,255,494,497,495
493,262,494,498,495
494,294,492,498,494
494,359,493,498,495
494,468,491,497,496
493,591,494,496,494
493,744,495,500,496
493,779,495,497,496
493,754,494,497,496
493,662,494,498,495
493,470,495,496,495
493,331,495,497,495
493,267,493,499,497
493,256,494,498,495
493,279,494,498,494
494,311,491,497,496
493,408,495,497,495
492,522,494,497,495
493,655,494,497,495
494,769,494,497,495
493,769,494,498,497
493,739,496,498,495
494,585,494,497,496
493,390,494,497,496
493,305,494,498,496
494,256,495,499,495
494,262,495,499,496
493,284,493,496,494
494,345,494,498,496
493,454,494,497,495
493,572,493,496,494
494,726,494,496,495
493,783,495,498,495
493,760,493,497,494
493,679,496,499,497
493,495,493,497,495
493,341,493,498,496
493,276,494,496,495
493,248,494,498,494
494,271,492,497,496
493,300,496,497,494
493,395,496,497,494
493,508,496,497,495
493,633,493,497,497
493,772,494,497,496
493,774,495,498,495
493,746,493,498,498
493,614,495,498,496
493,410,495,497,496
493,308,493,497,496
493,255,495,498,496
493,255,493,498,494
493,283,495,497,494
493,335,495,496,495
493,440,495,498,495
493,558,493,496,495
494,719,495,500,497
493,780,493,497,496
493,763,493,497,497
493,701,491,497,497
493,520,492,498,495
493,349,491,497,495
494,281,494,499,497
493,254,496,498,495
493,273,498,498,494
494,298,497,499,494
493,380,494,497,495
493,493,494,497,495
493,619,494,497,495
493,754,494,496,495
493,777,494,497,496
493,747,493,498,495
493,640,493,497,496
493,430,495,497,495
493,317,493,497,496
493,256,493,499,495
494,256,495,498,495
493,275,492,497,494
493,330,496,498,496
493,426,495,497,495
494,544,493,497,495
494,690,493,497,494
494,777,494,499,496
493,767,492,497,496
494,726,497,498,498
493,544,494,497,497
493,365,494,497,496
493,294,495,498,497
493,252,494,496,495
493,261,495,497,495
493,288,493,496,496
493,366,494,497,495
493,478,494,497,495
494,601,495,497,494
493,752,493,499,495
493,779,493,498,495
494,757,492,498,497
493,656,492,497,496
493,456,494,497,495
493,326,494,498,495
493,261,493,498,496
494,247,493,496,495
493,278,495,498,495
493,321,496,497,494
493,414,495,498,495
493,528,493,497,495
493,668,492,499,496
494,776,491,498,496
493,770,491,497,497
493,739,493,497,497
493,570,495,498,496
493,380,494,497,496
494,300,493,497,495
493,240,493,498,495
493,263,495,497,494
493,287,497,498,494
493,349,494,498,496
493,463,495,498,494
493,584,495,499,495
493,736,493,496,496
493,784,493,497,496
494,759,493,498,495
493,673,495,498,497
493,481,495,497,495
493,331,494,498,495
493,270,494,499,495
493,250,496,498,493
493,268,493,497,496
494,306,495,497,496
494,403,494,497,495
493,518,494,497,495
493,647,492,496,495
494,770,491,497,496
493,774,493,497,495
494,747,491,496,497
493,594,496,497,496
493,398,496,497,495
493,308,496,498,494
493,251,495,498,495
493,251,493,497,493
493,284,493,497,496
493,337,495,497,494
493,448,495,496,495
493,566,494,496,494
493,729,494,500,497
493,785,493,498,495
493,765,496,498,497
493,690,492,498,497
493,509,494,497,495
493,340,493,497,495
493,272,493,499,497
493,244,491,497,496
493,268,495,498,495
493,296,496,497,494
493,388,495,497,495
493,500,496,498,496
493,633,495,497,494
493,763,495,499,495
493,777,493,497,497
493,750,493,497,497
493,624,494,497,496
493,416,494,497,495
493,312,492,498,495
494,238,492,499,496
493,254,494,498,495
493,279,495,497,494
494,330,497,498,496
493,433,496,497,495
493,553,495,498,496
493,702,495,497,495
493,784,493,497,495
493,768,493,497,496
493,716,496,498,497
493,534,494,497,494
492,353,494,498,496
493,285,494,499,497
493,250,494,498,495
494,267,494,498,495
493,287,490,497,497
493,373,492,497,495
493,485,494,498,495
493,611,496,496,494
493,757,495,497,495
493,783,494,499,495
493,759,493,498,497
494,651,497,497,495
493,438,493,497,496
493,321,493,498,496
494,257,493,500,497
493,243,490,497,495
494,279,491,497,496
494,320,494,498,495
494,420,495,497,495
493,540,496,497,495
493,681,496,500,497
493,783,494,497,496
493,777,496,498,497
493,734,495,498,498
493,557,495,497,497
493,372,494,496,496
493,294,494,496,495
493,238,494,498,494
493,256,492,496,496
494,284,494,497,494
493,356,494,497,493
493,471,493,497,494
493,595,493,499,495
493,747,493,499,494
493,791,493,498,497
493,763,494,499,496
493,670,495,498,495
493,467,497,498,495
493,327,495,497,496
493,255,495,495,495
493,246,496,497,494
493,271,495,497,494
493,311,496,497,496
494,409,494,497,494
493,526,494,498,494
494,663,493,497,495
494,778,493,498,496
493,781,494,497,496
493,748,494,498,497
493,580,495,497,498
493,389,494,496,494
493,295,495,499,496
493,247,495,498,494
494,256,495,497,494
493,280,494,498,498
493,342,493,497,496
493,458,494,497,495
493,575,493,496,496
493,736,493,496,496
493,790,493,497,495
493,765,495,499,497
493,686,495,497,494
493,491,494,498,496
493,335,492,498,496
494,271,494,499,496
493,241,493,498,496
493,267,494,497,496
493,299,492,497,495
493,392,493,497,495
493,510,495,498,495
493,641,496,496,494
493,770,497,499,495
493,782,494,497,497
493,749,497,498,498
493,612,495,498,496
493,406,494,497,496
494,309,494,498,495
493,236,493,499,495
493,255,490,496,496
493,277,492,497,495
494,332,491,497,495
494,445,494,497,495
493,562,496,499,495
494,718,497,497,495
494,794,498,498,496
493,769,495,499,497
493,704,493,499,497
493,523,494,497,495
493,341,493,498,496
493,275,493,496,495
493,245,496,498,495
493,265,496,497,496
493,293,497,497,494
493,379,495,497,496
493,494,494,498,494
493,624,495,499,495
493,762,495,498,497
493,786,493,498,497
493,758,491,498,498
493,636,492,498,495
493,429,491,498,495
493,313,494,499,495
493,251,497,500,494
493,251,498,497,493
493,277,497,498,496
493,326,496,497,494
493,432,495,498,495
493,547,496,498,495
494,697,494,496,495
493,790,494,498,497
493,774,497,498,497
493,728,494,497,495
493,541,495,499,496
493,360,494,499,496
493,288,495,499,496
493,251,496,498,494
493,258,493,499,497
493,284,494,497,497
493,369,495,498,495
493,478,495,498,495
493,605,494,498,495
493,754,494,499,492
493,788,495,499,495
493,760,495,497,492
493,661,495,499,495
493,452,495,497,495
493,325,495,498,496
493,248,494,496,496
493,245,495,498,497
493,275,495,497,495
493,310,495,498,495
493,415,494,497,496
493,533,495,499,496
493,675,493,497,497
493,788,496,498,496
493,779,495,500,497
493,744,494,499,497
493,572,495,498,496
493,379,495,497,495
493,290,496,499,495
493,240,493,497,496
494,253,495,497,494
493,280,496,496,495
493,349,495,497,495
494,466,495,499,496
493,587,494,499,495
493,752,495,497,497
493,792,494,499,497
493,767,494,499,497
495,679,493,497,495
493,477,491,498,496
493,328,491,497,494
494,263,496,500,493
493,242,497,498,493
493,269,496,496,495
493,305,494,497,495
493,400,496,497,496
492,520,497,498,496
493,651,495,498,496
493,776,495,498,497
493,782,496,498,497
493,744,498,498,499
494,600,496,497,496
493,395,496,498,496
493,301,495,499,496
493,248,495,498,494
493,253,494,498,496
493,277,495,497,495
493,343,495,499,495
493,447,496,498,495
493,566,494,497,495
493,727,494,497,495
494,792,497,498,496
494,770,496,496,493
494,694,494,500,496
493,505,494,500,496
494,339,493,499,494
493,270,494,496,495
493,243,496,498,497
493,268,496,496,496
493,291,496,497,497
493,385,495,497,496
493,503,495,497,496
493,633,496,499,495
493,768,495,499,497
493,784,496,498,498
493,756,495,501,497
493,627,495,499,496
493,418,495,498,495
493,306,494,499,495
493,247,493,496,497
494,249,495,496,494
493,272,495,496,495
493,327,493,496,493
493,440,495,498,495
493,553,494,500,495
494,716,497,498,495
493,791,496,499,494
493,773,496,499,493
493,719,496,496,493
494,527,497,498,496
493,349,495,497,499
493,282,496,499,498
494,245,496,498,496
493,260,495,497,495
493,289,495,496,493
493,378,495,497,493
493,489,494,498,492
493,617,495,497,494
494,760,493,498,494
493,789,494,499,495
493,754,495,497,495
493,653,496,500,495
493,437,495,497,494
493,319,496,498,495
493,251,498,499,498
493,248,497,499,500
493,278,495,498,499
493,328,495,499,497
493,422,496,498,496
493,539,495,499,497
493,686,494,498,498
493,785,497,498,498
493,776,496,498,496
493,730,496,500,496
493,553,496,498,496
493,365,495,497,495
493,293,495,497,494
493,244,495,498,497
493,255,495,497,497
493,292,496,496,496
493,356,495,497,497
493,471,495,498,495
493,597,496,498,494
493,752,496,499,496
493,788,497,497,495
493,765,497,500,496
494,669,496,499,496
493,465,494,497,495
493,324,495,498,495
493,258,496,497,495
493,249,496,497,494
493,267,495,497,495
493,307,494,496,495
493,410,494,498,496
494,524,494,499,492
493,669,496,500,490
493,781,495,498,490
493,778,496,499,495
493,745,495,499,497
493,583,495,497,496
493,381,496,499,499
493,296,494,496,497
493,248,496,498,494
493,255,498,498,496
493,281,499,497,497
493,350,497,499,498
493,456,495,499,498
493,581,492,497,496
494,733,492,498,497
493,786,494,501,499
493,764,497,497,495
493,680,497,500,497
493,487,497,497,495
493,335,495,499,495
493,268,495,500,497
493,248,494,498,497
493,267,492,497,494
494,299,493,497,498
493,397,495,497,494
493,511,495,498,495
493,640,493,497,496
493,770,493,496,496
493,781,496,499,495
494,746,494,499,495
493,609,495,498,496
493,402,495,497,495
493,307,494,498,497
493,247,497,497,496
493,256,494,499,499
493,278,493,497,496
493,339,496,499,495
493,444,494,498,496
493,562,496,498,497
493,720,494,498,496
493,782,494,499,497
493,763,494,497,495
493,692,494,498,494
493,514,497,497,494
493,345,498,498,494
493,278,497,498,494
493,244,497,498,497
493,271,496,499,497
493,297,495,500,497
493,384,495,498,495
493,495,494,497,493
494,623,496,499,491
494,762,493,498,493
493,779,497,498,495
493,747,496,497,496
493,631,496,498,499
493,428,494,498,499
493,312,495,499,495
493,244,494,497,493
494,251,492,498,492
493,278,493,498,492
494,329,497,496,493
494,429,494,497,495
493,550,494,499,495
493,704,495,500,497
493,784,496,499,496
493,770,496,497,497
493,717,498,497,495
493,538,493,497,499
493,359,494,497,495
493,285,495,496,496
493,244,493,497,498
493,263,495,498,497
493,295,498,497,497
493,369,496,498,497
493,482,496,498,499
493,607,495,499,497
493,754,494,499,495
493,780,495,498,495
493,757,496,499,496
493,650,494,498,495
493,449,496,497,491
493,324,495,497,486
493,256,496,496,491
493,255,495,495,490
493,280,495,498,496
493,317,494,497,502
493,416,495,501,501
493,531,494,499,499
493,679,496,500,498
493,781,496,499,498
493,768,496,500,497
493,738,498,500,497
493,562,497,498,497
493,374,495,498,496
493,296,494,496,496
493,249,497,497,496
494,264,494,496,494
493,283,495,496,495
494,350,494,497,495
493,465,494,497,496
493,589,494,497,497
493,747,496,500,495
493,785,494,498,497
494,757,495,500,498
494,671,494,499,497
493,474,495,498,498
493,331,496,499,498
493,262,497,501,495
493,251,497,499,495
494,274,496,498,495
493,310,493,497,497
493,405,496,499,496
493,519,496,499,496
493,652,496,497,494
493,769,495,498,495
493,768,493,497,496
493,738,494,500,498
493,594,494,498,497
493,395,495,498,496
493,304,494,497,497
493,248,493,499,497
493,262,494,499,498
493,283,492,496,496
494,347,493,497,496
493,451,493,497,496
493,571,495,498,494
493,727,497,499,495
493,781,496,499,494
493,756,496,497,493
493,688,496,499,495
493,499,494,497,495
493,337,492,497,496
494,275,490,497,495
494,250,491,500,495
493,275,493,497,496
493,308,494,500,498
493,396,496,499,497
493,502,497,500,496
493,634,496,499,495
493,764,496,499,496
493,772,497,500,497
493,750,496,497,493
493,612,496,497,496
493,413,495,498,495
493,312,495,497,496
493,247,494,497,498
494,256,495,496,495
493,288,494,499,495
494,339,493,499,495
493,439,493,498,494
494,553,494,499,494
493,710,493,498,498
493,781,495,497,494
494,761,496,497,493
493,701,498,498,496
493,530,497,498,496
494,352,496,497,494
493,288,496,498,503
493,254,495,498,498
493,274,494,499,495
493,298,494,499,496
494,382,494,496,491
494,489,493,498,492
494,614,495,497,493
494,759,499,498,497
493,776,497,497,497
493,747,496,496,501
493,648,495,497,501
493,433,495,499,501
493,320,494,498,497
493,254,492,497,494
494,256,493,498,492
493,280,495,496,490
494,332,496,499,494
494,424,495,499,497
493,546,498,501,499
494,690,499,501,500
493,776,497,499,500
493,770,495,497,498
493,729,496,501,498
493,547,495,497,492
493,369,495,496,488
494,294,494,497,492
494,250,494,497,494
494,267,495,498,499
493,296,494,497,502
493,372,494,498,500
493,477,495,499,497
493,597,496,501,495
493,744,493,498,496
494,778,495,497,498
493,756,493,497,498
493,655,493,497,498
493,460,493,498,496
493,328,495,498,495
493,269,495,497,495
493,252,498,498,492
493,285,498,499,496
494,325,498,500,496
493,414,496,499,499
493,526,494,499,498
494,666,496,498,500
493,772,494,497,495
493,768,494,497,494
493,732,495,497,493
494,572,493,498,494
493,387,492,499,493
494,300,491,498,494
494,257,493,498,496
493,268,490,499,496
493,291,492,499,498
493,354,493,497,498
493,459,495,498,497
494,576,497,497,492
494,740,499,498,493
493,781,500,498,495
493,755,499,497,497
493,674,495,498,499
494,483,496,499,498
493,336,492,497,494
493,269,490,496,493
494,251,491,496,494
494,274,494,497,490
494,308,492,497,490
493,400,495,499,490
493,517,493,498,493
494,647,493,499,496
493,769,495,500,500
493,772,497,499,503
493,742,499,500,500
493,600,497,500,496
493,402,496,497,491
493,307,496,499,485
493,244,494,499,482
494,266,495,499,488
493,287,493,497,491
493,340,492,497,500
494,450,490,497,506
494,561,492,499,509
493,720,492,496,505
493,783,499,499,499
493,757,499,499,495
493,691,501,498,492
493,511,500,499,490
494,344,497,498,492
493,286,497,496,495
493,250,497,499,500
493,270,494,497,501
493,303,494,498,500
493,386,495,498,494
493,496,494,499,491
494,620,489,497,491
494,761,490,498,496
493,772,490,497,497
494,744,491,498,497
494,625,493,498,497
493,423,494,497,499
493,317,500,499,500
493,258,503,503,498
493,257,497,498,498
493,283,496,498,497
493,331,494,498,491
493,433,494,497,488
493,548,494,498,486
494,703,493,499,492
493,779,496,498,496
493,763,497,499,499
493,709,493,497,497
493,534,494,498,493
494,358,488,498,493
493,288,486,497,494
493,252,486,497,498
494,268,486,498,501
494,296,492,501,495
493,375,491,502,494
493,482,490,501,497
493,611,493,502,496
493,752,494,501,491
494,776,496,501,491
493,747,495,498,487
494,648,500,497,487
493,445,508,494,483
494,325,503,496,492
494,255,498,497,498
493,261,495,499,488
494,281,493,497,491
494,325,496,497,488
494,422,495,496,477
494,535,495,496,489
494,678,492,495,495
494,771,492,498,491
494,763,491,500,497
493,730,493,501,503
494,558,493,501,506
494,375,493,501,503
494,298,498,498,505
494,254,501,495,485
494,264,501,500,489
494,289,496,495,493
494,359,495,496,491
494,466,497,498,485
493,589,489,499,486
494,740,484,498,487
494,775,489,500,495
493,757,492,504,504
493,671,498,506,509
494,472,501,502,508
493,332,501,499,502
494,266,498,498,502
493,250,498,496,498
493,276,491,498,498
494,310,490,500,500
494,411,486,502,500
493,523,480,502,498
493,655,478,502,496
494,772,483,502,496
494,772,492,499,491
494,740,499,498,489
493,582,502,495,481
494,393,499,492,483
494,303,494,491,486
493,253,491,492,484
494,260,487,493,496
493,284,483,502,504
493,351,486,501,496
493,457,494,505,496
493,571,493,502,497
493,727,494,503,507
494,782,501,504,509
493,753,498,499,506
493,685,497,498,504
493,494,488,503,501
493,339,466,506,498
493,275,455,506,494
493,249,462,503,491
493,270,474,500,490
494,308,485,503,495
493,394,498,500,493
493,509,508,500,485
493,636,510,497,482
494,761,508,492,476
494,771,507,493,475
493,738,505,487,484
493,614,505,494,492
493,414,505,499,492
493,312,508,501,504
493,250,509,499,506
493,258,516,499,505
493,287,515,496,507
493,335,509,497,496
493,441,498,497,487
493,553,495,496,487
493,711,492,494,491
494,776,492,492,469
494,763,488,494,460
494,705,488,498,477
493,524,489,500,494
493,346,475,500,512
493,284,467,502,491
493,249,482,501,447
493,266,484,500,453
494,294,477,500,474
494,378,475,504,497
493,493,492,507,528
493,621,502,508,526
493,758,494,506,508
493,780,501,501,501
493,753,509,497,505
493,641,512,495,511
493,434,516,496,510
493,318,517,497,499
493,252,508,497,492
493,254,500,501,483
493,277,496,500,480
493,330,482,495,478
494,424,477,499,483
493,540,479,503,493
493,689,479,505,491
494,781,487,505,474
494,760,481,492,450
494,727,492,489,451
494,540,491,488,466
494,361,484,493,498
494,295,487,500,534
493,254,479,508,542
493,264,487,512,530
493,290,496,509,518
493,370,493,501,510
493,476,496,500,508
493,600,493,508,512
494,746,488,509,508
493,779,491,504,504
493,757,494,497,495
493,660,502,497,490
493,456,506,495,476
493,328,506,494,452
494,255,510,494,457
493,253,505,492,479
493,279,496,497,501
493,316,502,504,521
493,414,501,501,510
493,529,508,501,494
493,671,503,496,492
493,780,503,498,485
493,773,501,499,470
494,739,495,502,474
493,573,491,507,488
494,379,478,506,498
493,294,469,501,501
494,254,471,497,492
493,259,477,498,484
493,286,481,499,484
493,350,486,499,492
493,464,493,501,506
493,584,503,502,517
493,745,495,505,494
493,782,488,503,457
494,760,485,496,453
494,674,493,491,466
493,479,512,493,510
493,333,527,502,559
493,269,527,508,539
493,250,519,502,502
493,272,493,498,491
493,305,472,502,490
493,397,443,502,482
494,516,444,504,482
494,646,474,505,485
494,771,492,497,486
494,779,508,494,499
493,744,541,498,509
493,606,546,499,517
493,402,536,499,518
493,307,512,496,506
493,255,506,496,498
493,261,509,494,489
493,286,506,492,470
494,347,491,499,456
494,449,478,499,451
494,567,477,500,484
494,728,476,500,507
493,793,472,498,531
494,773,488,501,521
493,697,508,509,507
492,513,500,504,497
493,347,489,506,496
494,282,453,500,493
494,250,456,497,486
494,274,471,500,476
494,296,483,495,451
494,388,498,494,460
494,506,518,494,476
494,633,519,499,491
493,776,519,496,515
494,788,518,502,530
493,759,506,511,534
493,632,476,509,525
494,421,464,507,513
493,311,479,501,500
493,252,481,491,477
494,253,501,489,434
493,279,543,487,442
494,332,552,492,471
494,439,533,497,518
493,555,509,500,541
494,716,496,508,535
493,789,479,504,521
493,771,478,504,505
493,718,477,503,499
494,529,477,498,499
494,352,489,492,499
493,286,495,496,473
494,249,490,496,449
494,262,496,495,465
493,291,503,501,493
493,376,502,505,531
493,487,475,507,527
494,617,479,506,496
493,756,490,499,470
494,787,484,494,464
494,758,478,489,466
494,651,487,495,502
493,442,520,504,522
493,319,527,502,507
493,254,519,496,504
494,249,499,495,502
494,271,484,498,496
493,317,480,496,459
494,416,477,498,456
494,535,475,493,467
494,680,473,488,497
494,788,492,492,534
493,775,496,497,530
493,736,528,495,510
494,558,532,492,495
493,370,528,493,491
493,292,510,497,493
494,248,502,495,491
494,255,500,501,484
493,285,469,503,489
493,350,459,500,487
493,465,461,499,483
494,591,462,498,479
494,752,488,493,470
494,786,494,488,465
494,762,482,498,488
493,665,485,500,494
493,462,496,501,516
493,320,512,504,508
494,253,536,499,488
493,241,545,497,496
493,263,524,493,496
493,299,493,488,488
493,401,495,499,491
493,521,500,504,502
493,666,502,505,517
493,780,508,519,514
493,776,509,510,497
494,744,505,502,486
494,583,499,496,493
493,381,489,495,503
493,293,483,496,503
493,241,489,502,506
494,247,488,504,505
492,274,496,504,502
493,344,481,498,500
493,451,490,495,503
493,576,459,502,506
493,732,425,501,500
493,788,433,502,498
493,767,456,507,490
493,681,471,503,494
493,489,518,498,496
493,336,556,496,501
493,269,569,498,495
493,241,545,488,462
493,266,520,484,453
493,289,511,489,448
493,396,504,494,463
493,511,498,498,508
493,642,491,514,513
493,775,491,515,480
493,784,485,500,482
493,753,458,489,494
493,609,475,490,525
493,406,499,498,548
493,305,497,504,526
493,245,495,504,512
493,249,510,503,492
493,278,505,501,488
493,327,483,497,490
493,438,493,503,497
493,560,506,499,511
493,728,499,501,514
493,794,495,503,512
493,770,497,508,509
493,708,493,506,497
492,518,487,498,494
493,340,498,494,488
493,274,506,496,471
493,237,486,489,435
493,254,478,489,443
494,283,474,493,477
493,375,488,494,506
493,495,501,498,524
493,631,529,503,512
493,775,540,506,496
493,793,521,507,500
493,760,497,507,487
493,640,482,493,495
493,424,473,496,514
493,307,450,501,527
493,236,452,500,522
493,242,483,500,504
493,266,504,496,486
493,320,517,496,483
493,425,519,493,489
493,550,516,501,516
493,701,508,504,517
493,792,499,509,513
493,777,497,508,505
492,727,512,511,494
493,543,511,505,465
493,355,492,492,434
494,282,490,489,445
493,240,486,490,486
493,254,487,492,536
493,288,479,501,526
492,359,471,501,500
493,481,481,497,501
494,608,497,506,517
493,760,515,511,518
493,796,521,506,501
493,768,508,508,499
493,655,486,497,485
493,451,480,496,493
493,318,477,498,494
493,249,502,499,517
493,245,527,506,518
493,265,536,512,511
493,308,517,496,500
493,413,501,493,500
493,531,489,500,498
493,680,467,498,492
493,792,476,502,484
493,776,477,497,488
493,748,478,495,497
493,570,502,502,505
493,374,521,506,504
493,292,515,499,492
493,236,498,489,482
493,252,472,487,492
493,275,486,497,495
492,345,500,502,489
493,463,511,498,483
493,590,490,505,490
493,749,486,506,491
493,800,480,502,500
493,771,486,500,506
493,681,503,495,495
493,475,517,483,479
493,327,519,488,458
493,255,492,492,484
493,235,485,499,500
493,261,485,501,536
493,296,473,507,524
493,405,486,507,515
493,525,505,507,512
493,664,504,502,515
493,790,503,503,510
493,789,484,499,495
493,752,479,496,471
493,596,498,497,473
493,393,525,497,479
493,297,529,498,480
493,237,525,500,465
493,243,506,500,479
493,281,487,501,514
493,336,484,500,537
493,454,492,509,528
493,574,485,504,512
493,739,496,499,511
493,800,495,496,509
493,771,502,499,506
492,691,497,500,504
493,503,490,494,493
493,334,492,496,487
493,264,489,498,488
493,239,488,503,497
493,256,493,507,505
492,293,487,500,498
493,387,486,497,493
493,504,485,493,487
493,638,475,495,472
493,779,490,506,485
493,795,497,507,510
493,755,489,504,525
493,631,500,500,508
493,416,524,500,500
493,305,535,493,489
493,234,519,490,487
493,243,507,496,478
493,265,497,495,472
493,321,494,499,488
493,433,492,505,516
492,560,480,506,527
494,715,476,500,516
493,796,496,498,508
493,782,507,495,501
493,721,502,494,496
493,531,506,491,489
493,345,512,496,479
493,271,510,497,469
493,238,502,495,475
493,254,480,496,503
493,280,476,497,520
493,367,476,503,514
493,489,481,505,493
493,623,484,499,484
493,767,508,493,469
493,795,515,489,447
493,764,501,490,467
493,650,498,494,473
493,435,493,497,504
493,308,466,505,547
493,244,469,510,546
493,243,484,508,526
493,268,494,503,513
492,318,505,500,498
492,422,515,497,496
493,545,529,498,491
492,693,513,495,493
493,792,502,500,491
493,784,497,500,500
492,739,491,498,507
493,551,487,499,504
493,359,492,501,497
492,285,499,501,494
493,237,502,500,495
492,246,492,499,491
493,281,498,497,481
493,352,496,498,489
493,475,490,497,509
493,601,489,501,519
492,758,480,509,504
493,797,479,502,509
492,771,480,497,510
493,668,486,497,505
493,461,502,496,499
492,318,512,496,499
492,247,506,496,502
493,240,501,493,501
492,265,501,497,500
493,309,495,498,496
493,408,478,501,499
492,524,451,502,498
493,673,467,502,499
492,791,479,497,497
492,784,501,495,496
492,750,523,496,497
492,581,528,501,499
492,378,514,499,498
492,289,505,499,497
492,238,506,502,493
492,246,497,495,478
492,276,490,495,479
493,344,495,490,483
492,458,506,491,498
493,588,506,495,501
492,756,505,501,505
492,807,502,500,505
492,780,503,502,497
492,684,499,497,498
492,492,495,496,490
492,327,491,493,473
493,260,493,495,478
493,238,494,495,486
493,262,493,496,514
492,300,495,495,498
492,403,496,495,476
492,517,496,496,488
493,654,494,496,502
492,789,495,499,521
492,794,493,503,522
492,765,497,503,516
492,616,500,499,504
492,400,495,501,503
492,303,486,502,503
492,237,476,498,498
492,240,483,498,489
492,278,491,500,484
492,329,501,498,493
492,451,514,500,504
492,574,521,503,508
492,738,505,501,508
492,804,494,494,500
493,784,496,496,500
492,705,504,496,500
492,517,498,496,500
492,337,491,496,499
492,271,483,496,496
492,230,482,493,497
492,260,472,494,500
493,286,480,492,499
492,382,489,490,497
492,499,496,490,498
492,634,499,489,497
492,783,494,491,498
492,796,490,490,499
493,771,491,491,499
492,649,497,495,498
492,424,502,497,498
492,305,509,503,498
492,234,503,503,498
492,239,502,499,496
491,268,502,496,496
492,322,503,497,497
492,433,501,498,499
492,558,492,495,500
493,721,486,494,498
492,804,488,496,498
492,789,490,496,498
492,736,493,500,499
492,545,493,502,499
492,355,497,503,499
492,280,497,501,498
492,237,495,498,500
492,259,501,501,499
492,286,499,495,497
492,363,497,497,497
492,484,498,496,498
492,620,500,500,498
492,779,501,498,497
493,805,499,498,497
492,775,495,499,496
492,662,497,497,499
492,447,497,495,499
492,313,495,492,498
492,240,492,490,497
492,234,492,493,499
492,262,490,492,499
492,314,493,491,498
492,418,491,492,497
492,542,493,493,497
492,695,493,492,496
492,800,494,495,500
493,797,493,495,499
492,756,495,502,497
492,569,494,498,495
492,370,495,496,492
492,287,496,496,493
493,226,494,495,493
492,247,497,496,500
492,278,492,495,503
493,347,493,496,500
492,471,496,501,498
492,596,498,501,496
492,762,495,496,497
493,812,494,493,502
493,780,489,489,505
493,685,486,488,505
493,475,487,487,503
493,320,487,488,501
493,253,492,495,497
492,232,495,497,499
493,261,498,490,498
492,301,496,482,498
492,400,491,479,499
493,526,487,481,499
493,670,482,487,497
493,797,488,494,499
493,795,493,504,498
493,758,494,507,498
493,596,498,509,500
493,385,503,506,498
493,292,502,504,500
493,224,500,498,499
493,242,500,496,499
493,271,499,498,497
492,331,499,498,499
493,455,498,497,498
493,580,498,500,499
493,754,500,501,499
493,813,501,500,498
493,779,499,499,500
493,701,500,499,501
493,500,498,499,498
493,326,498,498,498
492,256,497,497,497
493,226,497,498,498
493,256,493,496,498
493,291,495,498,498
493,386,495,496,498
493,508,496,496,499
493,648,497,497,499
493,786,497,498,498
493,801,498,498,500
493,773,496,497,499
493,630,496,498,500
493,409,494,497,500
494,301,496,497,499
493,223,493,495,499
493,242,496,498,499
493,264,496,498,497
493,325,497,497,498
493,440,498,497,498
493,564,499,497,500
493,729,499,497,498
493,812,498,499,500
492,781,496,496,499
493,718,496,496,499
493,527,497,497,499
493,340,497,498,500
493,266,495,498,500
493,235,495,497,501
493,249,494,497,501
493,281,493,496,501
493,373,495,497,499
493,489,496,496,498
493,632,496,499,497
493,777,496,499,499
493,806,498,498,497
493,774,498,498,497
493,655,499,498,499
493,428,497,497,498
493,304,496,497,499
493,228,497,496,497
494,228,495,496,497
494,259,496,496,498
494,317,497,499,497
493,422,495,498,497
493,551,496,497,500
493,703,494,496,501
494,808,495,497,500
493,793,496,496,498
493,748,495,499,500
493,549,496,497,498
493,353,497,499,499
494,279,498,499,499
494,235,498,498,497
493,247,497,497,500
493,274,496,496,497
493,358,495,496,498
493,475,495,495,498
493,607,495,494,497
494,766,496,494,499
494,810,497,498,501
494,776,495,496,498
493,673,495,498,500
493,454,495,497,499
493,315,496,498,499
493,247,498,498,498
493,234,497,499,499
494,256,495,497,498
494,307,498,499,498
495,410,497,498,499
494,536,497,498,499
494,681,495,497,497
493,800,496,499,499
493,792,496,497,498
493,753,495,497,498
493,578,494,496,498
493,374,496,497,498
493,286,497,498,500
493,226,495,497,496
493,240,496,499,500
493,273,497,498,500
493,345,496,499,498
493,460,497,498,499
493,588,497,500,498
494,753,495,498,499
493,805,497,498,499
493,776,496,496,498
493,686,496,496,501
493,484,497,497,499
493,322,498,497,498
493,246,497,496,498
493,225,496,498,499
494,254,496,499,499
494,292,497,497,497
493,395,494,497,497
493,517,495,497,498
493,659,494,500,499
494,792,496,500,498
493,797,498,499,497
493,762,497,498,499
493,607,498,498,498
493,392,496,498,499
494,291,495,498,498
493,227,496,497,498
494,236,494,496,499
493,270,496,497,498
494,324,498,498,498
494,443,498,498,499
493,565,496,498,499
494,735,495,499,500
494,799,497,497,499
493,781,497,498,499
493,701,495,499,499
494,510,497,498,499
494,332,496,497,497
493,265,497,498,500
494,233,497,498,499
493,259,496,499,497
494,281,494,496,498
494,376,495,497,498
494,498,495,497,498
493,635,495,497,495
494,778,497,499,498
493,799,495,498,497
494,766,498,500,498
494,638,498,499,499
493,418,496,497,498
494,302,495,497,499
493,235,497,498,499
493,241,495,496,498
494,261,495,496,498
493,316,494,495,498
494,430,495,496,498
493,556,494,497,499
494,717,497,497,497
494,801,495,499,499
494,783,496,502,499
494,730,496,500,499
493,534,496,497,498
493,349,495,497,498
493,276,497,498,497
494,236,496,497,497
493,247,496,496,497
493,280,494,496,495
493,370,496,498,497
493,483,495,497,498
493,619,496,497,498
494,765,494,498,499
494,797,495,498,499
493,769,495,496,496
494,652,496,499,499
494,441,495,497,497
493,315,496,498,498
494,246,496,500,498
493,239,496,498,497
493,266,494,498,497
493,309,495,498,499
493,419,495,497,497
493,536,495,497,498
493,681,493,497,497
494,791,496,498,497
493,781,494,498,499
493,739,496,497,499
493,561,495,499,498
494,364,495,498,497
493,287,495,498,496
494,241,495,495,497
493,245,496,497,496
493,275,493,496,499
494,343,494,496,497
493,459,494,497,496
493,583,493,496,496
494,748,495,499,497
493,779,493,498,497
493,756,494,498,499
493,662,493,499,499
493,458,494,496,497
493,318,494,496,497
493,250,495,500,499
494,230,493,496,496
493,263,496,497,496
493,299,496,498,497
494,401,494,497,498
493,522,493,497,497
493,657,493,499,499
494,782,492,495,497
493,781,493,497,498
494,749,492,496,498
493,591,493,497,497
493,388,494,497,497
493,296,493,496,497
493,236,494,499,496
494,252,496,499,496
494,279,496,496,496
493,342,493,497,497
494,455,494,498,496
493,578,493,499,496
494,737,495,497,496
493,792,493,498,497
494,768,492,497,496
493,694,496,497,499
493,497,494,497,496
493,335,493,497,497
494,271,494,499,499
494,244,494,499,498
494,264,491,496,498
494,298,495,497,499
494,395,493,497,496
493,512,494,497,497
494,640,493,497,497
494,773,491,497,498
494,786,492,498,496
494,754,491,498,499
493,618,493,497,498
494,410,494,496,497
494,306,496,497,498
494,248,494,497,496
494,249,492,496,496
494,278,493,498,499
494,334,495,497,496
493,440,495,500,497
493,559,493,498,496
493,726,495,499,497
494,788,493,498,496
494,773,495,499,497
494,709,493,499,498
493,525,494,498,497
493,346,493,497,496
494,278,493,499,497
494,243,490,497,497
494,268,493,496,496
494,293,494,497,496
493,378,494,497,496
493,492,494,497,497
493,626,494,497,497
494,759,494,498,496
494,786,492,497,497
494,756,493,497,498
493,641,493,498,498
494,433,494,496,495
494,316,493,497,496
494,243,491,498,496
494,256,494,498,495
494,278,494,497,496
493,327,494,497,497
493,429,494,497,496
493,546,493,498,497
493,693,493,496,495
493,783,493,497,496
493,770,492,498,498
493,732,495,496,498
494,547,493,498,496
493,364,492,497,496
494,295,493,498,496
494,252,494,497,496
493,266,494,498,496
493,292,493,496,497
494,363,494,496,497
493,479,491,495,495
494,602,492,495,495
494,749,492,497,498
494,784,492,498,495
493,759,493,497,498
493,658,494,497,496
493,457,493,497,496
494,327,493,498,497
494,261,493,499,498
493,249,490,495,495
494,278,494,497,498
494,318,493,496,495
494,415,493,497,496
494,530,493,497,496
493,666,492,499,498
493,779,492,498,496
493,773,494,498,497
494,740,491,496,497
493,571,493,498,497
493,379,493,497,497
494,300,492,496,495
494,246,492,498,496
494,258,491,496,497
494,291,493,497,495
494,353,493,497,495
493,462,492,497,494
493,585,493,498,493
493,735,493,499,496
493,787,491,496,496
493,760,491,497,496
493,673,491,497,497
493,483,492,496,495
493,334,491,497,496
493,263,491,495,497
493,254,492,496,494
493,277,494,497,494
493,308,494,497,497
494,403,492,497,494
493,515,492,498,496
493,647,492,496,494
494,768,491,496,496
493,772,491,497,497
493,742,490,496,496
493,601,493,496,496
493,399,492,497,495
493,305,492,496,497
493,251,491,496,496
493,262,490,496,497
494,287,489,494,495
493,346,492,498,495
493,447,490,497,495
494,567,491,497,494
494,724,492,498,494
493,780,493,497,496
493,766,494,496,495
493,686,495,499,495
493,505,491,494,495
493,340,491,495,496
493,277,491,495,498
494,248,490,494,494
494,277,491,496,495
493,296,490,498,495
493,393,492,497,495
493,501,493,498,495
493,628,493,498,495
493,764,491,498,496
493,774,493,497,494
493,751,494,499,495
493,621,492,495,495
493,417,493,496,495
493,312,491,497,495
493,254,492,496,497
493,258,491,496,495
493,286,490,497,494
493,336,491,498,495
493,436,493,498,495
493,549,493,496,495
493,707,495,499,496
493,780,492,497,495
493,762,492,495,494
493,709,493,496,495
493,529,492,497,496
493,357,492,495,495
493,290,494,497,494
493,248,490,496,496
493,270,491,497,496
494,297,491,498,497
493,374,492,497,495
494,485,492,497,495
493,612,491,496,495
493,759,493,497,495
494,781,494,496,494
493,749,494,495,494
493,649,492,496,496
493,440,493,496,495
493,321,492,495,495
493,252,489,494,495
493,254,490,496,497
493,279,490,496,495
493,324,490,497,496
493,419,492,496,495
493,540,492,496,495
493,686,493,497,495
493,778,494,498,495
493,768,492,498,494
493,727,495,499,497
493,555,492,497,495
493,373,492,495,493
493,293,491,495,494
493,245,491,497,496
493,263,493,496,494
493,293,492,498,493
493,356,491,498,495
493,473,492,496,495
493,595,493,498,494
494,748,494,499,497
493,784,493,496,494
493,758,492,499,497
493,659,492,496,495
493,466,492,497,495
493,328,492,496,496
493,264,492,497,496
494,253,490,495,494
494,271,491,498,495
493,317,492,497,494
494,412,492,496,495
493,521,491,496,496
493,663,493,497,494
493,774,492,498,495
493,769,492,496,495
493,736,492,496,494
493,579,491,496,495
494,388,492,495,495
493,303,491,494,495
493,250,494,496,494
493,261,491,496,495
493,288,491,496,496
493,348,491,497,495
493,453,492,495,494
493,575,492,495,495
493,729,492,497,494
493,784,492,496,493
493,758,491,496,494
493,677,490,499,496
493,490,492,496,495
493,337,493,497,495
493,267,491,495,495
493,247,490,496,497
493,271,490,498,495
493,296,489,496,495
493,399,489,495,493
493,509,490,498,495
493,643,493,496,494
494,774,493,493,493
494,777,492,492,494
493,748,488,491,494
494,608,488,491,495
493,405,490,496,493
493,306,495,501,493
493,242,492,496,494
493,253,494,497,494
494,282,491,496,496
493,335,492,496,495
493,442,488,494,495
494,560,488,496,495
493,719,490,498,494
493,782,492,499,494
493,770,492,496,496
493,702,494,496,495
493,521,493,498,494
493,346,495,497,492
492,280,493,499,495
493,244,493,497,494
493,271,494,497,495
493,290,491,496,495
493,381,491,497,495
493,493,492,497,495
493,621,492,497,493
494,765,491,498,494
493,779,491,496,494
493,755,493,497,494
493,640,494,496,495
494,429,492,496,495
493,313,491,497,493
493,246,490,496,495
493,245,490,496,494
493,273,490,495,494
493,325,490,495,493
493,429,492,498,494
493,546,492,499,494
493,698,494,499,496
493,787,492,498,495
493,774,493,499,494
493,729,493,496,495
494,538,492,497,495
493,359,492,496,495
494,285,493,496,493
493,245,492,495,494
493,260,492,496,494
493,285,490,495,496
493,370,492,496,494
493,480,492,497,494
493,604,491,495,495
493,755,490,496,495
493,788,493,497,495
493,752,492,495,494
493,663,492,498,494
493,448,492,497,495
493,324,492,497,493
493,256,494,497,492
493,246,494,498,496
493,273,493,497,494
493,319,492,499,495
493,412,492,496,495
493,531,492,496,494
494,671,491,495,494
494,784,492,495,495
493,776,490,493,492
493,735,490,496,496
493,567,490,495,494
493,374,491,496,494
493,297,494,501,494
493,235,491,497,495
493,259,492,496,495
494,282,490,495,493
493,348,493,496,494
493,465,495,500,494
493,583,494,500,495
493,747,493,497,495
494,794,494,498,493
493,761,491,497,496
493,674,491,497,498
493,479,492,495,495
493,328,491,493,495
493,266,490,491,493
493,239,491,494,494
493,269,492,496,494
493,306,493,498,492
493,401,493,500,495
493,522,493,498,494
493,659,492,499,493
493,773,491,497,495
493,779,490,497,495
493,749,492,497,496
493,596,493,496,495
493,393,492,497,494
493,297,492,496,494
494,244,490,498,495
493,255,492,497,495
493,281,492,497,495
493,332,492,495,495
493,450,491,496,493
493,569,492,498,494
494,733,491,498,495
493,793,493,498,495
493,769,493,496,493
493,690,491,496,495
493,504,493,496,495
493,334,491,497,496
493,272,491,497,498
493,244,490,496,495
493,257,489,496,496
493,297,487,491,495
493,390,489,493,494
493,505,491,496,493
494,637,493,497,492
494,771,495,498,493
493,787,494,501,494
493,752,492,500,493
493,627,492,497,495
493,413,492,495,495
493,310,491,496,495
493,241,493,495,493
493,252,491,497,495
493,271,490,495,494
493,331,493,498,494
493,438,493,497,493
493,556,494,496,494
493,711,491,496,493
493,790,491,498,495
493,768,492,496,495
493,711,492,496,494
493,530,493,496,494
493,350,492,498,495
493,279,491,495,494
493,248,494,496,495
493,261,491,498,495
493,290,492,499,496
493,375,492,498,494
493,487,492,498,494
493,619,493,498,494
494,761,491,497,495
493,790,494,497,494
493,758,493,496,493
494,649,493,496,495
493,438,492,496,494
493,316,492,496,494
493,242,490,494,494
493,243,490,493,495
493,273,489,493,495
493,318,491,493,493
493,424,490,495,494
494,544,493,499,494
493,696,495,502,495
493,791,495,500,493
493,779,495,498,495
493,736,495,496,493
493,556,492,497,495
493,363,492,496,494
493,285,491,495,494
494,237,491,495,494
493,256,491,496,495
493,285,493,496,495
493,360,493,496,493
493,472,493,497,495
493,601,492,498,495
493,759,493,498,494
494,789,491,497,496
493,766,494,497,496
493,668,492,497,494
493,461,494,498,494
493,324,493,495,493
493,253,493,498,495
493,246,491,496,494
493,273,493,497,492
493,307,491,496,495
493,409,491,496,495
493,527,491,495,495
493,667,494,496,497
493,788,493,496,495
493,779,493,498,495
493,748,494,498,494
493,581,494,497,493
493,384,493,497,493
493,293,491,496,496
494,239,493,494,495
493,256,492,494,493
493,273,491,494,493
494,340,491,497,494
493,457,492,498,494
493,578,492,498,495
493,745,494,497,494
493,797,493,498,496
493,771,492,498,495
493,689,493,497,495
493,487,491,495,495
493,332,493,496,494
493,264,495,496,493
493,236,493,495,493
493,260,491,495,493
493,293,492,498,494
493,396,492,497,494
493,514,493,498,494
493,646,491,497,495
493,776,492,498,495
493,786,492,498,495
493,755,493,496,494
493,596,494,498,495
493,400,493,496,494
493,302,494,497,493
493,240,494,496,494
493,247,493,496,493
493,279,493,498,493
494,327,491,496,493
493,446,492,497,494
493,560,491,497,495
493,723,490,496,496
493,795,494,496,494
493,774,493,499,495
494,698,492,496,494
493,519,494,498,495
493,339,493,496,494
494,276,494,496,495
493,242,492,495,493
493,257,493,497,495
493,289,492,496,494
493,377,492,497,494
493,495,492,496,494
493,629,491,496,495
493,770,495,497,495
493,791,493,496,493
493,754,493,499,495
493,626,494,497,494
493,426,493,496,494
493,312,492,496,495
493,241,494,498,494
493,249,492,498,494
493,268,491,496,493
493,319,491,496,494
494,428,493,497,495
494,553,494,498,495
493,702,494,496,493
494,795,493,497,496
493,778,493,497,495
493,725,492,497,495
493,538,492,497,493
493,354,493,500,495
493,281,492,498,493
493,244,494,496,492
493,255,494,495,493
493,284,493,495,492
493,365,493,497,494
493,480,492,497,493
494,613,493,497,494
493,758,491,498,495
493,792,492,497,496
494,764,492,497,494
493,655,494,498,496
493,449,493,496,494
493,320,492,497,494
493,251,493,499,495
493,246,493,498,493
493,270,490,497,496
493,313,494,496,496
493,418,492,496,493
493,536,493,497,493
493,678,492,497,493
493,787,492,499,494
493,783,492,497,495
493,742,494,496,493
493,567,492,496,495
493,370,492,496,495
493,291,491,497,496
493,244,491,498,493
493,250,491,498,493
494,285,491,495,494
493,354,494,497,493
494,468,493,496,493
493,590,493,496,493
493,754,492,498,495
493,790,492,496,495
493,769,493,496,495
493,672,491,495,495
493,474,492,495,494
493,326,491,495,494
493,259,492,496,496
493,238,491,494,494
493,274,492,498,495
493,309,493,500,494
493,405,493,497,494
493,523,493,498,493
493,661,495,497,495
493,786,493,497,494
494,776,493,496,495
493,747,492,496,494
493,595,491,496,495
493,394,492,497,495
493,296,492,495,495
493,246,494,495,496
493,252,492,497,496
493,280,492,496,495
493,344,492,495,494
493,450,492,496,494
493,573,491,497,494
493,744,495,499,494
493,796,494,497,494
493,771,493,496,494
493,700,492,498,494
493,502,493,497,494
493,340,492,495,494
493,269,491,495,494
493,243,491,498,495
493,268,494,496,493
493,301,492,498,495
493,390,492,497,494
493,512,492,498,494
493,647,493,499,494
493,784,494,498,494
493,794,494,497,496
493,763,493,497,494
493,631,493,498,495
493,415,493,497,492
493,307,492,496,494
493,239,491,495,494
493,254,494,496,495
493,278,492,495,493
493,333,492,497,494
493,443,492,497,494
494,562,493,498,495
493,726,491,496,494
493,801,494,498,494
493,781,491,497,494
493,719,494,496,494
493,530,493,496,495
493,351,492,494,495
493,287,493,494,494
494,238,493,497,494
493,263,490,496,495
494,292,491,498,495
493,377,492,496,494
494,493,491,495,495
493,623,491,494,495
493,777,493,496,494
493,796,496,499,493
493,765,495,497,494
493,651,494,496,494
493,439,492,495,494
493,315,493,496,493
493,252,493,499,494
493,243,492,497,494
493,270,492,497,494
493,320,491,496,493
493,427,493,497,495
493,547,493,497,494
493,704,493,498,495
493,798,494,499,494
493,783,495,498,494
493,739,492,497,497
494,553,493,498,496
494,362,491,496,494
493,286,492,495,493
493,236,491,496,494
493,251,490,496,495
493,283,493,497,493
494,358,492,498,496
493,477,493,497,494
493,606,493,498,496
493,760,492,499,496
493,799,493,499,495
494,765,492,498,494
493,672,492,496,495
493,462,494,497,494
493,323,494,496,493
493,249,494,497,493
493,244,492,497,495
494,262,492,496,494
493,313,493,495,494
493,410,493,496,494
493,528,492,497,495
493,671,491,498,493
493,791,493,498,496
493,780,492,496,495
493,753,493,499,495
493,581,494,496,495
493,380,492,496,495
494,292,493,496,497
493,238,491,496,493
493,244,492,499,494
493,274,492,496,493
493,340,492,497,493
493,457,493,497,494
493,584,493,496,493
493,746,491,497,494
493,794,492,497,495
494,775,493,498,494
493,687,494,499,495
493,486,494,498,495
493,327,494,498,494
494,256,492,496,496
493,235,492,494,493
493,258,492,494,494
493,289,491,494,494
493,400,493,498,493
493,514,493,499,494
493,652,491,497,496
494,784,492,497,496
493,789,493,498,496
493,757,493,498,496
493,603,492,495,494
493,399,493,496,494
493,298,492,495,493
493,240,494,496,493
494,243,493,495,493
493,270,493,498,495
493,336,494,497,494
493,446,493,498,494
493,566,492,498,494
493,727,493,498,495
492,794,491,498,496
493,772,493,496,495
493,706,492,496,494
493,510,493,497,495
493,338,493,497,494
493,272,494,499,494
493,237,492,496,495
493,258,494,496,493
493,290,491,498,493
493,377,492,496,494
493,497,493,497,494
493,626,492,496,494
493,767,492,497,494
493,793,493,497,496
493,755,494,496,494
493,638,493,498,495
493,420,493,496,494
493,307,492,497,494
494,233,491,495,493
493,242,493,497,496
493,269,491,495,494
493,321,492,495,493
493,426,492,497,495
493,547,491,498,495
493,702,493,496,494
492,792,497,499,496
493,777,493,497,495
493,724,493,498,496
493,537,494,497,494
493,351,493,497,494
493,279,493,496,494
493,241,494,497,494
493,255,495,497,493
493,280,494,496,493
493,359,493,496,494
493,477,492,497,494
494,602,492,499,496
493,760,492,497,495
493,783,492,497,495
493,753,492,498,497
493,648,495,496,494
493,437,493,496,495
493,308,493,496,495
493,245,493,498,496
494,240,494,498,494
493,265,494,498,496
493,311,491,496,494
493,414,492,497,495
493,535,493,497,494
493,680,493,495,493
493,785,492,495,494
493,782,494,496,494
494,745,492,496,495
494,561,493,496,496
493,372,492,497,495
493,295,493,498,495
493,244,493,498,495
493,259,492,496,495
493,287,494,499,493
493,354,492,497,494
493,475,493,497,494
493,595,494,497,493
494,754,494,497,495
493,802,493,498,494
493,766,495,499,494
493,674,491,497,495
493,475,493,496,494
493,327,492,497,495
493,259,495,497,493
493,246,493,498,494
493,264,493,498,494
493,312,492,498,494
493,407,493,498,495
493,522,493,497,495
493,659,495,498,494
493,782,493,498,496
493,779,492,496,494
493,744,493,495,494
493,588,492,497,494
493,388,493,496,494
493,299,494,496,495
493,234,495,497,493
493,249,492,497,496
493,277,493,498,496
493,338,493,498,495
493,446,492,496,494
493,571,494,498,495
493,726,492,499,495
494,788,493,497,494
493,759,493,496,494
493,677,493,498,497
493,492,493,496,494
493,326,492,497,494
493,257,491,495,494
493,235,492,495,495
493,258,492,497,495
493,289,493,497,495
493,390,492,498,494
493,503,492,498,495
493,644,492,499,495
493,777,494,498,494
493,785,494,498,494
493,753,494,497,496
493,615,496,496,495
493,407,493,496,494
493,304,493,496,494
493,236,493,495,494
493,245,491,498,493
493,279,492,497,496
493,331,494,498,494
493,441,492,496,494
493,560,493,498,495
493,719,493,499,496
493,788,493,497,495
493,776,495,497,496
493,708,495,497,494
493,525,493,496,495
493,348,493,496,494
493,276,492,498,496
494,241,492,495,494
493,265,494,498,496
494,287,492,496,495
494,379,492,495,494
493,489,493,495,495
493,620,492,496,494
493,765,492,498,495
493,783,493,498,495
493,760,495,498,494
493,648,496,499,493
493,433,493,497,495
494,313,492,496,494
493,244,494,496,495
494,248,492,495,494
494,271,491,496,495
493,318,492,496,495
493,423,493,498,495
493,546,492,497,495
493,695,495,498,497
493,792,492,498,496
493,777,493,498,495
494,735,495,500,495
493,545,493,497,494
493,363,493,496,495
493,287,495,497,495
493,246,493,495,494
493,258,493,495,494
493,283,492,496,493
493,366,493,497,494
493,476,493,497,495
493,603,491,497,495
494,755,492,496,496
493,792,493,498,495
493,762,494,496,493
493,668,494,499,495
493,456,493,497,494
493,327,493,498,494
494,262,495,498,495
493,246,494,496,496
493,272,491,494,494
494,312,491,498,496
493,409,493,496,495
493,530,493,497,494
493,668,493,497,493
493,783,495,498,495
493,779,492,497,494
493,739,495,499,497
493,575,493,498,496
493,383,493,497,495
493,300,494,498,495
493,249,492,496,495
493,261,495,496,493
494,284,493,497,494
493,349,491,496,494
493,462,491,497,494
494,581,491,497,495
493,746,493,496,495
493,788,495,497,494
493,764,494,498,496
493,680,494,498,496
493,486,494,497,495
493,330,493,497,495
493,269,495,498,494
493,243,492,497,493
493,269,494,496,494
493,303,494,496,494
493,399,494,498,495
493,516,493,497,495
493,654,495,499,495
493,772,492,498,496
493,780,492,497,496
493,750,493,498,496
493,604,493,497,495
493,400,492,495,495
493,307,492,496,495
493,249,494,497,494
493,256,493,496,493
493,280,494,498,493
493,339,493,499,495
493,448,494,497,494
493,566,494,497,495
493,722,492,496,495
493,788,493,497,497
493,766,493,497,494
493,693,493,499,496
493,508,494,497,495
493,341,493,500,495
493,281,494,499,494
493,250,494,498,494
493,265,492,497,493
493,295,495,497,495
494,387,494,497,494
493,499,494,498,494
493,628,492,495,494
493,762,493,497,495
493,783,495,498,494
493,753,493,497,494
494,626,495,498,496
493,421,493,496,495
493,316,493,497,495
494,252,493,495,495
493,250,494,496,494
493,279,492,497,496
493,328,493,497,495
493,434,493,497,495
494,551,494,497,494
493,707,494,500,494
493,783,493,498,494
493,769,492,498,496
493,716,492,497,497
493,537,494,497,495
493,356,494,498,494
493,288,493,499,496
493,243,492,496,494
493,266,494,498,494
493,294,494,497,493
493,372,494,497,494
493,483,494,497,496
493,613,492,496,494
493,761,493,498,494
493,780,492,497,495
493,754,492,497,496
493,649,493,497,496
493,443,495,498,495
494,322,493,497,494
494,248,493,499,495
493,253,494,497,494
493,278,494,496,493
493,322,492,497,496
493,421,493,497,494
493,538,493,498,494
493,677,493,497,495
493,780,492,496,495
493,771,492,497,494
494,733,495,497,498
493,559,493,496,495
493,369,492,497,496
493,295,493,498,496
493,253,493,498,495
493,265,495,498,493
493,284,492,495,493
493,357,494,497,495
493,468,493,498,495
493,590,492,496,494
494,744,493,496,494
494,782,495,500,494
493,759,492,497,496
493,668,496,497,496
493,467,492,497,495
493,330,490,496,495
494,266,491,496,494
493,242,488,496,495
493,277,490,496,496
494,310,496,497,493
493,407,496,498,493
493,523,495,498,494
493,660,494,500,496
493,774,493,498,494
493,778,495,497,496
493,740,492,497,497
493,586,492,497,495
493,388,494,496,495
493,301,494,497,494
493,247,491,497,496
493,253,493,495,496
493,287,494,497,495
493,349,494,497,494
493,457,493,497,495
494,571,493,497,494
493,735,492,497,496
493,784,494,497,494
493,759,493,497,495
493,681,493,496,495
493,497,494,498,495
493,335,493,496,495
493,273,495,496,496
493,245,492,498,496
493,272,492,497,495
493,304,493,496,494
493,389,493,497,495
493,508,493,496,494
494,643,495,499,494
493,773,494,497,495
493,781,493,496,494
493,746,494,497,497
493,616,493,497,495
493,410,493,497,494
493,302,492,495,494
493,241,492,495,495
493,255,492,496,496
494,278,494,496,493
493,338,492,499,493
493,441,494,498,495
493,560,494,498,495
493,722,494,499,494
493,788,495,497,496
493,767,494,497,494
493,707,493,498,496
493,516,494,497,495
493,345,493,497,495
493,279,493,496,494
493,251,495,498,496
493,267,492,496,493
493,294,492,497,496
493,382,493,498,496
493,493,493,497,495
493,626,494,499,495
493,759,492,498,496
493,785,493,496,496
494,757,492,496,495
493,637,492,497,495
493,432,493,497,494
494,317,494,498,495
493,254,493,495,496
493,256,494,496,494
493,280,492,498,496
494,329,492,498,496
493,432,493,497,495
493,545,494,497,495
493,702,494,496,495
493,787,495,498,494
493,770,495,497,495
493,730,495,497,494
493,548,493,497,496
493,362,493,497,495
494,295,495,498,494
493,242,493,496,496
493,263,491,496,496
493,293,492,496,496
494,368,493,497,495
494,480,493,497,496
493,607,493,496,494
494,763,493,498,495
493,793,494,498,494
493,764,495,497,494
493,661,493,498,495
493,459,495,497,494
493,326,494,497,495
493,254,493,496,494
493,248,492,495,495
493,277,496,498,495
493,317,491,497,496
494,419,494,496,494
493,535,493,498,496
493,680,492,498,496
493,790,493,498,495
494,777,492,499,495
493,743,491,496,497
493,573,494,497,495
493,381,493,497,495
493,299,493,495,495
493,249,494,496,494
493,265,494,500,495
493,287,492,497,494
493,357,492,498,495
493,465,493,497,495
493,590,493,498,496
494,747,495,497,494
494,794,494,499,496
493,764,492,496,494
493,683,495,499,495
492,485,493,497,495
493,337,494,497,495
493,266,492,497,494
493,245,493,498,496
493,267,493,496,494
493,301,492,496,495
494,404,492,496,494
493,520,496,498,494
494,653,492,497,494
493,783,494,498,496
493,784,494,499,496
492,752,493,500,497
493,606,494,497,496
493,401,494,497,495
493,305,493,497,494
493,243,491,497,494
493,253,494,497,494
493,279,492,496,494
494,338,492,496,495
493,451,492,497,495
493,567,494,497,495
494,729,493,497,496
493,791,493,498,496
493,771,492,498,497
493,690,494,496,495
493,510,493,498,494
494,339,493,497,494
493,276,495,499,494
493,246,494,496,492
493,269,494,496,495
493,297,495,497,494
493,391,492,497,495
494,502,493,497,494
493,628,493,497,494
493,766,493,497,495
493,783,493,497,493
493,753,496,497,496
493,629,495,497,495
493,417,493,497,495
492,311,493,497,495
493,249,493,498,495
493,247,492,496,495
493,279,494,497,497
493,329,491,497,495
493,434,494,498,494
493,553,494,497,494
493,705,494,500,497
493,790,492,498,496
493,775,495,497,494
493,712,493,496,497
493,532,493,497,497
494,353,492,495,496
494,282,493,496,497
493,247,493,497,496
494,259,495,499,495
493,291,495,499,495
493,371,494,498,495
493,484,492,497,495
493,611,492,499,496
493,757,494,497,496
493,787,491,497,494
494,748,491,497,495
493,643,492,496,495
493,441,494,496,494
493,319,493,496,495
493,253,495,497,494
493,249,493,497,496
493,274,493,498,497
493,323,492,498,496
493,418,494,497,496
493,539,493,497,495
493,683,495,499,495
494,782,495,499,494
493,772,495,498,494
493,736,493,498,496
493,552,494,497,495
493,370,493,497,494
493,291,493,496,495
493,239,492,496,497
493,261,491,497,496
494,290,492,496,494
493,356,492,498,496
493,472,494,497,493
493,599,495,499,493
493,756,494,500,495
493,793,495,498,495
493,763,493,498,494
493,668,495,498,496
493,468,494,496,495
493,326,493,496,494
493,255,493,496,494
493,244,494,499,494
494,268,492,497,496
493,312,495,497,496
493,409,493,497,495
494,524,493,497,496
493,665,491,498,494
494,780,493,499,496
493,780,492,497,496
493,747,495,498,494
493,584,494,498,495
493,386,493,497,495
493,300,493,496,494
494,243,492,498,495
494,249,492,498,495
493,287,492,495,494
493,339,491,497,495
493,454,492,497,495
493,575,494,497,494
493,735,492,499,496
493,787,493,496,495
494,767,495,499,495
493,684,494,499,496
493,492,493,497,495
493,329,493,498,495
494,265,492,497,496
494,241,495,496,494
494,262,494,497,495
494,293,493,497,495
493,398,493,498,496
493,506,493,497,495
493,646,494,496,495
494,770,493,497,496
493,780,493,497,497
493,749,493,498,498
493,613,494,496,495
493,403,493,497,496
493,302,492,495,496
494,246,495,500,495
493,248,493,497,496
494,276,492,497,498
494,334,491,497,495
494,436,492,498,496
494,557,494,497,495
494,713,493,497,494
493,785,493,497,496
493,767,495,496,494
494,703,494,498,495
493,514,495,497,495
493,340,494,499,495
494,274,494,499,496
494,242,494,497,495
493,254,495,498,494
493,283,492,496,496
494,374,494,497,494
494,484,493,498,495
493,613,494,496,494
493,757,495,496,496
493,780,494,496,495
493,745,495,499,495
493,629,493,497,495
493,420,494,497,495
494,309,492,498,497
494,242,495,496,494
493,248,493,498,495
493,269,492,498,494
494,327,495,498,495
493,427,494,498,495
493,545,494,497,496
493,696,495,497,494
493,787,494,499,496
494,768,492,496,496
494,720,492,496,496
493,540,493,496,496
493,359,494,496,496
493,287,493,496,494
493,240,493,498,495
494,263,494,500,494
493,288,494,499,494
493,366,494,497,495
493,478,493,497,495
494,602,494,496,497
493,757,492,496,494
494,784,494,497,495
494,754,493,498,495
493,656,492,498,494
493,454,493,497,495
493,324,494,496,495
493,255,492,497,496
494,248,493,499,496
493,275,493,499,496
493,312,493,496,495
494,416,494,497,496
493,532,493,497,494
493,677,495,498,494
493,780,495,497,495
493,774,493,499,496
493,736,494,496,495
493,570,494,497,495
493,376,493,496,494
494,293,493,497,496
494,241,491,497,497
494,260,492,496,494
493,282,494,499,495
493,348,493,496,494
493,467,494,497,495
493,587,495,498,494
493,747,495,498,495
493,790,493,498,495
493,757,493,499,496
493,679,492,495,495
493,477,494,497,495
493,328,493,497,496
493,262,495,497,494
493,246,492,497,495
493,266,492,496,496
494,310,492,499,495
493,404,492,498,495
493,517,493,498,495
493,652,493,499,495
493,779,493,498,497
493,778,495,496,495
493,743,495,496,494
493,591,494,497,495
493,397,493,497,494
493,305,494,497,494
493,238,492,497,494
493,256,493,497,496
493,282,493,498,496
493,341,493,498,496
493,450,493,496,495
493,570,494,499,495
494,727,491,497,495
493,790,495,497,494
493,764,495,497,494
493,690,495,496,497
493,509,494,497,495
493,337,493,498,495
492,271,492,495,494
493,243,492,497,496
493,266,492,497,497
493,293,493,495,494
493,392,493,499,495
493,503,493,498,495
493,639,494,499,495
493,774,494,498,495
493,782,495,497,495
493,751,493,497,497
493,621,494,496,495
493,415,492,495,494
493,309,492,495,494
493,239,492,496,496
493,249,492,497,495
493,282,494,498,496
493,331,494,498,495
494,440,494,498,495
493,556,494,498,495
493,713,494,500,496
493,788,492,497,495
493,770,496,498,497
493,714,492,496,494
493,529,494,497,494
493,350,494,497,495
493,280,492,499,496
493,253,492,496,496
493,264,494,498,495
493,292,491,496,496
493,377,493,497,495
493,486,494,498,496
493,617,493,499,494
493,758,493,499,495
493,789,493,498,496
494,760,495,497,495
493,649,496,497,495
494,440,494,497,495
493,318,493,498,497
493,247,494,495,497
493,251,493,496,495
493,272,492,496,495
493,319,492,497,495
494,421,492,498,494
493,546,493,497,495
493,689,495,499,495
494,790,493,498,496
493,778,494,499,495
494,737,495,500,497
493,550,492,496,496
493,365,494,496,496
493,287,495,497,494
494,247,493,495,494
494,257,493,496,494
493,281,492,496,495
493,364,493,497,494
493,470,494,497,496
493,599,495,496,495
493,750,493,497,496
493,788,493,498,497
493,763,493,496,494
493,663,494,499,496
493,459,493,497,496
494,328,493,498,495
493,259,495,499,495
493,244,495,497,494
493,272,492,497,494
493,306,494,498,496
493,411,492,495,494
493,528,494,496,495
494,663,493,498,495
493,779,495,498,494
493,780,494,498,496
493,739,496,497,497
493,583,494,497,496
493,383,494,497,496
493,299,494,499,496
493,246,494,497,496
493,253,495,497,494
493,280,492,498,497
493,343,493,496,495
493,458,494,498,494
493,575,493,497,495
493,744,494,499,496
493,788,493,499,495
493,765,491,497,496
494,683,493,498,496
493,488,493,497,495
493,331,493,497,495
493,270,494,498,496
493,237,492,496,495
493,269,494,497,494
493,301,495,497,494
493,394,494,497,496
493,512,492,497,494
494,643,493,499,496
494,771,492,496,495
493,781,492,497,496
493,748,493,497,496
493,607,492,497,497
493,405,493,497,495
493,302,493,496,495
493,238,492,498,494
493,254,494,498,495
493,278,495,498,495
493,335,492,496,495
493,444,494,497,495
493,561,493,498,495
493,723,495,497,494
493,788,494,497,495
493,766,492,497,495
493,708,495,496,496
493,516,494,498,496
493,339,492,496,496
493,275,493,497,497
493,244,493,498,497
493,256,492,495,495
494,296,493,498,495
493,379,490,497,496
493,496,490,497,495
493,628,493,497,495
493,768,495,497,495
493,783,493,498,496
493,753,493,496,495
493,639,495,498,495
493,423,493,495,495
493,311,493,496,495
493,240,492,496,495
493,247,493,498,497
493,277,494,497,495
493,330,494,498,495
494,433,493,498,494
493,550,494,498,495
493,700,491,497,496
493,789,495,498,497
493,776,493,496,496
493,723,493,496,494
493,539,493,496,495
493,356,492,498,496
494,288,491,496,495
494,246,495,497,495
493,261,493,498,497
493,290,494,498,496
494,369,494,498,495
493,480,493,498,495
493,607,493,498,495
493,764,492,498,496
493,791,494,497,494
493,759,494,496,494
493,656,494,496,495
493,450,493,497,495
494,319,493,496,495
493,254,494,495,496
493,244,491,496,496
493,272,492,496,496
493,315,493,496,494
493,414,493,497,495
493,533,493,497,495
493,685,494,499,496
493,789,495,497,495
493,779,495,498,494
493,743,493,498,495
493,564,493,497,496
493,370,493,497,495
493,290,492,496,495
494,238,492,496,495
494,253,493,497,496
493,284,494,497,494
493,355,492,498,495
493,466,493,498,496
493,595,493,498,495
493,754,493,500,495
493,794,495,498,497
493,765,495,496,494
493,673,493,498,497
494,472,494,497,495
493,327,494,496,494
494,255,494,496,494
493,244,493,498,495
493,264,492,497,494
493,304,491,497,496
493,405,492,497,495
493,521,493,497,495
493,659,494,497,494
493,788,494,498,495
493,782,492,497,496
493,751,495,497,495
493,595,494,495,495
493,394,492,496,495
493,298,492,498,497
494,245,492,496,495
494,255,494,500,494
493,277,491,496,495
493,340,494,497,495
493,451,495,497,495
493,574,494,496,497
493,741,493,497,495
493,791,495,498,496
493,776,495,498,494
493,698,496,498,495
493,503,493,496,496
493,339,494,496,494
493,271,492,498,493
493,238,493,495,493
493,263,492,495,494
493,294,493,497,496
495,394,494,498,495
493,508,494,498,495
494,641,493,498,498
494,778,493,498,496
493,791,494,498,495
493,759,495,499,496
493,619,493,496,494
493,414,494,497,495
493,303,494,497,495
493,243,495,496,494
493,244,493,496,494
493,268,493,498,497
493,323,493,496,495
494,436,494,498,495
493,555,493,497,496
493,712,492,496,496
493,792,493,498,495
493,768,494,498,496
493,717,494,496,495
493,528,494,498,496
493,348,494,496,495
494,282,495,498,495
493,236,492,497,497
493,258,494,496,496
493,291,493,496,494
493,370,493,496,494
493,489,493,496,494
493,617,493,496,495
494,760,495,497,495
493,792,493,497,496
493,756,495,498,498
493,650,494,498,496
493,437,493,497,495
493,315,494,498,496
493,242,492,499,495
493,248,492,497,497
493,271,494,496,494
493,320,494,496,493
493,423,494,497,495
493,544,493,498,496
493,691,493,496,496
493,790,495,497,497
493,779,492,497,497
493,737,492,497,498
494,553,494,497,495
493,363,493,497,495
493,285,493,496,495
493,246,494,498,495
493,260,495,496,494
493,285,495,497,494
494,357,494,497,496
493,473,493,496,495
494,599,493,499,496
493,752,492,497,496
493,790,491,497,496
493,763,492,497,496
493,667,496,497,495
493,461,494,496,495
493,323,494,498,496
493,257,494,498,497
493,248,495,498,495
493,271,495,496,497
493,306,495,496,494
493,410,494,496,495
493,526,494,497,495
493,667,494,496,494
494,784,493,496,495
493,780,495,497,496
493,745,492,499,494
493,577,493,497,496
493,379,493,497,497
493,297,492,497,497
493,243,493,498,496
493,249,492,496,496
493,286,495,498,496
493,343,492,497,496
493,462,493,497,494
493,582,494,497,494
493,741,495,499,496
493,796,493,496,495
492,771,495,499,496
493,677,492,497,496
493,487,493,496,494
493,331,493,497,496
494,263,495,496,497
493,246,493,495,494
493,262,494,498,496
494,305,493,498,495
493,399,494,497,495
494,512,492,497,496
493,649,494,498,494
493,778,493,498,495
493,779,493,497,495
493,747,493,496,495
493,603,493,497,495
493,400,494,497,495
493,305,493,496,496
493,245,496,497,494
493,253,493,497,496
493,282,492,498,496
493,339,492,499,496
493,442,492,497,496
493,568,493,497,496
494,723,497,498,495
493,789,496,496,495
493,768,495,496,495
494,696,494,499,496
493,512,493,496,495
493,342,495,498,496
493,272,493,496,497
494,244,493,497,496
493,266,493,497,494
493,287,494,497,496
493,387,493,496,495
493,499,494,498,496
493,630,495,498,495
493,771,496,497,494
493,783,495,497,495
493,758,494,499,495
493,629,494,498,494
493,423,494,496,495
493,310,493,496,496
493,243,492,496,496
493,251,494,496,494
493,279,493,498,495
493,322,493,497,495
493,434,494,498,495
493,553,494,497,494
493,707,496,498,497
493,789,494,496,495
493,769,495,498,496
493,714,493,496,496
493,534,492,495,495
493,358,494,495,495
493,286,495,497,495
493,243,493,497,494
493,259,495,498,496
493,292,493,499,496
493,373,493,497,495
494,485,494,498,494
493,609,493,497,496
494,765,495,497,494
493,790,495,498,495
493,754,494,496,495
493,652,494,496,495
492,446,494,497,495
493,322,493,496,496
493,251,495,498,495
493,245,492,497,497
493,275,492,498,496
493,321,492,498,496
493,415,494,497,496
493,538,493,498,495
493,677,493,500,495
493,785,496,498,495
493,776,495,497,494
494,736,496,498,497
493,563,493,497,495
494,373,493,497,495
493,290,493,497,496
494,240,491,497,496
493,259,490,496,497
493,287,491,497,494
493,353,493,497,495
494,470,494,497,494
493,594,494,499,497
493,752,494,499,495
493,792,495,498,494
493,759,493,498,497
493,673,496,497,496
494,471,494,497,495
493,328,494,497,495
493,260,494,496,494
493,244,493,499,495
493,274,491,496,496
493,314,495,497,494
493,407,493,497,496
493,523,493,497,496
494,662,492,497,497
493,776,494,496,496
493,783,494,496,495
494,744,495,499,495
493,588,496,497,495
493,392,493,496,495
493,302,494,496,494
494,245,492,497,497
494,253,493,496,495
493,286,494,497,496
493,340,491,497,496
493,454,492,497,495
493,571,493,497,494
493,733,492,498,497
493,787,494,497,495
493,768,496,499,496
494,693,495,498,495
493,501,494,497,496
494,335,493,497,495
493,270,495,497,497
494,247,494,496,495
494,264,493,496,496
493,297,492,495,495
493,393,494,498,495
494,507,493,497,496
493,640,495,497,497
493,773,494,499,497
493,783,494,498,496
493,753,494,499,496
493,622,496,497,496
493,409,494,497,496
493,309,493,496,497
493,245,495,497,495
493,251,493,496,494
493,278,492,495,494
493,337,494,500,496
493,439,493,497,495
493,560,493,498,496
493,712,492,497,498
493,790,493,498,497
493,770,494,497,495
493,710,494,499,496
493,523,494,496,495
493,347,494,497,495
493,283,494,497,494
494,250,494,495,496
493,268,494,496,495
493,290,493,499,495
493,376,493,497,496
493,490,493,497,496
493,618,492,497,497
493,759,492,498,497
493,779,494,497,497
493,757,494,496,495
493,636,494,498,496
493,433,491,497,496
493,318,492,497,495
494,254,492,496,496
493,248,495,496,495
493,281,495,498,495
493,321,493,497,495
493,425,494,497,495
493,544,493,497,494
493,694,495,497,497
493,785,494,496,494
493,773,494,499,496
493,730,494,499,497
493,550,494,497,496
493,363,493,497,495
493,291,495,497,495
493,244,492,497,494
494,260,495,497,495
493,285,493,496,495
494,364,494,497,495
494,476,494,498,495
494,599,493,497,495
494,759,495,500,496
494,783,493,498,498
494,759,493,498,498
494,663,493,497,495
493,456,495,497,496
493,326,493,496,495
494,259,494,499,497
494,251,494,499,495
494,276,496,498,495
494,311,492,497,496
493,413,493,498,495
493,529,492,497,495
493,668,495,497,495
494,778,494,498,495
493,771,494,498,497
493,743,494,497,496
494,577,495,497,496
493,379,494,497,495
493,296,492,497,497
493,242,492,497,497
494,262,493,498,494
494,285,494,498,497
494,354,494,497,495
494,464,494,498,496
494,583,493,499,496
493,745,494,499,495
493,784,493,497,496
493,760,496,498,497
494,677,494,497,495
493,481,495,499,496
493,333,493,497,496
493,267,493,499,496
493,251,492,497,497
493,277,494,498,494
494,304,492,498,497
493,401,492,497,496
494,516,494,497,496
494,646,495,498,497
494,776,494,497,496
494,775,495,500,495
494,747,496,500,496
494,603,495,499,497
494,403,493,498,496
494,304,492,498,498
494,251,495,499,497
494,259,494,497,495
493,278,495,496,495
493,335,495,497,495
493,448,495,497,496
493,565,493,497,496
493,731,495,499,496
493,784,494,497,497
493,764,493,499,498
493,694,493,498,498
493,510,495,497,496
493,341,493,497,495
494,275,494,500,497
494,249,494,499,496
494,270,495,498,495
494,298,492,497,497
494,384,495,498,496
494,498,494,497,495
494,628,494,497,494
493,761,493,497,496
493,778,493,497,496
493,750,493,499,495
493,632,494,497,496
493,424,494,497,495
493,313,494,498,497
494,247,492,498,497
493,257,493,498,496
493,275,493,496,495
493,335,496,496,496
494,433,495,498,496
493,551,495,498,496
492,704,495,499,495
493,783,493,498,497
493,763,494,497,496
493,721,494,500,495
493,531,494,497,495
493,355,494,497,496
493,285,493,496,495
494,254,495,497,497
493,265,494,496,495
493,295,493,498,497
494,374,494,498,497
494,483,494,498,497
494,611,494,498,496
494,752,494,497,496
493,785,496,498,497
494,756,496,497,494
493,649,496,498,496
493,444,494,497,496
493,323,494,498,496
494,248,493,497,495
493,255,495,498,496
494,276,493,498,497
493,319,492,497,497
494,421,493,497,495
494,539,495,498,497
493,682,495,497,495
493,787,495,499,496
493,774,495,500,496
493,736,494,499,496
493,557,493,497,496
493,368,493,499,496
494,294,492,497,494
494,248,495,496,494
493,257,496,497,495
493,284,494,496,495
494,355,495,498,496
494,467,494,498,495
493,595,495,499,497
494,746,494,499,497
494,787,494,499,498
494,762,494,499,495
494,665,495,500,497
493,470,494,498,496
494,331,495,498,495
494,265,495,499,496
493,248,495,497,495
493,272,492,497,497
493,308,494,496,497
494,409,492,496,495
494,524,493,498,495
494,656,493,498,495
494,774,494,500,496
493,779,493,498,497
493,741,496,497,495
493,587,494,498,496
494,388,495,498,497
493,301,494,498,497
493,248,492,498,495
493,254,494,499,497
493,286,493,497,496
493,350,496,498,495
493,457,494,498,495
493,574,494,498,495
493,734,493,498,496
493,784,495,498,497
493,767,494,497,496
493,679,494,496,496
493,493,494,498,495
493,336,494,497,495
493,274,493,496,496
493,247,495,497,495
494,273,493,498,497
493,302,493,499,498
493,395,493,498,497
493,506,494,497,496
493,643,495,496,495
494,766,495,498,495
493,780,495,498,494
493,747,495,498,495
493,611,495,497,495
493,410,493,497,496
493,306,494,497,496
493,250,493,495,495
493,251,492,497,496
493,277,493,497,497
493,331,492,497,495
493,442,494,497,496
493,558,493,497,495
494,720,492,500,497
494,788,494,499,497
493,768,494,499,496
493,702,492,497,495
493,522,496,497,496
492,344,495,497,495
493,281,495,497,494
493,245,494,497,495
493,262,494,499,495
493,290,493,497,495
493,381,495,498,495
493,492,493,497,494
493,621,493,498,497
493,761,493,499,497
493,784,494,496,495
493,749,495,500,497
493,632,493,497,495
493,431,494,497,496
493,316,495,498,496
493,250,495,499,495
493,251,493,497,494
493,273,494,499,496
493,328,493,496,495
493,426,494,497,495
493,543,494,498,496
493,689,495,499,496
493,786,493,498,497
493,770,495,497,497
493,730,494,499,497
493,548,494,497,497
493,360,493,498,495
493,287,493,499,496
494,252,492,497,496
494,263,494,496,495
493,290,493,495,494
494,363,494,497,495
493,478,494,498,496
493,606,494,499,494
494,750,494,499,496
493,791,492,497,496
493,760,492,498,497
493,660,493,498,497
493,457,495,497,495
494,324,494,498,496
493,251,495,497,498
493,252,494,498,496
493,276,495,498,495
493,317,494,499,496
493,412,493,498,496
493,532,493,497,497
493,674,493,498,494
493,781,493,497,495
493,773,494,497,496
493,745,495,499,496
493,569,495,497,496
493,377,494,497,495
493,296,492,497,496
494,243,492,497,497
493,259,493,498,497
493,285,494,496,495
493,354,494,498,495
493,460,493,497,495
493,587,494,498,495
493,748,495,499,494
492,787,495,498,497
493,764,492,496,495
492,673,493,499,497
492,477,494,497,495
492,330,494,496,494
493,259,493,496,494
493,247,495,498,495
493,268,492,497,494
493,303,495,497,496
493,403,492,497,495
493,517,492,497,495
493,651,493,496,494
493,773,494,498,495
493,775,493,496,497
492,747,495,498,495
492,601,494,497,495
492,397,494,497,496
493,302,493,497,497
493,244,492,496,495
493,249,494,498,496
493,276,492,497,495
492,335,491,496,495
493,447,494,497,496
493,569,494,498,494
493,728,492,497,495
493,788,494,498,497
493,772,494,498,496
493,698,494,500,496
492,508,493,496,495
493,336,492,497,495
492,268,492,496,495
493,243,494,496,493
493,265,494,495,494
493,291,493,496,495
493,388,493,497,495
493,501,494,499,496
492,636,493,497,494
493,767,492,498,496
493,785,493,497,496
492,753,493,497,497
492,626,495,496,495
492,417,493,497,494
492,306,492,496,496
492,247,490,497,495
492,252,492,498,494
492,277,492,496,495
492,322,494,497,494
491,429,494,496,495
492,553,494,497,494
492,712,493,498,495
492,786,495,498,494
492,769,492,497,494
492,715,495,497,496
492,531,492,496,494
492,352,493,496,494
493,281,493,496,495
493,240,493,496,494
493,265,493,497,496
493,285,493,495,496
493,375,494,497,494
492,487,492,497,494
492,614,494,498,495
492,765,494,498,497
493,788,495,498,494
492,759,492,497,497
492,648,494,497,495
494,441,493,497,495
493,317,492,496,494
492,252,493,497,494
492,243,492,497,495
493,272,492,497,497
492,319,492,497,495
492,422,493,497,494
492,537,494,497,493
493,692,493,499,495
493,784,492,497,494
492,777,493,497,495
493,741,494,499,496
492,557,494,497,495
492,364,493,497,495
492,292,493,496,494
493,242,494,498,496
493,261,493,498,494
493,287,493,498,496
493,356,493,498,496
493,468,494,497,494
492,595,493,497,494
492,747,491,498,496
492,793,493,498,496
493,763,493,498,497
492,668,494,496,494
492,465,492,496,494
493,323,494,497,497
494,259,493,498,497
493,246,493,498,494
492,271,494,498,495
493,303,492,499,496
493,409,493,497,495
493,524,493,498,495
