Sensor0,Sensor1,Sensor2,Sensor3,Sensor4

13,513,497,844,493
185,495,491,234,493
103,491,493,431,510
919,495,491,728,498
122,489,495494,259,484
913,513,497,844,493
185,495,491,234,493
103,491,493,431,510
919,495,491,728,498
122,489,495,208,511
596,482,495,751,510
811,502,494,505,504
119,494,495,210,490
905,495,496,844,497
393,496,492,315,498
105,494,494,315,497
909,496,491,831,494
130,494,493,240,495
164,497,495,588,493
910,499,495,609,490
110,499,494,191,494
858,498,494,838,492
589,499,492,420,489
115,498,495,267,487
911,498,494,850,490
199,500,492,240,490
94,498,493,601,490
916,499,492,573,490
124,498,496,185,490
888,496,493,841,489
535,495,492,374,489
110,496,493,267,492
907,497,493,841,491
180,497,493,231,494
97,497,496,647,492
903,496,494,553,493
114,498,495,192,493
897,497,495,848,493
486,495,494,359,495
113,494,494,277,494
903,486,495,839,495
172,492,493,241,493
101,494,497,474,496
912,499,496,689,496
119,496,496,210,495
688,495,497,787,496
729,494,496,468,498
124,496,494,215,507
915,474,491,862,499
313,471,489,295,499
100,474,489,353,496
916,473,488,814,497
130,478,488,232,496
298,479,490,645,495
914,484,489,575,494
104,484,491,201,496
889,484,492,851,494
497,484,491,369,493
98,485,491,361,494
910,484,490,776,493
116,486,489,227,493
403,485,491,697,493
910,485,490,542,493
112,488,493,211,494
901,488,491,852,493
448,490,491,353,495
106,487,491,297,493
910,489,489,842,493
128,489,489,240,495
89,491,491,722,492
863,491,490,514,495
107,491,493,204,494
890,488,492,845,495
412,490,493,332,495
106,491,493,303,494
907,492,490,824,494
132,491,490,228,494
93,490,493,746,494
818,491,493,491,495
111,492,494,190,495
888,492,493,841,494
383,492,493,311,494
109,493,493,317,494
914,490,492,819,495
130,492,492,226,495
180,492,494,586,494
921,493,491,604,495
109,492,491,204,494
857,492,494,846,495
569,493,492,396,496
110,494,491,263,495
916,491,493,847,494
219,491,491,258,493
102,492,491,418,492
925,493,492,747,494
129,493,492,224,494
577,494,494,758,494
812,493,491,500,493
129,493,493,209,494
893,492,493,858,495
393,493,493,319,495
99,493,493,448,492
923,495,492,711,490
120,494,492,218,496
667,492,494,785,506
758,493,493,485,498
109,531,500,203,489
908,525,500,849,495
334,521,503,302,516
101,534,505,343,497
914,533,500,794,516
113,506,502,205,506
253,504,500,580,527
926,504,492,566,515
115,504,501,198,491
878,501,498,837,504
546,525,493,374,521
119,495,498,223,523
899,506,492,810,516
190,517,499,215,494
98,496,496,610,502
917,499,495,536,502
109,513,500,175,492
894,497,494,847,497
507,490,493,360,517
112,498,497,258,498
894,486,494,829,498
194,498,494,227,497
103,498,494,444,491
905,498,494,704,496
113,500,494,206,494
663,499,496,764,494
762,501,493,450,497
117,499,495,164,492
895,499,496,804,492
324,503,492,241,492
109,500,495,296,490
912,497,494,769,488
117,496,493,189,491
272,497,494,606,492
917,497,493,562,493
119,499,495,181,494
901,496,495,843,491
507,499,492,360,493
116,494,495,273,489
914,496,492,835,494
183,495,492,232,492
94,494,493,665,493
924,499,495,532,494
120,495,495,186,493
890,497,493,848,491
460,496,493,347,492
105,494,495,301,492
910,494,496,830,492
141,496,493,241,494
98,494,493,727,492
866,496,492,512,494
116,495,495,210,492
896,497,494,851,494
424,494,493,330,491
108,498,495,303,493
895,494,492,829,494
127,498,492,229,493
92,494,493,754,493
814,494,492,499,493
111,496,495,195,493
892,497,493,847,492
385,497,493,310,494
117,496,495,315,495
918,493,491,826,493
131,494,491,234,491
140,496,496,567,493
910,496,493,625,492
120,495,492,200,494
832,496,493,843,494
591,495,491,410,495
96,498,492,325,493
906,495,494,823,495
129,495,491,231,495
208,497,492,602,493
906,497,492,599,496
108,497,493,200,494
860,499,492,848,493
545,496,492,393,494
89,497,493,346,494
919,495,492,798,493
131,494,492,228,495
286,497,492,638,492
913,498,492,572,494
119,494,495,196,493
901,495,493,844,494
514,497,492,378,494
108,496,494,280,492
899,495,491,844,496
194,497,493,234,492
91,495,495,669,493
910,497,493,552,494
116,496,494,201,491
904,498,493,851,492
487,495,492,363,494
96,495,495,379,493
907,494,493,785,493
108,498,491,229,491
421,496,494,713,492
906,497,494,551,493
120,495,491,219,492
898,496,492,866,493
449,494,494,361,492
104,496,495,311,491
913,495,490,843,492
133,495,491,246,495
93,495,494,730,494
853,494,494,523,495
114,496,495,211,493
891,497,492,848,493
424,495,491,342,495
100,497,493,313,495
908,496,493,837,493
133,496,492,231,493
92,495,493,746,492
814,495,494,502,496
98,497,492,273,493
895,495,493,851,493
203,497,491,238,492
98,495,492,640,492
919,496,492,559,495
103,498,491,199,501
902,498,493,853,489
512,495,496,381,500
111,504,495,289,493
908,497,494,852,490
176,489,493,231,504
101,472,498,399,503
906,496,496,652,509
128,487,493,171,505
652,479,493,754,513
761,505,495,437,509
113,487,494,160,497
900,462,495,807,495
364,478,495,265,494
110,489,494,288,496
924,498,491,720,500
140,488,485,172,491
226,479,495,562,486
914,485,499,566,500
118,505,495,165,516
868,493,488,843,493
556,492,493,375,497
99,493,493,337,496
907,496,492,801,492
116,497,495,225,492
280,499,495,664,495
906,495,492,589,496
123,474,494,199,481
887,499,493,834,488
512,502,493,383,491
106,500,495,292,488
904,499,492,846,489
180,498,493,221,487
97,499,493,648,491
921,499,492,493,489
117,498,492,131,489
888,497,494,799,491
465,498,495,322,491
104,499,495,264,488
900,497,492,823,492
150,496,493,218,491
90,498,492,704,491
881,496,494,512,493
105,496,494,199,493
898,492,493,847,492
439,496,493,346,493
111,496,494,306,493
909,496,492,843,492
123,495,493,245,494
90,497,494,745,494
853,495,493,525,491
117,495,495,217,491
907,496,494,866,493
397,497,494,339,492
94,496,493,427,493
893,497,492,747,493
122,495,493,229,491
599,493,493,776,492
789,500,494,508,491
121,495,494,208,493
890,494,493,854,494
370,497,493,315,495
105,495,494,331,492
915,496,492,829,493
117,495,493,242,495
147,495,492,584,493
916,497,492,620,494
110,493,494,206,494
842,496,494,849,495
596,495,493,418,494
100,493,494,264,494
915,495,492,854,492
229,494,492,269,492
110,494,496,415,493
916,496,494,766,493
119,498,492,226,493
516,494,494,757,492
838,494,493,523,495
102,495,493,214,492
899,496,493,864,494
417,495,494,332,492
109,495,495,318,492
908,494,494,836,492
133,497,493,245,493
105,495,492,562,493
928,494,492,639,492
130,495,492,211,494
816,495,493,860,493
614,495,493,426,494
113,497,491,251,493
900,494,493,852,493
245,496,492,270,492
109,497,494,391,493
920,496,493,774,493
125,496,490,223,493
478,496,495,723,492
881,497,492,536,492
114,496,495,203,493
907,493,494,856,494
439,497,491,346,493
111,497,495,307,492
901,497,494,832,494
134,497,493,230,494
102,494,493,521,495
925,498,492,658,495
112,496,496,212,494
752,495,493,827,495
674,494,492,443,493
102,495,495,235,494
903,495,494,850,498
272,497,495,278,496
114,504,493,376,484
900,481,496,788,498
119,494,494,232,525
416,495,495,680,502
919,493,496,511,514
129,508,499,159,489
912,505,494,831,483
467,490,495,343,494
96,501,495,362,496
907,494,495,749,492
110,480,489,192,518
477,500,496,695,499
881,487,493,483,497
109,495,494,161,500
906,495,492,819,501
433,497,492,295,494
107,494,495,293,494
913,494,494,815,497
136,494,494,220,500
93,496,494,712,493
828,503,491,494,493
111,499,492,201,492
909,496,493,847,491
392,497,493,315,490
111,499,494,309,489
899,493,490,819,491
121,496,492,205,492
144,494,494,537,490
912,499,494,585,487
126,496,492,174,491
858,495,493,827,491
587,497,495,386,491
119,495,495,244,490
907,497,494,833,492
217,499,493,234,493
104,495,493,394,493
930,493,492,732,493
122,497,493,206,493
551,495,493,738,494
837,496,506,505,493
125,494,493,201,491
893,496,493,839,495
401,499,494,306,493
104,493,494,317,492
914,495,494,828,494
119,496,492,239,498
112,474,611,554,488
918,503,494,630,490
108,502,491,198,490
790,499,492,842,489
611,501,492,414,490
117,497,495,255,491
913,495,492,851,491
246,498,492,263,491
102,497,497,393,493
919,495,493,767,491
125,495,493,223,490
508,496,494,742,492
850,498,494,520,491
113,496,494,215,490
894,496,492,857,492
409,495,492,336,494
95,498,492,410,490
913,495,494,733,493
121,497,494,211,491
556,497,494,750,490
797,496,493,499,494
99,495,493,277,493
895,495,494,849,494
189,498,493,240,492
88,498,496,663,492
914,499,495,545,494
101,496,495,191,495
900,495,495,839,496
493,494,494,356,495
102,495,496,282,494
915,499,496,835,496
167,498,494,230,495
94,495,496,694,496
910,497,496,533,500
123,496,496,202,495
896,498,494,849,499
439,495,496,337,500
117,496,495,292,497
910,494,494,831,498
144,496,495,231,501
102,496,496,517,497
909,497,494,655,498
122,496,497,198,498
726,493,497,830,499
672,497,497,432,497
100,496,496,224,498
893,493,495,839,500
278,496,496,261,500
97,493,495,543,499
922,495,497,627,498
130,494,496,205,497
817,495,496,833,497
617,493,497,414,500
94,493,497,320,496
910,496,495,819,497
116,497,495,215,499
168,495,497,574,498
922,496,495,609,495
114,491,495,197,496
859,496,495,837,497
595,495,493,397,497
117,494,496,252,496
897,495,496,836,496
216,495,495,243,497
99,494,496,607,494
918,496,496,578,496
121,494,497,189,495
882,496,495,839,492
529,495,497,383,505
107,494,494,288,497
909,495,495,864,495
204,498,497,257,504
97,491,497,647,518
914,512,498,552,495
126,501,495,180,491
888,494,494,826,518
503,517,499,358,512
102,496,494,217,507
903,489,496,775,530
186,488,494,185,489
94,503,492,591,499
918,487,490,449,500
112,496,494,111,494
902,498,494,773,495
464,507,494,288,522
105,497,493,232,494
912,492,496,795,500
166,488,493,199,512
100,497,495,446,501
902,494,490,636,493
124,496,492,170,494
697,495,496,780,490
717,494,491,486,494
121,495,495,206,491
897,494,490,832,493
301,501,495,233,491
106,501,494,304,490
913,501,493,783,490
120,502,492,228,489
313,477,491,666,487
909,498,492,586,489
113,498,494,211,489
897,498,493,863,487
495,499,490,368,491
101,496,492,278,489
912,500,492,833,490
175,497,491,217,489
92,496,492,667,490
913,496,491,526,491
112,496,490,193,491
902,498,491,839,491
445,497,492,335,492
114,497,490,287,492
908,492,490,834,492
127,495,492,230,491
87,494,492,722,492
866,497,494,509,493
105,494,493,191,492
888,493,493,844,492
407,496,491,325,491
107,492,493,309,491
899,493,491,828,493
124,495,492,232,492
98,492,492,757,491
808,491,491,496,493
109,495,493,209,492
893,496,493,846,495
361,497,491,304,494
96,496,492,442,491
917,493,492,707,492
125,496,493,207,492
666,494,493,772,490
758,496,492,479,494
120,496,492,205,490
886,494,493,846,492
346,497,493,288,491
98,495,495,462,490
912,495,491,673,491
111,494,492,207,492
674,494,492,794,492
722,493,491,451,493
117,494,493,216,491
895,496,492,841,491
298,495,491,281,493
106,496,490,340,490
915,496,492,788,493
122,495,492,221,491
302,495,494,644,490
908,497,492,566,491
107,496,494,192,492
885,494,492,846,492
511,496,492,368,494
111,496,494,283,491
900,496,494,845,491
173,498,492,233,493
99,497,492,693,492
911,498,492,527,491
123,495,492,192,491
910,494,492,851,492
457,494,490,344,491
97,497,494,386,493
918,497,491,763,493
121,495,493,217,492
479,418,491,735,498
882,474,486,542,494
115,509,494,211,487
900,507,493,842,487
436,505,493,338,490
103,503,494,311,490
901,500,491,833,491
143,500,493,233,491
102,498,495,533,494
918,500,492,658,493
122,498,495,212,493
731,498,494,836,498
675,499,491,439,494
122,497,496,241,488
910,495,495,857,495
268,502,493,267,493
104,502,495,371,485
906,494,494,766,515
122,492,493,205,502
422,489,493,690,512
916,508,497,519,503
119,501,492,174,493
911,492,497,839,497
460,510,489,337,478
103,489,494,283,507
897,448,490,834,489
154,496,493,183,486
107,505,494,379,486
935,508,489,547,511
128,484,488,90,497
893,498,493,757,487
433,499,495,238,492
112,487,497,231,496
894,490,493,767,497
121,491,493,176,493
92,499,494,695,478
822,494,492,476,500
102,496,491,196,494
898,496,492,865,494
400,497,492,315,494
101,494,493,299,494
895,496,493,836,493
124,495,491,248,494
123,496,491,584,494
907,494,491,663,492
120,495,492,241,492
820,497,492,865,491
598,498,489,409,491
93,497,493,293,489
900,497,488,791,491
122,496,491,195,490
166,495,494,558,492
902,497,491,586,491
119,496,492,184,490
852,497,493,843,490
575,496,492,380,493
113,494,492,232,492
909,494,491,832,494
197,493,492,228,493
96,495,493,590,493
916,496,493,561,493
111,498,493,177,492
899,493,493,838,492
525,495,491,362,494
118,475,494,268,496
906,471,487,847,4
493,111,498,493,177
492,899,493,493,838
492,525,495,491,362
494,118,475,494,268
496,906,471,487,847
4,493,111,498,493
177,492,899,493,493
838,492,525,495,491
362,494,118,475,494
268,496,906,471,487
847,494,171,507,492
222,490,100,502,492
419,489,920,501,492
713,490,120,501,494
208,491,611,501,495
763,489,783,500,493
479,492,104,499,494
199,491,909,497,493
848,492,376,496,493
300,491,101,495,494
323,489,900,498,491
817,493,124,494,492
229,493,172,499,493
572,493,920,498,492
616,490,127,496,493
196,492,866,495,493
850,491,587,497,494
399,494,103,495,492
254,491,900,496,492
845,491,203,495,493
256,493,96,495,493
603,492,903,496,493
580,495,110,494,491
187,493,877,495,493
841,494,522,497,492
378,493,104,494,493
269,492,908,493,491
848,492,183,498,493
240,490,100,494,495
442,492,905,494,493
706,493,124,495,492
205,492,654,496,492
782,490,762,495,493
480,491,122,495,493
212,491,901,494,494
853,494,341,495,491
290,493,99,495,494
469,492,909,496,491
681,495,123,496,492
211,493,681,497,494
791,494,723,495,493
468,493,128,496,496
221,493,892,496,494
858,496,310,498,492
297,494,107,498,496
347,492,914,495,494
810,495,125,496,494
230,496,294,496,493
650,493,919,497,490
600,503,117,504,496
210,491,890,502,494
859,492,511,503,496
378,494,96,503,493
360,493,920,500,493
789,497,111,496,493
227,495,364,496,495
687,494,918,497,496
566,499,124,507,493
210,499,900,493,494
867,501,477,508,492
382,502,108,492,497
315,511,911,514,493
855,510,151,489,494
219,493,98,503,493
692,501,909,486,498
526,485,126,482,500
213,508,898,478,496
809,500,431,493,493
302,502,103,499,494
233,494,917,494,492
776,509,150,487,493
191,485,92,499,491
693,492,867,491,493
470,494,117,495,493
157,498,887,496,492
816,496,406,495,491
291,498,106,493,492
292,497,914,492,494
826,494,125,496,491
261,492,108,496,492
578,494,919,495,494
642,497,120,497,491
218,493,805,494,493
858,492,614,495,491
418,494,118,495,494
242,493,913,497,493
814,494,221,495,492
231,494,102,497,493
363,493,901,499,493
728,494,119,496,494
207,491,515,496,493
724,494,856,493,492
523,503,107,473,489
202,497,901,472,487
857,493,407,474,487
323,494,111,476,488
316,491,892,477,487492
523,503,107,473,489
202,497,901,472,487
857,493,407,474,487
323,494,111,476,488
316,491,892,477,487
92,523,503,107,473
489,202,497,901,472
487,857,493,407,474
487,323,494,111,476
488,316,491,892,477
487,822,487,132,510
494,213,488,105,508
495,538,489,906,507
493,620,490,124,505
495,198,490,776,503
495,840,489,621,502
492,405,489,114,503
495,245,489,893,499
492,839,492,228,502
493,250,494,99,496
493,580,492,913,499
492,605,493,122,495
496,188,494,853,499
494,848,492,580,498
491,402,494,98,494
494,337,492,905,494
492,810,493,131,495
492,225,492,271,495
492,635,493,923,495
492,583,495,128,494
495,203,493,890,495
493,849,493,503,496
494,369,493,106,495
494,275,493,898,493
490,850,493,183,496
492,233,492,95,495
492,679,493,914,495
491,530,493,104,495
492,204,493,887,497
492,840,495,449,496
493,349,495,98,496
493,387,493,903,494
494,763,494,130,493
493,218,495,498,494
493,725,494,878,493
491,522,495,115,495
494,195,493,888,499
494,843,492,408,496
492,333,496,106,495
494,312,490,899,495
490,833,493,137,493
492,236,495,87,495
492,756,494,807,494
492,490,495,110,495
492,204,494,895,497
492,853,496,364,495
492,301,505,102,473
488,333,497,903,471
486,822,635,122,506
494,222,487,187,505
494,590,487,910,502
492,601,488,114,503
494,195,486,867,507
493,853,492,559,504
495,397,493,110,500
496,264,509,899,485
495,811,482,195,503
495,197,495,91,489
498,582,503,897,502
495,534,460,101,484
493,169,494,881,489
494,827,497,511,484
494,362,489,106,466
501,244,497,908,481
500,813,496,198,485
495,189,497,100,494
499,407,480,915,484
495,674,500,113,496
495,186,501,660,523
493,758,510,752,500
489,449,500,113,491
494,190,489,898,494
493,838,497,311,493
492,278,496,100,493
493,337,498,897,494
493,800,496,119,497
493,250,494,308,497
492,672,495,915,498
492,604,493,111,497
497,229,487,894,498
493,871,493,507,499
491,396,503,115,473
488,310,492,911,549
493,868,484,155,505
490,239,484,89,506
493,662,487,914,504
490,522,489,104,500
494,172,488,900,500
491,815,488,462,500
491,336,491,99,503
491,372,491,931,499
490,760,489,118,495
494,218,489,440,497
493,705,490,893,498
491,517,490,109,495
493,203,492,889,495
491,835,491,437,504
490,332,493,96,496
492,384,490,911,493
492,758,493,132,494
493,209,493,514,493
493,741,493,843,494
493,508,495,117,495
493,209,492,886,495
492,854,493,409,494
492,324,493,112,494
492,317,492,910,494
494,830,493,129,498
492,232,492,123,495
492,565,492,925,495
491,624,491,122,493
492,197,494,833,492
493,846,493,588,496
491,398,495,98,493
492,335,491,899,492
492,812,492,127,495
492,228,491,272,493
494,629,490,910,495
493,587,492,114,495
492,205,491,876,494
493,846,494,507,494
492,374,494,103,492
492,278,492,907,494
493,844,494,194,496
494,229,494,99,495
493,659,492,909,498
492,546,494,126,495
496,194,491,889,497
494,844,491,473,494
494,351,493,103,497
495,290,490,908,496
493,843,493,156,499
494,225,492,99,496
494,701,494,897,494
493,517,494,108,498
494,200,493,888,498
494,846,494,429,496
495,336,494,96,498
493,397,493,909,496
495,753,496,114,498
496,212,498,541,495
493,756,496,826,501
495,518,501,115,492
496,222,494,891,497
495,868,498,377,496
499,333,495,112,481
500,347,498,920,484
494,840,496,133,494
497,240,508,177,519
500,603,509,909,507
492,608,520,131,493
491,212,534,857,505
493,817,513,575,524
502,309,528,101,478
497,152,473,905,505
494,757,478,217,490
493,160,491,106,472
495,337,514,906,498
493,644,504,128,494
497,134,505,592,485
495,707,491,795,495
494,444,504,124,495
494,180,490,906,496
494,840,499,354,495
493,333,497,107,497
494,347,491,921,495
494,841,495,127,499
493,273,494,227,496
494,652,494,928,497
493,638,495,118,496
494,229,491,881,496
493,873,491,542,496
491,401,491,103,496
494,288,492,911,492
494,859,491,193,495
493,255,491,98,496
493,644,494,917,498
493,571,492,122,498
493,191,492,890,493
493,837,495,506,498
491,348,493,103,494
492,257,493,910,496
494,830,493,177,496
493,220,493,99,496
493,669,493,924,498
491,537,493,105,498
494,185,494,907,497
494,837,494,461,497
491,348,493,108,497
494,285,493,904,496
493,842,494,144,498
492,225,496,100,496
492,490,494,918,495
490,678,494,121,495
491,212,494,715,496
493,818,494,698,496
489,444,493,102,496
493,221,494,896,493
491,847,494,274,497
492,271,494,112,495
491,356,496,918,497
489,793,494,125,493
493,227,492,345,496
495,673,493,910,494
491,566,494,120,494
491,201,492,901,493
493,857,493,476,496
493,360,493,104,494
493,288,491,904,494
494,839,494,141,494
492,238,493,99,495
493,710,492,894,495
494,518,491,108,496
493,196,493,886,497
491,839,491,415,495
492,331,492,104,496
494,298,491,894,495
492,826,491,133,495
492,225,492,99,495
492,747,493,806,499
491,487,491,126,496
491,186,493,899,498
493,844,491,367,498
491,296,491,100,497
492,317,492,904,497
490,817,493,127,497
491,227,492,174,495
490,582,488,924,497
492,612,499,129,496
491,209,493,856,492
491,867,494,575,499
493,425,509,110,500
495,296,503,907,504
491,865,496,192,506
493,261,492,103,487
495,402,490,925,487
492,755,494,125,500
493,222,492,554,491
499,754,496,800,494
494,481,500,102,496
495,175,502,893,495
500,822,511,375,501
493,303,490,102,487
495,310,520,902,490
490,814,507,121,498
491,217,496,169,494
494,563,492,912,494
491,585,496,109,496
493,197,494,856,502
492,841,494,564,498
489,400,494,113,498
492,280,494,905,495
491,873,490,207,495
491,265,491,100,496
495,448,491,908,498
492,759,491,131,495
492,239,490,604,496
492,788,489,783,497
491,510,492,111,498
492,231,488,910,500
492,867,490,359,501
491,308,492,96,494
492,468,490,916,496
491,688,490,118,493
494,201,490,668,497
493,777,491,741,498
495,463,490,109,494
492,209,494,902,493
492,840,492,309,495
492,289,495,98,496
493,503,493,915,496
494,658,494,126,496
495,199,492,753,494
493,817,493,669,495
495,422,493,107,494
494,227,492,908,492
491,842,492,249,495
493,263,495,104,493
493,372,492,924,495
494,770,494,121,496
493,218,495,445,495
492,710,493,889,496
491,521,492,99,494
493,250,493,905,495
493,836,494,224,493
491,238,495,95,494
491,603,495,914,495
493,580,492,122,495
493,189,493,877,494
493,835,495,543,498
491,373,494,105,496
495,266,493,900,494
491,846,492,175,496
492,237,491,92,496
493,648,492,919,494
493,551,495,121,495
492,201,493,889,494
494,848,494,480,494
492,361,494,109,495
495,288,490,917,495
493,832,493,146,495
493,228,492,97,494
491,705,492,872,495
490,514,493,108,495
492,201,491,903,493
493,843,493,412,500
492,326,491,102,494
494,301,493,911,496
494,820,492,136,496
493,223,492,97,496
491,738,492,790,498
491,486,492,118,495
493,190,492,908,498
493,838,493,374,497
491,301,491,99,493
491,448,492,915,496
492,688,498,117,494
495,194,492,668,497
491,786,498,730,498
494,460,494,118,494
492,229,491,888,498
491,864,495,313,493
492,305,499,105,491
495,373,493,912,496
494,829,491,129,505
496,215,506,308,476
494,627,497,910,486
494,541,484,121,488
493,192,513,884,488
492,836,508,485,488
491,367,493,110,508
492,296,508,897,478
494,845,499,153,519
492,228,492,98,493
494,684,499,896,478
490,523,488,100,497
488,196,504,886,496
492,841,493,433,497
493,338,496,109,485
494,302,492,907,496
494,816,494,119,495
492,222,494,90,497
492,726,492,823,499
492,502,493,117,498
493,205,492,909,496
495,848,493,389,498
491,332,494,93,498
490,447,492,906,496
492,718,492,110,494
491,191,491,638,497
493,743,487,760,496
492,442,489,97,494
492,265,490,897,496
490,821,492,143,497
492,213,490,84,495
492,689,491,900,499
491,513,494,113,498
494,190,491,901,495
490,844,492,432,494
492,332,494,109,495
495,300,492,911,495
494,827,493,138,493
492,225,495,88,495
492,738,492,824,497
493,497,492,108,495
495,206,492,893,496
494,847,495,365,498
494,300,495,110,496
492,318,491,908,497
491,822,492,118,496
492,230,493,179,497
495,593,493,917,497
491,603,494,109,496
494,198,493,878,494
494,853,496,555,497
490,396,493,101,497
492,259,494,887,498
493,839,494,211,495
492,232,495,101,494
496,414,494,906,496
494,716,495,120,496
492,205,492,611,496
493,753,492,776,499
492,484,492,118,495
493,201,493,906,495
491,853,491,348,497
491,293,493,93,497
491,452,494,917,496
489,687,493,124,495
492,206,492,677,496
493,781,493,729,498
490,461,492,110,493
493,222,490,903,491
492,850,492,308,496
492,287,492,110,494
492,340,492,911,495
493,799,491,126,498
494,225,492,305,496
494,647,491,919,495
493,568,492,114,496
496,204,491,895,495
493,850,492,478,498
494,369,493,106,496
495,298,493,907,495
494,842,492,139,496
493,237,492,100,498
493,491,492,918,497
492,680,495,124,497
494,210,497,695,494
495,811,497,690,498
492,445,502,103,493
491,214,499,893,491
494,800,505,275,475
490,214,494,98,502
495,473,496,926,491
495,571,489,121,492
495,139,502,796,485
499,787,505,628,490
493,360,511,115,489
491,180,509,902,491
495,789,518,224,496
492,189,491,105,478
498,310,496,927,492
494,709,501,128,494
492,105,497,489,498
491,599,501,874,499
493,418,497,105,496
496,161,499,891,491
491,795,496,404,491
489,244,498,107,496
492,244,495,912,497
495,798,496,132,499
490,207,496,95,498
494,745,494,814,499
494,503,493,125,497
492,223,493,901,497
494,856,492,372,503
492,305,493,107,496
493,322,492,908,496
491,809,493,131,497
495,205,494,203,495
493,564,494,907,498
494,580,494,110,497
496,163,494,861,498
493,816,490,549,495
496,368,494,102,500
496,246,494,907,496
492,826,496,179,496
493,232,494,99,495
494,632,495,914,493
493,540,496,112,495
496,164,495,896,496
494,813,495,499,494
494,345,493,111,494
496,261,494,910,495
495,821,496,171,497
493,214,492,93,498
492,688,496,915,497
492,520,494,105,496
492,189,495,887,494
493,841,494,430,498
494,331,496,104,495
491,297,494,911,495
492,825,495,141,497
494,221,492,100,495
495,516,492,911,496
494,646,495,130,494
494,205,494,780,494
496,825,494,640,495
495,416,493,101,496
494,239,493,898,497
495,845,493,230,497
494,261,492,100,498
494,376,492,916,495
493,761,493,120,494
492,222,492,461,495
495,724,491,887,497
494,521,490,117,496
494,199,491,900,494
493,850,490,411,498
493,319,491,98,493
492,415,493,919,495
491,735,493,123,498
491,205,491,582,495
494,748,492,799,495
493,492,493,105,496
492,197,491,896,496
493,844,491,364,496
494,292,493,102,498
494,318,489,902,496
494,803,492,114,496
495,222,492,214,498
496,593,491,918,496
494,600,492,127,495
494,198,492,874,496
493,852,495,552,497
492,390,491,119,496
493,264,491,901,496
494,845,493,200,496
491,248,492,97,497
493,649,493,918,494
492,565,494,120,495
493,200,492,901,495
494,849,493,493,498
496,357,496,110,496
493,280,493,900,496
494,839,496,170,496
492,234,495,94,498
495,692,496,914,496
494,535,497,120,499
495,213,494,892,494
494,863,499,448,498
496,363,500,110,498
497,323,493,912,497
495,862,490,127,485
496,250,491,104,483
493,517,502,931,500
491,669,507,129,509
501,224,501,743,526
492,845,502,671,480
494,452,502,130,495
493,232,514,902,490
495,858,495,273,502
491,312,486,102,491
491,383,497,899,489
500,801,495,126,487
499,231,506,410,490
498,707,501,918,497
493,552,490,101,499
492,218,506,903,496
493,857,502,447,504
492,355,494,107,495
494,305,496,906,500
493,835,499,147,497
491,240,495,99,497
494,734,494,850,495
492,521,493,114,495
493,220,492,906,493
492,859,492,404,495
491,324,491,109,501
494,312,491,892,496
492,817,492,133,496
491,196,492,129,496
493,520,493,920,496
492,572,491,106,497
493,159,488,836,495
493,815,494,601,496
491,373,492,118,496
495,227,492,910,496
494,812,492,229,497
493,211,493,107,495
494,380,492,911,495
491,720,493,123,496
493,194,493,564,494
493,746,492,816,493
494,493,493,125,496
493,198,492,897,497
493,837,493,375,499
494,297,491,104,496
494,313,489,903,495
493,812,491,134,494
493,222,494,175,495
491,582,493,919,496
493,603,491,121,495
495,190,493,857,495
494,836,494,569,498
491,390,491,104,494
492,261,493,915,494
492,845,492,196,495
492,245,495,103,495
493,421,493,903,497
493,729,494,127,496
493,213,492,588,494
493,761,494,800,497
493,492,494,104,496
491,194,493,895,495
492,852,492,356,495
492,302,493,107,497
495,320,492,901,495
491,811,494,130,497
492,225,495,207,496
494,593,492,919,494
491,590,493,109,492
493,198,493,882,497
493,841,492,554,496
494,380,491,112,496
491,265,495,902,496
493,846,493,182,498
493,238,494,102,496
493,430,495,922,496
492,723,494,125,497
492,214,493,597,495
493,765,494,797,493
491,483,494,99,494
492,284,492,905,494
494,847,495,158,497
491,234,494,97,495
492,692,493,918,496
492,523,493,109,495
491,191,493,900,494
492,842,494,441,492
490,325,495,102,495
494,295,497,909,493
494,821,494,139,495
491,224,493,93,496
492,736,497,836,498
490,496,489,108,496
491,207,495,904,494
493,865,489,393,497
493,321,489,102,494
494,337,491,908,493
491,844,490,117,496
493,215,496,164,508
493,564,509,905,480
491,597,503,124,492
495,198,501,866,468
493,850,493,569,502
493,389,505,95,490
498,338,505,922,489
490,799,515,125,497
493,211,501,266,486
493,621,481,919,495
491,576,482,124,499
491,197,497,882,504
492,849,483,498,495
490,374,493,118,494
490,285,496,907,495
494,855,496,167,500
491,248,497,94,497
493,702,496,910,497
490,555,493,106,502
490,221,494,894,498
493,859,493,443,499
492,352,494,110,501
491,303,489,909,495
490,829,492,143,499
491,206,491,97,494
492,682,489,844,500
492,461,490,116,498
494,165,491,907,496
491,815,491,394,496
491,293,493,104,496
494,287,489,918,500
491,809,492,126,497
491,215,493,151,497
491,560,494,920,496
491,609,492,104,496
494,196,492,841,496
493,842,491,579,496
491,390,494,115,495
494,256,492,899,497
495,844,493,209,498
494,236,492,94,497
491,606,494,912,496
492,572,492,109,497
491,191,493,897,497
493,844,493,506,495
494,365,490,109,496
493,265,495,907,497
494,833,493,175,499
492,222,494,102,496
495,450,494,910,496
492,688,494,122,496
495,199,495,670,494
493,776,496,721,497
492,461,494,122,494
494,217,490,898,496
494,849,493,306,493
492,280,494,101,493
493,350,490,910,495
494,798,494,110,498
493,223,492,313,495
494,655,492,924,494
492,560,492,120,496
492,195,492,904,492
492,848,492,491,494
491,365,493,107,495
493,284,492,907,494
495,847,492,153,497
493,237,490,99,495
494,700,490,906,498
494,522,493,101,496
494,190,492,887,498
494,839,492,422,497
493,329,491,104,497
493,295,492,899,496
492,830,492,124,498
493,224,494,94,496
495,740,491,822,501
495,499,492,112,497
493,201,492,889,496
493,846,491,384,499
495,303,493,111,496
495,316,491,910,497
493,811,491,116,498
493,228,494,159,498
494,574,492,919,496
492,623,496,112,495
496,200,505,819,493
493,861,489,594,499
493,414,483,106,495
498,261,500,911,495
499,835,498,225,499
495,235,507,102,489
497,385,507,898,491
492,757,488,117,492
493,223,515,532,482
498,753,492,830,491
495,506,491,104,510
497,187,511,892,487
497,816,496,402,494
491,280,506,108,494
496,277,498,900,493
492,786,497,122,501
493,200,495,131,494
494,548,491,907,496
493,633,496,128,498
496,215,494,841,494
493,860,491,596,498
493,426,494,101,495
492,272,492,892,496
492,854,492,202,497
492,246,491,94,495
492,597,491,919,497
490,568,490,111,496
496,186,489,885,495
493,836,493,536,497
494,352,493,106,495
493,250,491,903,494
495,825,492,181,496
494,221,492,98,496
494,650,491,923,494
492,525,493,121,495
492,174,493,898,496
494,825,494,479,495
491,349,494,113,496
496,281,491,910,495
492,830,493,157,496
492,224,492,102,494
493,489,493,921,494
494,653,493,126,495
495,202,492,727,494
493,818,495,667,496
491,432,491,111,497
493,224,492,893,494
492,838,494,255,496
493,259,495,99,496
494,539,494,922,496
491,620,492,108,494
492,192,492,823,495
493,840,495,602,494
493,397,493,96,497
493,323,492,912,494
492,808,492,130,495
492,223,492,227,495
492,599,494,920,497
491,589,491,111,493
495,196,490,870,493
493,839,492,547,496
493,386,491,108,494
493,268,492,911,495
495,848,492,193,496
492,229,492,96,496
491,646,492,910,497
493,552,494,109,497
490,198,491,891,498
492,845,492,475,494
491,355,493,103,494
492,288,491,906,495
491,833,491,149,496
492,226,495,91,494
493,709,493,862,495
494,513,494,120,495
494,186,493,909,497
492,839,494,420,496
492,328,495,106,495
493,308,494,904,496
492,829,495,135,497
492,220,495,100,494
493,545,498,920,497
492,630,497,119,497
492,197,495,793,494
494,842,494,623,498
496,408,496,117,497
492,240,495,903,497
496,838,496,231,497
496,246,497,94,496
494,592,496,906,496
494,592,498,129,497
495,194,496,893,496
493,843,497,538,497
493,382,497,108,495
495,276,495,894,495
492,849,498,179,495
493,242,496,97,492
493,667,498,917,496
494,550,496,111,495
497,198,497,900,495
495,843,499,474,494
492,360,497,101,494
496,296,497,906,496
493,848,496,161,496
493,233,497,101,497
498,499,492,919,497
495,687,486,128,498
495,218,494,709,502
500,827,495,698,495
495,454,504,122,479
495,218,484,912,490
494,844,488,273,502
500,271,489,113,491
499,358,507,909,495
496,798,498,131,491
493,233,505,393,488
497,688,516,910,495
493,539,485,113,483
495,192,495,900,496
495,847,494,453,494
494,343,493,113,493
492,294,495,904,494
490,826,496,135,496
492,215,495,92,497
493,712,492,874,500
491,531,494,114,496
491,198,492,900,497
491,850,494,428,495
491,328,490,108,494
491,304,493,920,496
491,820,492,124,497
492,207,495,101,492
491,511,491,918,497
490,602,492,103,497
490,178,493,818,495
489,833,493,605,495
489,392,492,100,494
491,241,492,901,493
490,818,492,224,492
491,243,493,98,494
494,580,492,917,494
493,578,492,120,494
495,181,491,884,494
492,840,492,542,492
491,364,493,117,493
491,254,491,890,494
490,835,492,202,495
491,225,493,95,494
492,633,492,899,494
492,548,494,108,497
491,182,492,889,495
492,835,493,485,494
490,355,490,104,492
492,275,491,892,494
490,833,493,138,495
492,221,491,89,497
492,688,491,906,494
491,520,492,113,496
494,192,492,895,494
491,836,491,430,497
490,327,493,96,496
494,395,491,919,494
493,735,491,127,497
493,203,491,548,496
493,743,491,822,498
492,496,493,103,494
492,192,491,901,493
491,844,493,383,495
493,307,494,111,495
491,309,491,903,494
494,824,492,130,497
492,222,492,124,497
491,562,494,900,496
490,618,494,117,494
490,200,494,833,494
491,841,493,600,499
492,404,495,95,496
494,334,495,898,496
490,817,493,119,497
492,230,492,237,496
493,623,494,916,501
493,590,491,118,495
494,196,493,885,495
493,858,493,530,499
491,387,495,118,496
493,277,492,907,496
492,853,493,194,493
491,240,493,100,495
493,453,493,902,496
491,725,495,118,497
492,221,493,650,496
492,787,496,760,498
493,483,495,127,493
493,220,494,906,497
492,858,493,323,498
491,299,496,110,495
492,347,493,905,496
492,823,495,122,496
491,234,502,269,489
496,622,501,906,486
490,553,498,124,505
492,110,501,899,496
499,760,486,517,495
494,327,507,114,483
496,239,498,907,482
500,825,502,195,500
493,222,501,98,487
495,661,491,924,495
490,537,489,118,494
494,205,509,892,498
495,848,504,460,504
494,358,498,111,492
494,298,507,914,495
492,844,497,159,493
493,250,495,94,494
493,720,496,894,497
494,532,492,123,497
492,219,494,901,500
492,863,492,424,498
493,355,491,98,496
494,417,491,916,497
492,739,491,115,497
492,208,490,560,496
491,729,490,817,496
490,457,489,99,492
493,232,489,909,495
491,792,491,188,497
490,189,491,102,495
492,425,490,915,495
490,672,492,118,495
491,192,490,668,496
493,771,489,744,497
494,446,493,112,496
493,201,491,895,493
493,844,491,310,499
493,271,491,100,498
493,338,491,911,494
492,793,492,117,495
491,220,491,332,496
493,659,491,921,496
495,559,493,118,496
492,202,490,883,492
491,854,493,483,495
492,364,491,109,495
493,287,492,908,496
491,842,492,159,499
493,227,494,90,496
493,695,492,911,497
492,528,491,123,496
494,198,490,891,497
493,848,490,450,497
491,339,490,114,495
491,295,490,915,496
493,833,490,118,496
492,225,494,98,494
493,725,492,853,495
492,512,490,101,494
493,190,491,887,498
493,848,491,405,497
492,316,490,97,496
495,417,490,910,498
492,708,493,113,499
494,203,492,624,497
494,760,492,765,498
490,467,493,105,496
493,209,491,896,497
494,848,492,354,497
490,290,492,100,499
495,336,493,902,496
493,811,492,132,496
492,223,490,235,496
494,606,493,918,495
491,596,491,108,497
493,196,493,872,496
493,850,495,541,498
492,385,494,118,495
492,274,493,897,496
492,848,495,200,497
491,245,494,97,498
495,641,494,920,495
494,562,494,105,496
495,192,494,893,498
494,842,493,499,495
493,370,494,105,495
494,287,493,894,494
493,840,495,171,496
493,235,494,100,499
493,470,495,925,497
496,697,496,115,498
493,210,496,694,495
494,793,494,735,499
494,469,495,103,495
496,217,496,902,497
494,850,496,308,495
494,287,499,97,494
494,491,497,912,496
495,675,496,126,494
496,211,494,733,496
495,817,494,695,496
497,456,509,110,501
498,231,495,880,503
495,853,492,272,489
497,242,501,109,509
503,311,505,921,494
497,751,508,131,502
494,197,502,360,503
493,662,494,919,488
480,546,502,114,500
512,198,484,898,491
496,844,501,477,487
494,313,506,111,496
500,233,505,916,502
498,799,505,145,494
493,201,494,102,484
496,441,514,931,494
494,641,502,128,500
496,184,496,720,495
496,782,497,701,497
494,439,496,105,499
493,235,494,908,499
493,865,495,287,499
494,277,494,103,500
493,361,493,899,496
494,806,493,121,493
493,243,491,360,497
492,685,491,916,502
491,567,491,113,497
490,205,490,904,498
493,851,491,478,497
493,347,489,100,497
494,272,491,906,495
493,821,491,142,495
491,220,491,94,495
494,696,492,903,498
492,512,492,108,497
494,182,493,897,496
493,829,493,425,498
493,324,491,105,494
493,298,490,901,496
490,829,492,132,493
494,224,490,104,494
494,524,491,914,496
492,643,492,125,495
491,198,492,750,495
492,828,493,654,496
491,425,492,118,493
494,227,491,905,495
494,849,493,256,497
492,254,493,115,493
492,370,492,899,493
490,768,494,122,493
491,221,491,434,498
491,717,492,905,494
493,530,492,118,495
494,198,491,892,495
492,851,490,433,497
492,339,494,101,494
493,304,494,908,495
491,836,493,119,496
491,233,495,89,496
493,730,493,835,496
493,499,492,116,496
493,193,493,892,497
493,837,494,386,498
493,299,495,102,494
493,306,494,914,496
492,818,493,116,498
491,220,492,124,495
493,555,493,912,495
492,619,495,125,496
494,191,494,813,493
493,848,495,595,492
491,401,495,98,494
491,325,493,910,493
493,808,493,122,494
490,223,493,220,492
491,600,494,911,494
491,592,493,112,494
494,195,492,872,496
491,847,492,551,498
491,390,493,112,494
493,265,494,893,495
492,847,494,213,498
493,234,494,95,494
493,634,493,918,496
491,564,495,126,495
492,198,494,896,494
493,849,493,517,499
494,372,493,103,495
494,272,492,910,496
492,846,494,192,496
492,240,495,103,496
494,455,493,913,496
491,703,495,108,493
493,213,494,664,493
492,779,493,755,495
491,473,493,104,493
495,213,494,906,494
492,853,494,340,498
493,299,492,112,497
493,339,494,906,494
491,813,493,120,499
493,225,492,264,495
492,631,495,922,496
492,582,495,122,497
491,180,493,873,496
493,838,495,546,498
493,377,493,113,496
492,270,493,913,497
493,852,494,186,496
493,240,494,98,488
490,650,488,928,500
493,567,487,108,483
496,204,493,896,489
497,858,503,499,487
497,367,501,104,488
496,288,498,899,500
496,840,490,166,488
492,240,485,100,489
491,475,507,928,507
494,695,500,121,492
496,219,500,707,473
495,811,491,721,480
497,467,507,112,495
490,222,493,899,487
491,849,506,309,508
495,282,510,101,486
495,343,496,924,496
495,795,505,126,496
491,219,491,288,493
490,648,494,918,484
492,583,500,121,495
494,193,495,886,489
492,846,491,520,490
492,380,495,108,495
493,266,497,899,495
494,823,496,194,499
492,224,493,90,502
492,638,492,911,496
489,512,494,110,497
493,174,491,900,493
491,825,490,469,496
491,338,491,108,495
494,271,492,908,494
493,836,491,173,496
493,232,488,94,498
493,674,490,903,497
492,505,490,112,496
493,159,489,888,499
492,814,491,447,499
492,312,489,99,497
490,361,490,900,499
492,738,491,110,493
491,201,489,493,497
491,716,492,861,497
491,506,490,96,495
493,258,492,907,495
490,837,492,189,496
490,243,493,89,497
493,623,492,913,497
493,573,493,121,495
495,183,492,884,497
493,840,494,524,494
492,377,494,108,494
492,277,491,907,496
491,842,493,185,494
491,233,493,93,495
492,669,491,914,493
492,551,494,122,496
494,189,492,884,498
492,845,492,470,497
493,351,493,112,493
492,285,491,909,495
492,838,493,140,494
493,225,492,103,495
492,482,491,914,496
492,687,494,106,497
492,206,493,701,495
492,805,491,718,495
491,454,493,114,495
493,222,491,907,497
493,852,493,308,495
492,281,491,104,496
494,349,494,918,495
492,802,493,123,496
493,230,490,319,496
492,661,492,906,493
492,569,494,119,495
493,208,491,884,495
490,853,491,490,496
491,370,493,101,496
491,289,490,894,495
490,849,492,151,495
492,232,494,100,495
491,481,492,904,496
492,682,492,117,497
492,214,490,714,496
493,810,491,700,495
490,448,493,96,497
492,305,490,911,496
494,838,492,145,497
491,234,493,102,496
493,535,494,926,496
491,653,493,122,495
494,215,492,762,496
494,841,494,655,498
492,438,494,123,494
494,235,493,905,493
492,855,493,262,497
492,277,492,97,494
492,560,494,915,499
491,639,497,127,497
491,213,493,791,496
492,851,493,612,496
493,419,496,113,495
494,257,494,898,496
492,853,494,240,494
492,264,496,102,496
492,384,493,916,497
492,771,496,111,495
494,222,497,444,495
494,717,495,903,498
493,539,494,108,496
496,198,496,904,499
494,846,496,435,499
494,329,494,103,496
494,303,493,894,497
493,830,495,118,496
492,223,496,96,497
494,719,495,841,497
493,500,498,103,495
493,181,494,904,498
493,832,494,414,496
494,308,494,108,494
495,299,495,906,495
491,813,494,134,495
493,216,493,96,498
494,742,496,799,497
495,485,496,130,496
494,189,495,905,497
493,829,495,372,495
492,296,494,103,495
496,312,496,901,496
491,814,496,118,497
493,215,494,169,496
491,575,494,906,497
493,606,495,117,496
494,187,495,860,493
494,826,493,573,497
495,354,494,120,496
496,228,494,913,495
494,821,493,222,495
493,224,493,99,494
493,605,496,909,498
493,569,496,117,491
496,177,495,878,494
495,836,495,531,497
494,373,494,107,494
494,268,496,907,495
493,837,494,194,495
494,221,495,96,495
493,657,495,905,496
492,531,497,121,495
494,182,495,890,496
493,838,496,486,498
495,349,495,109,495
494,275,495,904,495
494,823,496,157,499
492,207,494,100,496
495,470,495,923,495
494,659,495,118,496
493,197,495,722,494
494,814,495,694,498
495,435,495,105,495
496,210,495,908,493
493,843,496,275,496
493,257,495,98,497
491,523,493,909,497
493,627,496,112,495
494,197,494,771,499
495,844,488,631,495
494,425,489,97,499
493,340,505,910,497
496,846,490,118,493
494,216,493,145,495
494,544,506,894,495
493,608,491,116,510
496,200,514,838,499
496,833,490,591,491
493,392,491,114,495
493,224,509,888,442
494,824,496,214,488
501,254,490,107,485
499,385,507,918,489
493,746,497,129,486
493,204,508,477,489
490,728,504,864,492
495,523,487,119,496
493,204,496,889,493
493,853,500,413,494
492,326,496,112,494
495,312,495,897,495
496,837,494,128,493
493,238,494,90,497
493,768,492,821,499
492,519,491,100,496
494,226,491,902,508
491,875,491,391,497
492,333,491,101,494
492,340,489,908,497
490,851,490,127,495
491,249,491,153,494
490,587,489,915,496
491,622,490,115,495
493,213,495,859,494
491,854,487,579,495
490,407,491,105,494
491,257,490,915,494
490,848,492,225,497
490,246,490,93,494
494,607,493,917,495
491,576,495,128,495
492,190,490,869,496
493,847,491,539,494
491,376,494,108,495
492,260,491,888,496
491,842,493,194,495
493,236,495,99,497
494,630,493,916,496
493,555,496,121,495
494,190,492,905,495
493,843,493,495,496
491,362,494,108,495
492,281,494,899,495
494,842,494,166,494
491,225,492,101,494
492,471,494,926,494
492,691,493,120,494
494,206,494,667,495
493,791,494,739,495
491,463,494,118,495
493,218,492,899,493
494,848,493,310,498
493,286,492,103,496
494,339,494,899,497
492,794,494,126,497
492,221,492,283,493
493,639,492,912,497
492,580,493,126,495
493,200,492,890,496
493,847,493,516,493
494,375,494,105,496
492,279,492,907,498
493,844,492,165,495
492,237,492,95,496
494,659,493,918,497
491,551,492,126,495
493,187,493,903,494
491,844,493,480,494
492,353,492,106,495
494,280,493,908,495
492,833,496,149,498
492,231,493,86,495
493,700,493,897,496
494,519,493,103,495
496,187,494,893,496
493,837,494,448,494
492,339,494,106,496
491,298,493,900,495
491,832,494,131,498
492,225,493,95,495
493,736,494,837,496
494,503,495,114,496
495,199,493,892,498
492,837,494,403,496
492,314,493,97,496
493,421,494,901,496
493,719,495,125,497
493,206,494,621,499
494,753,493,793,497
494,485,493,109,496
493,197,493,894,497
494,839,493,363,495
494,301,494,113,497
492,319,494,912,497
492,809,494,115,498
492,222,495,198,496
495,588,493,926,495
494,595,490,121,496
495,190,494,864,496
493,844,495,560,497
492,391,495,115,497
493,260,495,906,497
495,847,495,214,497
493,244,496,95,495
494,615,495,904,496
492,570,495,102,495
494,185,494,873,498
494,837,495,526,495
493,370,494,109,495
494,269,494,901,495
492,843,496,185,495
494,223,494,106,496
496,438,494,909,495
495,702,496,123,495
495,203,494,639,496
494,774,494,748,495
493,470,495,106,497
493,202,493,906,497
493,847,495,318,499
492,281,495,108,493
493,341,493,894,495
493,804,494,111,497
492,223,493,256,495
496,623,493,915,498
492,584,496,116,497
496,200,493,889,495
493,847,493,530,498
494,373,495,102,495
494,271,495,898,495
493,846,494,194,497
493,238,495,100,495
493,433,492,906,496
494,727,496,134,496
494,211,493,637,496
495,773,495,791,496
492,498,499,101,495
494,210,499,892,494
494,853,497,363,492
494,309,496,114,493
497,321,488,923,505
492,782,510,129,480
493,175,492,207,479
495,572,507,921,507
495,563,524,123,484
501,175,499,855,492
494,831,496,542,489
497,367,510,105,492
494,250,517,907,492
492,837,508,194,501
502,230,494,99,494
497,609,493,910,501
497,533,492,113,486
494,156,492,900,492
497,800,500,528,492
493,328,503,116,495
496,232,505,906,486
493,815,497,189,494
494,202,495,104,494
493,421,487,920,498
494,695,495,121,495
494,199,494,642,496
494,774,492,760,497
493,473,494,114,495
494,215,492,907,496
492,855,492,334,500
490,295,490,96,503
495,493,491,898,497
493,699,492,122,495
493,228,490,705,495
492,789,492,729,498
490,449,492,108,497
493,219,490,907,496
493,833,490,292,497
491,274,492,99,495
492,503,491,909,495
492,630,492,108,497
491,172,491,720,496
492,781,490,674,497
491,367,492,121,497
493,171,491,908,493
490,797,492,271,496
491,219,491,101,498
491,321,492,916,495
492,734,493,123,496
492,170,491,375,496
490,642,491,913,498
493,510,493,118,494
495,166,492,889,494
493,826,493,469,497
491,330,493,111,493
491,275,492,907,495
493,829,492,160,495
492,214,492,97,494
493,707,492,872,495
492,513,491,99,494
492,257,492,904,494
491,850,492,213,494
491,240,493,92,495
491,599,492,917,494
492,584,492,116,495
494,193,492,871,497
491,850,491,550,496
491,383,492,102,495
494,261,491,900,496
490,842,493,193,494
491,242,492,90,495
491,628,491,926,496
493,564,491,119,496
494,191,490,890,497
492,844,491,515,497
491,366,491,96,493
491,349,493,916,495
492,779,493,130,498
493,217,492,352,496
495,666,492,909,497
492,553,491,110,496
493,201,492,909,495
494,849,492,477,496
493,360,491,92,499
494,373,492,921,497
491,779,493,120,495
492,219,492,430,495
494,706,493,904,501
494,530,494,106,496
494,195,494,889,498
494,851,493,439,498
494,332,493,106,495
495,300,495,902,496
493,833,496,143,495
493,230,497,106,492
494,517,496,914,496
495,661,497,124,496
497,201,497,745,496
493,824,494,670,498
496,436,495,113,495
496,221,495,906,496
496,828,497,247,498
495,270,498,105,495
494,361,494,917,497
496,751,498,121,495
498,189,495,423,496
498,690,496,913,500
494,533,495,113,496
497,190,497,903,494
496,844,497,456,496
495,346,495,95,499
496,383,495,917,495
495,768,497,110,498
495,225,497,497,494
497,734,496,864,497
496,518,495,114,495
499,204,495,902,495
494,862,496,409,497
494,335,496,97,498
495,420,496,922,495
494,746,498,116,494
496,218,497,565,497
496,761,496,802,498
496,492,496,112,495
495,201,496,901,495
495,854,496,363,496
493,312,494,104,494
494,328,495,906,496
497,825,496,118,498
494,234,495,191,496
494,598,496,905,494
495,610,498,117,497
493,206,495,861,495
494,851,493,558,494
496,399,496,102,494
496,270,494,914,495
493,855,495,203,495
493,264,496,102,494
496,430,494,905,497
493,748,495,118,495
496,222,494,574,495
494,760,494,813,493
493,513,496,117,495
497,210,493,907,494
492,865,496,392,497
494,321,497,111,494
493,329,496,922,495
491,836,500,128,502
493,245,493,144,492
494,583,491,907,497
498,626,482,119,505
495,171,484,815,471
495,802,502,605,490
500,374,505,128,487
497,229,495,908,491
496,845,503,217,478
492,246,518,114,499
496,385,513,904,490
500,765,499,114,483
493,222,495,509,516
492,708,492,865,501
495,501,505,101,487
493,193,487,907,501
496,849,498,416,491
494,326,494,106,496
493,319,492,912,495
491,838,493,117,496
495,244,494,83,499
496,766,490,817,493
493,512,492,121,504
494,214,490,904,502
493,867,492,381,498
493,319,490,98,497
494,424,489,905,503
491,681,491,115,496
493,181,489,646,496
493,744,488,759,499
491,441,489,103,497
492,180,489,900,495
491,826,490,333,496
491,266,492,103,497
492,322,490,907,495
493,798,493,127,498
492,201,490,273,499
492,618,492,902,501
494,570,494,128,497
492,187,493,881,498
494,842,492,532,497
494,375,492,100,497
492,265,491,896,496
494,840,492,199,499
493,224,492,100,496
492,439,494,919,497
494,705,494,119,497
495,205,494,670,495
492,774,497,763,500
493,481,493,118,496
493,210,495,899,499
493,849,495,351,497
492,295,495,104,494
494,336,495,911,498
493,812,495,116,497
492,231,492,237,494
492,623,494,916,496
491,591,496,119,495
491,196,495,879,495
492,848,496,535,495
490,379,494,104,494
492,277,493,907,495
492,850,495,164,495
492,241,493,93,496
492,671,494,918,496
492,543,495,104,497
496,198,494,890,498
492,837,492,491,493
491,349,494,98,500
493,371,498,920,496
492,777,494,112,497
491,217,496,440,498
493,701,493,905,495
492,527,495,116,495
491,194,494,902,495
492,852,496,436,498
493,339,496,110,495
492,294,493,913,496
492,829,494,144,494
492,223,493,98,495
493,732,492,840,495
491,499,493,119,495
492,185,495,912,495
493,832,496,397,497
491,296,493,94,496
492,419,496,907,497
492,716,496,129,500
492,214,498,626,496
492,776,498,779,498
491,492,492,111,493
492,205,508,902,489
495,861,495,356,483
497,288,491,109,499
492,287,508,911,483
491,806,504,124,506
493,206,519,194,507
493,588,485,910,527
495,568,496,125,490
498,142,525,873,473
494,799,498,563,514
491,331,493,113,491
495,242,503,902,495
493,843,499,188,489
489,249,500,96,494
491,651,491,914,495
492,568,497,131,495
491,190,495,896,494
495,840,496,491,494
491,368,494,108,504
492,296,495,896,495
493,838,493,148,497
492,227,491,93,499
494,682,491,912,505
493,521,490,118,493
491,191,494,900,502
492,846,487,431,498
492,338,488,113,489
495,304,491,917,495
492,834,490,142,493
491,220,492,94,496
492,743,489,821,500
493,490,494,124,500
491,190,490,895,496
493,849,490,387,497
492,276,490,99,496
494,407,490,926,500
489,713,492,122,499
491,215,490,637,498
494,764,493,778,497
492,452,491,112,497
490,206,492,903,496
491,851,494,341,495
492,294,491,97,498
493,476,493,909,496
491,681,493,120,495
495,214,492,690,496
491,804,492,710,497
490,464,491,97,496
492,299,493,904,496
490,841,494,128,495
492,239,492,94,495
492,750,493,846,495
492,519,492,111,495
492,199,492,904,497
492,859,491,406,496
492,322,493,114,496
494,314,495,906,495
495,827,493,129,495
492,235,493,115,495
492,568,492,920,497
494,642,491,130,497
494,218,490,800,496
493,850,493,605,498
489,418,491,96,496
492,336,492,914,496
491,820,493,119,496
493,232,492,190,500
494,602,492,915,495
492,619,492,123,496
492,206,491,853,495
493,857,492,572,495
492,399,491,116,496
493,272,492,908,496
493,848,492,204,495
492,254,493,99,497
493,629,491,904,498
492,577,496,104,496
492,191,494,881,495
493,838,493,516,495
495,370,495,113,496
494,265,494,901,496
495,838,494,191,495
493,232,495,98,494
495,653,497,906,497
494,538,498,104,496
492,188,496,894,494
494,847,496,465,495
492,349,496,103,497
495,284,497,898,495
495,834,497,140,493
493,219,497,90,496
495,699,496,878,494
492,509,494,107,496
495,175,497,895,494
493,828,497,421,498
495,310,496,102,500
495,294,496,901,500
493,824,500,134,500
493,227,498,94,492
494,755,501,814,490
491,492,501,117,496
496,160,499,905,510
497,819,494,391,493
493,308,500,116,468
494,312,510,915,485
493,754,495,112,493
498,138,522,157,493
501,522,492,905,495
502,605,513,111,468
495,197,499,841,484
492,828,513,594,478
500,372,494,109,517
492,241,523,892,503
495,843,501,238,488
495,255,496,107,491
495,407,497,905,497
495,752,498,119,494
493,207,501,547,493
493,749,494,838,499
492,535,495,117,495
492,207,492,892,497
495,841,490,382,498
493,304,492,102,499
493,304,490,906,496
490,814,490,130,497
492,218,491,128,495
489,542,491,910,497
491,588,490,112,498
490,147,490,815,497
492,792,489,593,496
493,357,490,109,496
492,207,492,890,492
491,815,492,231,496
493,228,494,101,493
493,376,491,904,495
492,725,493,114,496
492,199,490,543,492
491,719,492,827,494
493,489,491,123,495
492,195,491,895,498
492,849,491,393,496
491,306,491,113,496
491,305,492,896,496
492,829,493,121,496
491,232,493,156,497
491,561,491,904,495
489,620,493,125,496
491,206,493,845,494
492,851,494,588,494
491,401,493,112,495
492,269,491,894,497
492,855,492,198,496
492,237,493,95,495
492,620,493,897,497
490,578,495,113,496
493,190,491,892,496
492,841,491,524,499
493,382,491,106,496
492,271,493,890,496
491,849,493,172,497
491,238,492,103,492
493,438,491,917,496
492,715,492,119,496
494,216,492,634,494
491,783,490,773,493
489,485,490,128,496
492,208,490,906,495
491,852,493,352,499
489,296,493,107,495
491,335,490,911,495
493,817,492,128,495
493,225,491,228,496
491,614,491,906,497
492,601,491,109,498
494,213,491,877,494
492,864,491,541,497
489,393,492,107,494
492,284,492,896,495
490,863,494,187,495
491,255,491,95,498
492,665,492,914,498
491,568,492,105,497
490,212,493,892,497
492,861,492,492,498
489,370,494,105,494
492,291,492,904,497
490,855,493,155,497
492,238,492,100,495
493,474,495,927,499
492,704,487,117,504
492,213,483,676,500
493,782,501,744,488
494,450,500,123,480
496,179,500,892,494
498,802,492,327,492
493,247,521,105,494
495,331,503,915,503
499,776,500,131,481
493,192,494,288,493
495,625,492,926,492
493,577,500,131,500
494,186,496,895,497
496,850,496,514,501
494,387,497,102,494
493,300,494,895,491
495,863,493,171,500
493,256,493,98,504
490,700,493,915,498
491,546,495,103,498
490,165,492,908,492
491,792,494,471,499
493,289,493,99,497
493,323,490,904,495
491,700,492,114,496
493,155,494,449,496
494,694,494,896,498
493,481,492,105,496
494,149,490,896,494
493,805,490,417,496
492,311,503,96,487
498,406,481,908,494
494,765,482,105,494
495,212,502,551,497
492,605,499,815,489
494,382,488,108,481
490,159,512,906,495
490,832,503,381,487
488,246,505,105,506
500,239,490,907,493
495,747,498,117,523
489,136,494,161,492
494,492,498,911,495
492,545,492,105,492
492,141,497,843,492
494,814,495,597,494
493,391,497,102,500
493,238,492,905,499
490,834,491,219,496
491,251,494,102,497
488,373,489,913,498
500,684,491,109,497
491,124,491,519,496
492,598,489,842,499
490,373,492,110,495
490,147,489,910,496
492,830,490,403,494
491,276,491,101,493
491,243,489,903,496
489,788,492,126,494
491,225,491,128,495
493,556,491,918,496
492,587,487,117,495
490,184,489,816,497
491,863,506,609,494
490,417,479,108,480
494,259,499,905,486
488,885,481,224,471
492,311,494,105,503
499,433,486,905,502
497,645,472,116,505
498,136,506,541,485
496,777,498,833,501
475,534,525,111,456
484,237,485,912,503
489,873,497,393,494
491,299,481,99,494
493,386,487,917,497
493,678,501,122,500
493,161,492,638,492
494,704,489,780,500
492,440,493,127,501
495,216,490,902,500
490,873,490,345,498
490,332,491,106,500
496,367,491,900,502
489,838,491,121,493
490,247,488,241,495
490,631,488,921,500
491,596,488,113,498
492,200,491,874,498
490,861,493,557,499
489,384,492,113,495
491,262,492,909,497
490,851,492,213,496
490,249,493,99,500
493,635,491,907,497
493,554,495,121,498
494,200,493,892,497
493,861,493,515,494
491,374,494,105,495
492,289,494,906,478
488,858,498,184,478
487,251,489,95,504
492,684,491,919,500
492,553,492,123,499
495,195,491,906,502
495,850,491,465,502
493,356,491,107,499
493,299,494,896,501
494,843,494,136,499
493,235,495,95,496
494,712,494,882,496
493,516,496,113,498
494,188,494,894,498
492,844,497,438,497
494,331,495,106,496
495,296,493,911,494
494,825,495,133,497
493,221,497,110,496
496,529,496,912,497
494,632,498,123,496
495,196,495,807,496
493,836,495,623,496
495,416,496,103,495
492,240,496,892,496
493,847,497,233,498
492,261,497,105,494
493,387,496,919,496
492,770,497,120,495
492,225,495,506,494
494,743,497,867,497
493,527,494,124,496
495,203,498,910,494
493,849,492,419,497
492,326,494,97,495
493,423,495,914,498
494,745,496,115,498
495,223,495,590,499
495,761,493,807,497
494,500,496,109,499
494,208,494,906,498
494,859,493,363,499
491,317,496,113,496
493,350,492,909,497
494,842,499,127,495
492,254,491,181,493
494,615,496,916,494
493,624,499,116,494
495,221,504,888,492
495,869,499,560,490
496,404,500,101,490
494,273,488,894,493
492,856,491,203,494
493,241,492,97,485
500,637,487,911,480
493,574,522,119,494
494,181,501,901,486
492,840,487,510,501
498,348,495,106,491
492,241,485,909,486
496,811,499,182,502
490,189,507,106,496
486,399,522,909,490
492,713,507,123,517
493,229,488,644,492
492,797,487,751,516
492,488,509,118,493
492,215,490,891,498
492,873,491,326,494
493,315,500,110,505
495,343,495,911,496
492,797,492,122,496
492,231,491,264,496
493,635,491,917,498
491,590,489,125,497
490,196,490,894,495
492,860,488,519,497
491,381,489,111,497
494,287,487,912,498
490,841,489,184,501
491,233,488,97,498
492,679,488,911,498
492,539,488,107,497
494,201,490,890,497
491,844,491,467,496
492,346,492,107,497
492,274,492,912,497
492,823,491,136,497
491,223,492,99,497
492,707,492,880,497
492,509,492,100,499
491,199,492,900,497
492,840,495,411,497
494,327,493,107,495
493,305,491,912,498
493,841,494,134,495
491,227,492,91,498
492,735,494,812,498
491,490,491,119,496
492,194,493,892,494
492,826,493,377,496
494,284,493,97,494
491,437,494,916,495
491,696,493,121,495
492,208,494,660,494
492,772,493,754,493
489,459,493,106,493
492,190,493,905,493
493,844,495,344,494
491,275,491,101,496
494,321,492,897,495
490,797,494,115,495
492,221,493,249,496
493,623,493,904,496
492,587,494,126,496
493,190,492,876,498
492,841,494,542,497
493,380,494,114,496
491,276,493,905,496
492,852,493,189,498
491,245,492,96,497
492,654,492,914,495
492,565,495,115,495
492,199,493,882,495
493,853,492,479,495
490,366,490,108,499
493,295,491,911,496
490,852,493,155,497
492,250,493,102,494
494,510,494,921,497
492,688,493,126,497
492,227,493,724,496
493,833,493,695,498
495,467,493,116,496
495,237,493,895,497
493,871,493,284,495
494,295,493,107,497
494,376,492,920,496
494,805,494,124,498
493,241,491,403,496
492,715,493,914,497
491,560,497,122,498
492,204,502,893,496
494,852,502,443,499
492,355,493,101,499
495,311,500,899,502
493,846,527,157,466
492,242,492,101,495
498,514,497,930,504
494,662,512,111,502
497,196,498,747,488
494,831,506,668,493
496,432,494,114,500
491,169,506,896,490
493,719,484,263,504
496,206,516,110,482
491,326,508,912,500
490,732,504,121,495
494,180,493,449,495
494,656,497,908,489
497,503,495,114,497
496,187,497,898,496
494,832,500,453,497
492,337,496,101,495
492,306,496,897,497
492,857,490,146,498
493,228,491,103,497
494,524,492,908,498
490,655,493,119,500
491,212,489,768,497
491,841,492,660,496
492,424,491,97,496
492,304,488,897,500
490,807,492,113,495
490,207,492,115,497
490,530,492,920,495
490,613,493,118,495
493,187,491,806,495
491,840,491,611,492
491,389,492,116,495
494,235,491,907,497
494,833,492,229,494
492,236,493,92,495
493,580,491,911,495
493,592,493,129,496
492,190,492,865,494
492,848,494,555,494
492,376,494,103,494
491,252,493,908,495
493,850,493,208,497
492,240,492,100,495
491,420,493,923,493
493,727,495,122,496
493,217,494,589,493
492,754,494,803,495
491,489,493,104,495
491,204,492,899,495
492,840,493,360,495
493,299,492,107,494
495,326,491,908,495
494,821,493,133,494
492,227,492,221,492
493,606,493,925,495
492,607,494,124,497
493,199,492,868,500
492,848,491,559,495
493,394,494,95,493
492,348,491,908,494
492,807,493,126,497
494,220,492,292,496
493,637,491,908,495
493,577,495,126,497
493,197,492,887,496
494,853,494,509,495
494,373,491,99,496
494,352,492,900,498
495,778,494,130,497
492,214,494,365,496
495,677,493,909,494
495,549,496,122,497
495,198,493,910,495
495,853,496,480,496
495,346,494,116,495
496,288,494,908,497
496,832,496,155,497
494,221,497,96,495
495,709,495,875,496
493,508,495,104,496
496,201,494,906,496
495,842,495,425,498
496,321,497,103,497
495,299,497,899,496
495,822,496,119,501
494,225,497,90,497
496,738,494,792,499
494,484,494,127,497
496,190,497,900,498
495,842,501,378,495
493,318,495,103,502
496,333,504,925,500
495,839,502,131,481
493,257,506,170,477
494,608,516,910,487
490,605,498,119,481
491,200,504,853,493
504,849,489,591,529
502,375,506,116,514
497,167,529,886,490
498,802,512,220,496
497,246,497,97,496
495,586,506,914,482
501,546,483,124,493
494,174,495,882,504
499,826,501,524,500
498,361,495,109,501
501,264,491,909,502
496,832,499,191,499
493,226,498,96,497
493,665,496,910,496
494,559,499,116,501
495,198,495,884,499
494,851,493,478,501
496,372,495,104,502
492,299,489,906,498
491,853,493,167,498
495,242,489,94,492
491,707,491,907,495
493,526,490,109,499
493,176,491,897,495
491,830,492,445,496
492,322,493,100,496
494,277,491,913,496
494,826,491,141,494
492,216,492,105,494
492,498,492,917,495
493,656,492,116,496
491,195,492,753,495
493,834,492,657,493
494,429,491,108,495
492,232,493,891,498
491,849,493,234,496
491,266,494,102,496
493,381,492,907,495
491,770,494,129,494
492,217,494,458,495
492,711,493,898,495
489,533,492,104,498
491,197,493,892,492
491,852,493,433,494
490,329,493,94,497
494,404,492,913,496
491,742,494,117,495
493,213,492,555,494
493,752,492,822,494
488,516,498,125,475
486,209,495,913,472
485,861,493,377,477
486,322,493,95,478
487,444,566,910,511
494,709,490,119,506
492,200,488,621,507
493,764,490,773,503
493,476,489,111,503
493,203,489,895,502
492,848,490,351,499
492,292,491,104,499
493,332,488,918,501
492,801,493,126,499
492,218,491,259,497
491,623,492,904,496
491,577,490,117,499
492,193,491,879,499
492,842,495,514,499
494,366,492,116,496
494,272,492,898,497
492,845,492,180,501
493,225,494,94,497
491,664,493,912,498
491,538,493,110,497
491,187,493,891,493
491,845,492,476,496
492,342,492,115,495
494,287,495,906,495
493,827,493,159,498
491,221,492,104,495
494,490,493,911,496
492,676,494,121,496
494,199,493,710,497
491,805,493,699,495
491,443,495,116,496
492,230,494,894,494
492,851,496,272,494
492,279,493,92,495
493,536,493,923,495
492,638,495,117,496
494,198,493,792,494
492,842,493,634,495
490,413,495,97,498
493,326,492,898,496
491,815,494,124,495
491,225,494,167,493
491,586,493,911,494
491,609,495,121,495
492,202,493,869,494
493,851,495,558,495
492,390,492,108,496
494,254,494,900,495
493,838,495,204,497
491,239,495,97,496
491,619,493,917,496
492,566,497,125,495
491,188,494,889,495
493,838,496,511,497
494,356,495,106,495
494,274,493,900,495
494,839,494,159,497
493,226,493,99,496
493,671,494,916,497
492,520,495,105,494
492,197,494,909,494
492,838,491,461,477
488,349,498,115,503
494,282,492,909,501
492,822,492,143,500
492,216,493,92,501
492,723,494,848,499
491,505,495,108,500
493,198,492,888,496
493,847,497,395,503
492,322,493,96,498
491,416,497,904,498
490,730,493,117,498
492,212,491,593,494
494,763,497,794,498
491,499,499,106,494
493,198,501,903,512
496,828,504,352,490
492,284,515,111,489
499,301,494,907,484
495,807,513,135,504
496,226,492,209,485
494,544,493,923,491
495,512,485,119,512
496,136,510,874,493
500,838,499,562,489
492,387,498,116,502
494,271,511,907,491
494,820,501,218,499
496,238,497,105,490
492,414,499,904,491
491,739,496,118,495
492,208,495,585,493
494,733,496,792,493
490,475,494,127,504
491,195,494,901,496
492,837,489,359,496
492,284,493,105,495
492,328,491,910,495
490,827,491,124,497
491,231,490,200,496
490,603,490,921,498
491,597,492,107,499
491,195,495,881,499
491,831,492,545,498
493,375,492,117,495
494,260,491,897,495
490,838,493,183,494
493,235,492,102,495
491,430,493,904,497
490,730,493,116,496
490,223,493,624,496
492,784,494,778,495
492,491,492,123,496
493,208,492,905,495
492,867,495,352,496
490,305,494,111,493
491,347,494,905,495
490,822,493,116,494
490,235,494,254,496
492,627,494,921,494
490,592,492,108,496
494,199,492,896,497
492,861,494,531,496
491,388,493,104,493
490,281,493,904,495
490,846,494,195,496
491,237,492,89,496
491,660,493,912,494
492,552,492,107,495
491,196,493,892,495
493,846,494,482,493
491,358,492,93,497
495,380,493,898,495
492,766,493,120,495
493,222,493,438,496
494,718,492,905,493
493,512,492,109,495
492,192,493,895,494
493,847,494,436,496
491,331,493,98,495
493,387,491,911,497
493,747,494,108,498
492,210,492,533,493
492,741,493,831,497
492,493,491,104,493
494,191,493,904,495
492,832,493,381,495
494,304,492,107,497
494,306,494,922,496
492,815,492,121,497
492,223,491,140,495
492,565,492,901,495
492,619,494,124,496
491,203,492,820,498
492,850,491,586,499
493,407,492,97,495
491,339,490,903,497
493,809,493,118,496
492,222,493,242,495
492,617,493,912,494
491,592,492,113,495
492,211,491,897,495
492,866,495,532,496
490,392,492,99,497
493,367,491,916,498
492,805,494,111,495
492,232,492,372,496
492,687,494,915,498
492,567,492,122,498
493,208,493,884,498
493,851,493,475,496
492,349,494,120,496
493,265,491,917,498
492,813,493,140,495
491,203,495,97,496
492,672,494,896,494
492,505,494,109,496
493,176,494,897,495
493,829,496,441,495
493,312,495,103,495
492,269,493,902,497
495,799,494,136,498
492,205,494,98,497
492,721,493,827,498
493,489,497,113,495
493,183,494,893,498
493,841,496,388,499
493,305,496,101,496
493,325,494,907,494
491,823,493,125,494
491,227,495,187,494
492,593,495,908,494
492,597,493,118,494
494,212,494,863,494
494,856,496,566,497
493,394,501,106,474
491,268,482,893,513
496,848,493,185,501
496,241,498,96,494
492,600,504,920,490
493,522,496,121,466
499,149,518,899,496
495,830,496,517,519
494,360,514,106,519
496,221,504,900,498
495,779,492,167,488
491,162,494,100,480
495,415,506,927,511
498,706,497,113,503
495,218,484,655,481
489,750,512,750,493
495,365,499,111,509
493,147,494,895,494
491,806,496,323,494
490,222,496,106,495
490,259,494,910,496
492,741,495,119,498
492,251,494,290,498
493,671,492,911,493
492,616,494,117,495
495,218,492,884,497
492,850,492,510,495
492,354,494,107,490
492,209,491,896,498
491,731,493,161,498
493,119,492,100,495
494,367,490,917,496
492,619,494,124,496
494,136,492,658,494
492,725,491,746,492
492,424,494,112,492
493,173,492,896,496
492,812,492,313,494
493,239,494,109,491
492,313,494,911,496
493,776,493,118,498
494,199,492,294,495
495,617,494,916,495
492,548,493,122,496
494,184,493,898,493
492,839,492,489,498
493,345,491,112,496
494,271,495,911,497
489,833,494,168,495
492,234,492,98,493
494,698,495,912,495
493,513,493,112,494
494,181,493,901,494
494,841,492,435,496
491,330,491,103,493
492,289,494,900,495
490,821,495,132,497
492,218,495,99,494
493,732,493,831,497
492,495,492,115,496
492,182,493,906,496
492,841,495,393,496
491,307,493,112,492
492,311,491,910,495
495,820,494,130,495
493,220,492,150,495
492,562,493,912,494
493,613,494,123,495
490,197,494,849,494
493,842,493,576,494
492,389,494,108,497
492,258,493,908,497
491,841,494,222,495
493,238,493,98,494
493,602,493,910,497
493,572,493,116,496
495,194,493,884,495
492,836,490,531,495
495,375,495,110,494
491,268,494,892,497
492,841,493,182,498
493,241,494,104,495
493,444,493,926,496
492,730,494,113,495
492,223,491,626,497
494,779,490,775,505
496,492,504,109,493
495,235,485,908,497
494,901,502,342,488
496,331,491,108,479
495,310,492,903,492
496,775,521,127,498
496,218,503,238,494
495,637,499,928,495
493,608,509,121,502
496,153,525,857,484
494,791,500,555,493
502,324,497,100,481
497,251,485,901,491
497,802,493,210,496
493,130,531,103,490
493,339,494,902,494
496,669,507,115,502
492,167,495,577,514
491,707,492,807,493
492,395,495,110,497
492,111,496,908,496
493,823,493,377,499
492,310,494,98,499
494,483,491,908,502
491,752,494,127,500
491,244,494,630,495
493,800,495,760,495
493,507,490,102,501
491,241,488,901,498
491,869,490,337,496
492,308,491,104,496
493,342,491,912,501
491,813,491,112,499
491,180,492,248,500
492,573,490,914,495
491,557,490,106,497
492,192,491,891,495
491,854,492,520,496
492,338,491,112,494
494,225,491,913,496
491,805,493,164,496
494,229,493,100,494
492,464,493,908,495
492,690,493,126,494
492,200,493,671,495
493,788,493,741,493
492,467,494,124,494
492,218,492,902,493
494,846,495,318,498
494,278,494,114,497
493,344,492,912,495
492,831,494,128,496
492,233,492,311,493
492,658,494,913,491
491,567,493,110,496
492,189,493,905,494
493,841,496,504,496
491,358,494,108,496
491,279,493,908,496
494,846,496,164,497
492,228,494,97,498
492,669,494,909,497
491,529,494,109,494
493,186,493,904,497
493,846,493,454,494
491,332,494,94,496
492,378,493,904,493
493,754,493,115,494
492,203,493,519,495
491,737,493,847,495
491,512,495,108,496
491,201,492,895,498
492,836,492,413,495
493,321,494,105,495
492,317,491,902,495
490,830,492,130,495
493,215,493,113,496
493,559,492,919,495
491,647,492,124,496
491,215,493,835,495
492,860,493,597,498
491,431,495,90,495
493,382,494,899,494
491,851,493,127,498
493,250,490,215,494
494,657,506,916,485
494,650,496,110,505
496,243,480,868,494
492,867,494,549,491
491,343,500,105,493
496,244,510,912,479
497,850,499,198,507
496,247,490,101,480
493,400,515,928,497
497,677,498,126,489
491,179,489,628,494
497,783,488,783,527
495,512,494,114,504
496,230,528,897,491
494,867,494,350,487
495,299,493,103,496
495,304,494,901,496
495,827,499,115,496
494,249,494,216,495
494,648,494,917,498
494,625,494,114,495
492,217,493,874,500
493,884,494,556,499
492,425,493,114,497
491,302,489,902,495
493,861,492,196,500
493,231,491,96,496
494,610,502,925,479
492,527,490,115,499
492,157,490,887,496
493,823,490,505,500
491,322,492,96,497
492,305,489,918,495
494,763,493,129,495
493,218,490,407,495
492,693,492,918,496
494,537,493,108,496
495,175,492,897,497
493,810,493,450,494
493,306,492,108,497
495,277,493,906,495
492,839,494,126,494
492,228,491,94,494
494,699,494,850,497
491,490,493,121,495
493,191,493,907,495
492,830,493,397,495
492,307,495,97,494
492,408,493,902,494
493,708,494,117,493
493,195,493,591,494
493,756,495,804,497
491,483,493,122,495
494,197,493,912,493
493,852,495,370,498
493,301,493,105,497
495,322,492,918,494
492,804,495,112,497
493,222,493,221,494
492,614,493,904,495
492,599,493,107,496
493,192,494,875,497
492,845,492,542,496
493,385,493,97,495
495,357,493,913,494
493,789,494,113,495
492,221,494,344,494
493,665,495,914,498
493,560,493,106,498
496,203,494,882,495
493,857,494,489,495
494,359,495,116,495
494,280,492,898,496
492,858,493,148,496
492,239,496,95,496
494,672,495,920,493
493,540,496,108,493
493,208,493,892,496
493,848,495,456,496
493,332,495,94,492
491,378,494,905,496
492,758,494,111,497
493,217,492,494,496
493,731,493,861,498
493,520,493,106,496
490,207,493,898,495
492,865,496,397,496
488,333,495,104,495
490,317,497,913,498
494,815,495,135,500
492,186,493,104,497
493,574,488,911,478
488,672,496,127,477
488,240,488,799,508
492,868,489,613,517
496,434,484,114,494
497,229,495,913,510
501,837,494,238,497
499,257,493,103,484
503,385,496,904,503
495,765,498,124,492
493,167,518,493,494
500,671,488,854,492
491,521,518,105,490
496,215,504,908,495
500,842,493,424,506
494,312,497,108,485
501,271,507,912,490
490,809,497,130,453
496,226,499,97,504
497,742,495,801,496
492,485,497,101,500
493,192,495,907,494
493,835,499,375,494
492,327,495,107,497
494,324,493,912,497
494,834,492,130,493
494,240,493,146,497
492,586,489,917,497
493,642,491,122,496
490,212,489,858,497
492,848,487,587,499
493,387,491,120,496
494,202,489,902,496
490,760,490,209,493
492,180,490,87,496
491,563,490,920,497
492,549,491,110,494
493,136,494,891,496
492,793,490,529,494
491,308,492,97,497
493,283,490,911,495
493,735,492,114,495
493,197,494,311,496
491,636,493,907,496
490,541,493,122,494
491,180,491,905,491
493,845,493,497,495
494,359,495,95,494
490,350,493,901,496
493,777,494,117,496
493,207,494,403,494
494,687,493,908,498
493,534,494,109,495
494,190,493,893,497
492,844,495,462,496
495,336,492,113,496
492,290,492,898,495
491,837,493,136,497
493,228,491,92,495
493,719,493,861,493
494,514,495,117,495
494,194,493,905,494
494,842,496,416,497
492,330,494,111,495
495,306,492,908,490
490,837,494,130,496
492,233,493,97,495
493,744,494,837,494
493,494,493,108,494
491,198,493,900,494
493,845,494,386,495
493,303,495,96,495
493,429,493,930,494
494,703,495,122,495
494,194,495,643,493
495,767,492,764,497
492,474,495,104,494
492,197,494,904,497
493,842,494,343,496
493,289,494,97,495
492,470,496,906,494
491,678,495,110,494
494,191,494,688,494
493,798,496,705,494
493,448,494,123,493
491,203,493,896,495
493,848,495,296,494
493,279,493,107,495
494,350,493,913,495
491,783,496,114,495
493,220,494,330,494
492,665,495,910,497
494,553,494,101,495
491,195,494,900,493
494,854,496,483,494
491,367,493,93,498
493,374,495,912,496
493,774,495,118,493
493,222,495,441,494
492,722,493,902,494
492,540,493,119,496
492,203,494,899,495
494,862,493,453,493
492,357,492,116,496
491,300,494,908,496
491,853,492,130,494
493,245,495,97,494
494,737,494,860,495
493,524,496,112,495
492,239,495,891,494
494,900,499,416,507
494,381,495,116,493
494,366,498,914,497
493,882,502,136,497
492,269,487,111,499
495,600,490,910,482
494,649,522,127,489
490,191,501,830,471
496,810,493,605,495
495,393,491,110,480
494,255,502,909,503
496,840,497,225,506
498,220,506,107,485
492,356,489,920,490
494,738,510,128,478
497,202,495,521,489
496,743,495,852,484
495,527,479,113,480
492,223,491,902,490
495,870,503,413,491
495,344,500,105,495
494,330,492,897,496
492,860,494,118,500
492,263,495,92,494
492,788,494,804,497
493,512,491,105,498
495,220,490,910,497
492,873,492,366,499
491,313,490,104,494
491,336,487,908,496
493,809,490,120,500
493,195,489,197,498
493,529,489,916,497
492,522,490,123,497
491,140,490,874,497
493,826,491,548,495
494,370,491,110,496
492,246,491,892,498
491,834,492,184,494
491,233,492,103,495
494,417,492,903,496
494,677,494,108,494
493,175,492,620,494
492,759,491,783,493
493,481,493,112,494
493,194,491,903,496
492,834,491,338,494
493,288,492,108,495
494,329,492,911,494
495,804,494,123,492
494,219,494,243,498
493,618,492,922,497
494,600,495,117,496
493,189,494,875,494
493,840,492,532,497
492,359,493,103,494
492,264,492,904,495
493,865,492,170,496
492,252,494,103,496
495,456,492,919,495
494,723,492,109,496
492,216,492,654,497
493,758,492,774,495
494,480,491,121,495
492,207,492,903,496
493,851,492,333,496
494,290,494,105,493
494,336,490,913,495
491,811,492,115,495
492,224,490,259,495
494,623,493,916,493
491,581,491,119,495
492,198,492,866,491
492,853,493,532,493
493,372,493,117,494
493,263,491,901,494
495,856,492,195,495
493,235,492,101,493
493,427,494,921,495
492,719,493,133,493
495,219,493,631,494
494,766,495,773,493
493,471,496,127,495
494,192,494,912,494
494,858,496,350,499
493,289,496,98,495
495,455,496,912,496
495,688,496,107,495
495,216,496,682,491
495,813,496,752,490
495,496,510,123,496
495,218,491,893,516
500,866,505,336,493
499,276,505,100,493
496,324,514,912,482
496,815,496,129,496
503,206,512,258,491
493,564,483,911,496
497,524,527,124,484
494,149,499,892,487
497,808,500,526,480
494,268,502,118,485
495,168,508,902,473
493,809,501,193,493
493,220,496,101,485
495,434,492,904,492
494,675,502,123,492
493,211,496,670,503
495,792,496,752,496
494,487,493,112,496
496,223,494,907,496
493,873,495,332,494
493,304,491,99,498
497,514,493,912,498
494,690,491,113,495
494,236,492,737,494
494,832,492,683,495
494,450,490,111,498
493,193,491,897,497
494,805,493,277,496
493,172,493,105,500
493,278,491,926,496
492,762,493,125,497
492,215,491,356,496
493,656,492,905,495
492,530,495,110,495
495,189,493,895,495
493,827,492,484,496
493,332,496,90,497
493,352,494,923,495
492,751,493,119,496
494,202,494,439,493
495,686,493,900,496
494,531,493,116,494
495,198,493,899,493
493,840,495,434,496
492,335,495,91,496
495,402,493,926,492
491,751,494,115,494
492,211,492,513,495
494,745,492,850,496
494,510,495,124,492
491,187,493,903,494
492,851,492,406,495
495,316,492,111,496
494,295,492,917,494
492,821,494,130,494
492,235,495,97,494
494,758,492,798,494
494,476,493,104,496
494,191,494,892,496
492,850,492,368,493
492,290,495,95,497
490,442,493,917,495
493,698,492,128,495
493,197,491,655,494
491,765,493,745,498
493,464,493,118,496
492,201,491,889,497
492,836,492,312,497
490,272,492,111,495
494,335,493,913,496
490,787,494,120,495
491,214,491,286,494
493,634,490,922,495
489,562,493,113,495
494,192,490,890,492
492,848,492,516,496
493,373,492,112,495
493,268,490,912,494
493,846,492,162,493
490,238,491,99,495
492,679,491,911,498
491,529,494,122,495
493,188,491,906,496
493,840,490,466,497
491,341,490,98,493
493,383,490,916,496
491,762,492,125,498
491,203,491,479,496
491,713,491,871,498
492,520,491,109,495
492,199,492,900,494
493,841,493,431,496
494,332,492,109,494
493,309,493,916,495
492,836,496,130,495
492,246,494,99,494
493,773,489,816,498
493,523,493,128,495
495,227,492,894,499
493,864,490,374,501
493,316,495,102,496
493,334,497,922,507
491,848,500,123,501
495,233,496,147,490
495,573,484,909,491
490,581,493,114,494
494,197,499,855,499
498,835,499,587,497
496,354,501,100,484
497,208,489,892,483
491,842,503,228,504
493,274,492,102,487
492,442,495,909,495
493,746,485,118,499
499,218,497,563,489
493,771,499,816,494
492,508,496,103,492
494,202,494,913,491
492,880,493,375,495
492,342,493,102,496
493,352,491,908,495
493,837,493,132,496
492,239,492,168,495
492,593,490,900,494
491,615,494,118,500
490,193,490,851,496
491,847,491,595,497
488,402,490,96,498
490,330,491,902,496
492,813,491,130,494
490,232,492,229,495
490,598,491,920,492
491,569,491,116,494
494,161,491,870,497
493,813,491,552,496
492,357,491,94,492
491,316,492,903,492
491,774,494,133,495
492,198,493,317,495
491,637,494,905,496
492,550,494,122,495
493,175,493,897,495
491,845,492,488,497
490,373,494,105,496
492,298,493,899,495
491,842,493,164,495
491,224,492,96,492
493,702,492,897,493
491,515,495,122,495
494,187,494,902,496
491,845,493,439,496
491,336,495,110,495
491,297,492,894,496
490,830,494,122,495
492,237,495,89,496
493,742,495,832,498
491,491,492,107,494
491,190,493,900,494
493,847,493,385,496
491,302,495,109,494
492,310,492,910,494
495,823,494,135,497
494,218,494,171,496
493,579,493,902,495
492,614,496,125,496
494,193,495,844,495
493,849,493,587,493
495,401,496,93,495
495,327,493,909,496
495,807,494,127,495
491,215,493,259,494
492,611,493,924,492
491,567,493,116,496
495,185,493,886,493
492,851,494,533,493
493,363,493,91,496
493,341,493,913,494
491,783,494,120,494
492,215,496,372,495
493,669,493,911,498
493,540,496,106,498
493,193,493,885,498
493,845,494,467,497
492,344,496,105,496
495,295,494,910,494
491,827,494,133,498
492,214,494,105,494
492,500,495,916,495
494,654,495,131,496
495,192,494,744,496
493,815,495,676,495
494,436,493,120,496
494,234,494,889,494
492,848,494,266,497
494,271,496,108,493
494,370,494,919,495
492,785,495,124,495
493,217,495,395,495
493,711,495,916,495
492,564,493,96,495
493,259,493,892,496
493,861,493,218,498
493,271,493,105,496
492,407,493,901,495
491,755,494,124,497
492,218,495,518,495
494,746,495,832,494
491,514,496,105,496
492,204,494,893,497
493,856,496,386,495
492,314,496,105,496
493,315,492,915,495
492,839,494,127,496
492,226,493,136,496
495,557,493,912,495
492,619,494,122,494
491,210,493,835,494
492,842,494,595,497
494,393,496,109,495
491,255,494,908,496
494,846,494,212,497
493,251,493,96,494
494,592,495,918,498
494,582,496,118,494
492,187,494,874,495
493,836,491,554,496
492,378,495,110,496
494,260,494,901,495
492,846,494,200,497
493,227,495,99,495
495,625,494,920,496
494,552,493,121,496
496,184,494,895,494
493,833,494,501,497
493,355,492,110,495
495,267,495,905,496
493,833,493,168,496
492,224,493,94,494
493,689,495,917,500
493,527,493,108,495
493,192,493,891,494
491,845,496,450,497
492,339,492,109,495
492,288,492,914,495
492,831,493,137,495
492,226,494,95,496
494,704,493,867,493
493,517,493,117,495
494,195,493,893,495
493,840,494,426,497
493,320,496,112,496
492,294,491,910,497
493,837,495,123,497
492,224,491,100,495
491,518,493,918,496
492,646,493,116,495
494,210,494,760,498
494,828,492,644,497
492,415,493,97,495
494,321,491,919,495
491,826,494,127,494
493,223,494,162,495
495,574,494,908,495
492,600,495,121,495
492,195,493,845,494
493,846,494,584,495
493,398,495,108,494
495,258,493,893,496
492,841,495,195,495
492,248,495,95,494
495,628,493,916,495
493,567,494,113,496
495,175,494,875,498
492,836,495,527,496
492,372,494,102,495
492,270,494,905,496
492,842,493,176,498
492,231,493,97,494
495,662,494,922,497
492,543,492,123,496
491,191,494,896,496
493,840,496,477,498
495,346,494,105,496
495,278,494,903,495
495,828,495,142,497
493,225,493,101,495
494,491,493,905,495
494,677,496,114,496
495,198,493,713,496
494,802,494,698,497
495,443,496,114,496
493,217,494,906,496
494,857,495,276,496
494,264,494,104,496
496,347,493,920,494
494,784,493,130,495
494,227,491,364,497
493,674,493,913,494
493,546,495,99,495
493,256,492,912,494
493,851,492,228,496
493,260,492,98,498
495,568,493,906,496
492,606,493,115,497
495,196,493,837,495
494,838,493,590,497
495,394,492,97,494
496,326,492,915,495
494,803,493,129,495
493,230,493,214,494
494,601,492,909,495
494,582,492,117,496
495,184,493,859,495
494,846,495,537,497
493,376,493,111,494
493,262,493,906,496
495,856,492,196,498
494,251,492,97,496
492,633,493,916,497
492,568,494,120,496
493,191,494,894,498
494,833,495,501,497
493,356,493,99,494
495,355,495,905,495
493,785,495,122,496
493,215,494,387,494
494,687,496,917,497
493,549,494,122,497
494,185,494,899,496
493,848,496,462,493
495,361,497,112,495
493,284,493,917,493
495,830,496,131,495
495,231,495,98,497
496,713,495,887,496
495,515,496,112,495
494,184,495,906,495
494,844,496,438,494
492,336,495,97,497
494,391,494,905,495
494,742,495,124,498
494,198,494,518,495
494,745,495,838,494
493,514,498,109,495
493,196,494,902,497
494,837,496,408,494
492,332,495,104,495
495,310,496,907,495
495,829,496,128,496
494,225,495,105,494
494,549,495,923,495
495,634,495,115,496
494,203,495,799,497
494,849,497,629,497
494,416,496,116,495
493,236,495,907,496
495,855,494,248,493
494,265,495,110,495
495,378,494,919,495
492,760,494,126,495
493,203,493,479,495
493,706,494,883,496
493,520,493,99,496
494,259,494,905,495
494,848,495,221,498
494,262,495,101,497
496,413,495,907,497
493,746,494,124,497
493,217,494,566,495
493,759,494,817,495
492,510,497,101,496
492,203,495,894,497
494,863,496,384,494
494,336,494,108,497
495,328,492,904,494
491,842,494,114,495
493,245,493,129,494
492,574,495,926,495
493,634,495,128,495
493,215,494,805,496
493,856,497,604,494
492,424,494,113,496
493,265,494,894,495
494,865,495,232,495
493,267,493,95,497
495,598,494,918,497
492,590,496,117,495
494,190,494,870,495
493,833,496,555,494
491,360,495,111,495
492,237,493,892,494
493,814,494,183,497
492,217,496,96,497
495,613,493,918,497
493,554,497,124,495
493,180,495,895,495
493,830,493,508,494
495,364,495,109,493
492,272,495,912,496
492,838,494,164,496
492,228,497,103,494
493,453,496,925,494
491,696,495,112,495
494,209,495,674,496
493,793,495,741,499
491,467,495,117,494
493,211,494,909,495
492,850,495,311,497
493,290,493,98,496
495,488,494,926,496
491,664,494,120,496
492,210,494,713,494
494,831,495,689,497
494,442,494,113,495
494,223,493,911,495
494,859,496,296,496
492,278,498,102,493
493,354,495,910,497
494,784,498,130,502
495,234,500,355,496
497,684,476,914,497
496,540,500,106,491
495,179,496,899,478
493,846,520,477,496
496,337,503,94,490
494,360,511,920,479
493,705,521,117,489
496,145,485,429,488
493,709,512,909,498
493,508,511,113,477
490,134,494,914,496
495,758,489,437,493
499,300,494,105,484
492,276,503,909,492
491,824,500,133,496
493,219,496,108,494
495,506,495,922,496
492,642,496,131,493
495,202,495,759,493
492,843,494,663,496
491,436,493,93,499
493,299,492,906,497
489,819,492,128,493
491,226,491,117,496
494,551,490,903,494
492,610,493,123,496
493,182,489,810,495
493,835,488,598,492
493,388,488,91,496
492,309,490,894,496
491,788,490,114,499
492,183,492,205,495
494,546,491,905,495
493,562,492,119,495
493,173,491,857,494
492,807,489,547,494
493,355,491,95,494
492,320,493,898,496
492,772,492,123,496
493,204,490,290,496
493,626,492,919,495
492,574,492,114,494
493,191,492,891,492
494,843,492,527,495
494,367,491,92,496
495,339,492,904,494
493,793,493,122,495
492,224,493,344,496
492,653,490,908,491
494,550,495,127,494
493,211,491,898,491
491,877,498,483,475
720,356,487,117,497
493,297,488,904,501
491,851,489,156,498
492,242,489,101,502
493,494,489,926,498
492,675,491,127,499
495,216,490,703,497
493,819,492,705,496
492,459,491,119,496
494,223,491,899,496
492,858,492,296,499
493,277,492,97,496
493,510,491,901,495
494,646,492,122,495
494,197,491,775,494
494,823,492,656,496
493,428,493,125,494
496,226,491,907,493
495,828,492,249,493
495,256,492,103,495
494,376,491,913,494
493,754,492,127,494
494,221,493,460,494
494,728,493,902,496
494,543,493,116,497
493,212,493,889,496
494,881,498,434,495
492,373,496,114,482
494,326,490,904,474
493,867,489,128,475
493,255,561,97,524
500,726,494,847,488
501,486,489,102,479
500,145,495,891,492
496,825,490,415,490
491,313,497,112,493
498,244,512,898,488
498,763,508,129,495
505,198,493,116,490
498,490,507,900,508
499,591,491,123,485
498,181,500,792,490
494,838,498,609,492
494,365,507,107,503
495,198,500,915,501
493,862,497,223,500
494,280,505,95,494
495,555,498,903,497
493,586,496,119,498
495,204,495,857,501
493,882,493,591,500
493,450,494,97,500
494,376,492,901,498
493,834,495,116,499
492,224,494,227,497
496,609,492,924,497
492,591,493,113,500
493,206,492,866,497
493,838,490,550,494
492,375,492,108,493
494,218,491,912,495
492,790,492,176,494
495,212,493,104,493
494,428,493,913,496
492,713,493,126,492
494,189,493,625,492
493,734,495,773,497
494,459,494,111,490
494,198,494,909,494
493,852,493,347,494
494,290,493,107,496
492,316,490,912,495
494,792,494,128,495
492,210,494,210,495
492,596,493,914,496
494,602,495,117,494
493,190,493,871,494
494,847,493,558,492
495,399,492,94,497
496,344,494,903,495
494,802,495,120,494
493,217,492,274,494
492,633,493,918,495
494,577,494,102,494
493,206,494,896,494
493,853,493,518,494
491,370,496,104,494
493,278,493,898,494
495,849,493,171,497
494,225,493,93,494
492,654,491,914,492
492,536,496,108,493
492,189,492,905,494
492,841,492,473,496
494,343,494,103,495
494,278,492,901,493
491,827,491,158,493
493,222,491,95,495
494,691,492,902,498
494,523,492,108,494
493,182,492,886,496
493,840,491,423,494
491,326,491,95,496
493,392,493,923,495
490,738,494,126,495
492,208,492,530,495
493,735,492,836,495
492,503,494,96,496
492,256,493,894,496
491,834,493,198,495
494,242,492,98,496
492,625,492,908,498
492,564,492,104,496
495,184,492,889,493
494,840,495,495,497
492,371,494,100,496
492,277,493,907,494
491,840,492,180,495
492,242,494,90,495
492,658,493,916,495
493,552,492,103,495
495,195,493,887,495
493,846,493,479,494
492,364,494,96,495
494,380,492,893,494
495,781,495,127,494
493,224,495,445,495
495,717,493,906,496
494,536,497,104,495
493,205,494,896,494
493,863,496,445,496
493,348,495,109,494
493,308,493,904,495
496,851,495,153,495
492,246,496,107,492
494,523,495,911,496
495,671,496,118,496
495,208,494,755,495
494,837,494,671,494
493,439,497,96,497
492,320,496,910,493
492,831,495,140,495
493,241,494,104,494
494,557,495,907,497
493,632,494,125,497
494,200,495,804,498
494,849,496,604,495
495,411,494,99,496
494,339,495,909,495
493,819,495,113,495
494,228,494,199,494
493,600,494,919,497
494,614,494,115,496
497,198,494,880,496
494,847,497,559,496
494,396,495,118,495
493,266,493,900,495
493,848,495,201,493
493,251,494,101,495
493,435,495,904,496
493,734,496,123,497
495,210,494,614,495
493,766,493,777,498
494,495,493,113,494
494,203,494,897,492
493,844,494,368,493
494,305,493,105,492
492,335,494,908,495
492,819,495,126,496
493,215,493,206,493
495,598,494,912,497
492,612,494,120,496
491,202,494,855,496
493,845,495,569,495
494,401,496,99,496
495,347,493,911,495
493,806,496,126,495
493,224,495,266,494
492,624,494,912,497
494,593,495,119,496
495,202,494,890,496
492,851,494,526,494
493,378,496,101,493
492,273,493,911,493
492,851,493,201,495
491,242,494,104,495
495,440,496,930,495
491,724,493,121,493
492,223,492,634,494
493,790,499,781,505
496,486,503,112,492
495,144,508,890,497
498,806,513,340,507
495,278,498,102,496
499,305,479,905,494
493,770,488,125,503
497,176,506,230,507
500,562,501,925,489
494,540,480,134,496
497,151,503,894,494
497,823,485,551,495
493,398,497,121,498
493,276,492,894,500
494,816,503,208,497
494,233,486,109,498
491,433,504,916,500
497,754,499,129,502
493,241,490,589,495
492,792,506,803,493
490,496,486,106,494
492,227,493,899,494
493,867,494,368,492
493,331,496,107,495
495,340,495,913,499
493,831,494,134,498
492,231,493,176,495
494,589,491,903,497
493,602,490,118,495
491,190,491,854,495
491,830,493,564,495
490,364,490,95,496
490,312,488,897,496
491,776,491,126,498
491,200,488,278,495
491,618,489,910,495
492,547,489,124,494
495,171,490,901,494
492,831,490,516,497
493,351,490,111,493
493,248,492,897,496
490,830,492,174,494
491,237,491,93,492
491,627,492,925,495
493,517,494,104,496
491,190,492,886,494
492,844,493,478,497
492,352,493,91,498
491,374,492,915,496
493,794,493,119,494
492,228,492,415,496
493,696,491,909,495
491,544,494,119,494
493,211,492,907,494
491,858,493,455,495
491,362,494,111,494
494,302,492,908,493
494,853,492,146,493
492,232,491,93,494
491,726,492,878,493
493,522,495,125,494
494,199,493,913,493
493,842,492,424,492
492,335,492,100,495
493,307,492,913,492
492,836,492,117,497
490,231,490,88,497
492,738,491,823,493
490,497,492,110,495
492,199,491,909,494
492,855,493,398,498
490,318,491,102,496
492,317,490,910,496
493,831,492,127,498
491,234,490,120,496
493,563,493,925,497
492,623,493,118,495
491,207,492,810,495
492,844,493,611,495
492,412,493,115,496
493,255,492,910,498
491,848,492,213,496
492,257,493,96,496
492,585,491,897,497
493,593,494,125,495
494,187,493,863,496
492,841,493,559,498
490,386,490,112,496
493,261,491,913,495
492,840,492,214,496
493,241,493,97,494
492,626,493,924,494
494,554,495,119,495
495,180,494,899,497
492,840,493,507,496
493,367,495,110,494
492,277,493,896,495
492,837,494,156,496
491,231,493,97,495
491,662,493,913,496
492,529,496,108,495
496,186,492,902,492
493,836,493,474,495
493,342,494,105,494
495,278,495,907,494
491,831,495,159,495
491,229,494,95,494
493,697,494,891,495
494,515,495,111,494
496,200,493,893,497
492,845,496,431,496
494,332,497,100,494
494,297,496,913,495
496,825,496,134,496
493,225,495,91,496
494,726,496,838,496
494,500,493,110,496
494,191,495,887,497
494,846,495,385,496
494,308,493,111,495
494,312,496,910,496
496,826,494,131,494
494,225,495,142,494
493,562,496,918,494
494,624,494,114,497
494,196,493,821,496
492,846,493,600,496
494,405,493,111,495
493,239,493,909,494
492,841,494,225,495
495,260,492,105,496
495,396,494,922,496
494,767,496,122,496
495,218,489,527,498
496,736,495,862,511
496,491,488,114,493
495,166,486,898,495
495,835,501,402,491
501,319,498,100,513
500,281,511,904,491
496,796,494,139,455
499,191,494,146,488
496,511,505,929,490
493,564,529,120,485
500,171,500,834,502
496,854,496,603,516
493,423,495,121,503
495,229,513,899,493
493,858,496,246,494
492,272,495,111,488
495,403,495,923,495
495,780,494,122,496
493,224,495,511,495
494,744,494,845,496
494,526,493,111,496
493,196,487,886,496
492,836,492,418,498
492,324,492,112,496
491,297,489,896,497
491,827,491,125,498
492,215,491,100,495
491,527,490,919,494
491,603,491,119,494
493,156,492,804,496
493,815,492,626,497
490,395,493,110,495
495,227,492,890,493
490,840,492,221,496
492,251,492,103,496
493,396,491,917,495
492,767,492,110,494
492,225,494,478,495
491,740,490,877,493
490,536,493,114,494
491,195,492,886,497
491,851,491,429,494
492,344,494,106,493
491,312,493,911,495
490,844,491,137,496
491,240,491,103,494
493,540,494,925,493
492,642,492,127,494
495,215,493,787,494
494,865,494,640,496
494,436,493,103,494
496,249,492,895,494
493,861,494,240,495
494,281,494,105,498
494,405,491,920,495
492,779,493,107,495
492,234,493,453,493
495,733,494,895,494
494,554,494,111,495
493,216,492,894,493
493,869,496,442,493
490,356,493,110,492
492,322,491,896,493
493,849,492,126,496
491,248,494,89,494
494,752,492,840,494
491,524,496,113,494
491,211,492,899,493
493,857,492,397,493
494,332,495,104,496
492,325,492,903,496
494,835,494,108,494
491,231,493,129,495
493,570,491,918,495
494,630,500,121,496
495,207,491,825,495
494,854,504,599,459
493,425,493,111,479
490,263,500,917,503
497,820,488,235,493
492,208,503,106,493
499,380,498,915,507
498,754,474,128,490
494,203,496,516,489
498,704,495,851,482
495,460,499,117,500
500,191,497,908,481
493,842,492,388,498
496,321,481,101,498
496,297,493,901,495
495,817,497,122,511
494,210,496,134,498
497,554,495,911,499
492,601,495,109,497
495,188,494,798,501
494,841,495,612,500
496,408,492,112,499
493,245,492,892,499
492,841,492,218,496
493,257,492,111,498
495,386,491,918,496
493,730,492,113,495
493,192,493,515,495
493,699,492,850,495
491,488,492,113,494
493,183,491,888,495
493,832,494,395,494
493,317,492,108,493
492,300,492,902,493
491,820,493,128,495
492,221,494,120,494
494,559,493,905,493
492,617,493,119,495
491,201,492,809,495
493,846,494,591,495
491,407,494,102,494
490,260,492,904,494
492,852,493,225,493
490,254,492,96,495
493,615,494,923,493
493,578,492,126,494
495,192,493,895,495
494,849,493,518,496
492,377,492,118,493
494,271,492,906,493
492,848,495,169,494
492,226,497,96,492
492,679,493,910,496
492,540,497,112,494
491,192,494,888,495
494,847,497,474,496
494,343,494,109,494
495,283,493,909,495
491,836,495,153,497
492,234,494,92,495
494,721,495,870,495
492,514,496,112,494
492,196,493,891,493
493,848,492,414,494
494,319,497,102,493
492,305,493,903,495
491,825,492,129,492
491,238,493,122,493
495,568,492,920,494
493,633,494,132,496
495,210,493,787,494
494,846,492,615,495
495,419,491,101,495
493,249,491,896,495
492,856,491,222,496
493,257,494,108,496
495,396,493,922,496
491,759,494,119,495
494,220,492,486,496
494,736,492,863,497
493,521,493,117,496
496,200,491,901,495
493,847,492,410,497
495,321,494,112,495
496,311,490,920,496
494,833,493,124,495
493,230,495,100,495
493,551,493,918,495
493,634,493,123,494
492,206,493,814,496
493,842,492,610,494
494,414,493,106,494
494,249,491,909,496
492,845,494,219,495
492,262,495,99,494
494,589,493,923,495
493,596,493,108,496
493,184,494,874,495
493,841,493,561,497
496,381,494,102,496
495,259,494,903,497
494,849,494,201,497
493,242,492,97,497
496,637,494,920,498
493,566,493,109,496
494,199,494,884,495
493,847,497,511,494
492,374,494,100,494
494,281,494,893,496
492,844,495,150,496
493,227,496,93,494
495,689,495,908,495
493,528,496,119,496
492,195,492,894,495
494,848,494,442,497
493,340,492,104,496
495,295,492,899,492
494,847,495,131,495
493,230,493,92,495
494,730,495,865,495
492,515,496,114,495
494,207,494,904,492
494,849,497,409,493
493,331,496,103,495
493,311,496,896,495
493,830,499,135,498
493,237,500,107,495
498,556,501,925,503
493,637,493,127,495
496,197,496,812,487
501,821,489,620,492
493,402,500,105,506
494,230,499,896,486
497,828,505,234,483
497,247,490,100,495
497,375,503,903,514
499,748,504,111,496
498,208,503,518,494
497,707,524,863,500
495,481,487,121,470
496,179,504,905,484
493,832,499,403,509
492,316,501,111,494
495,316,498,905,493
496,796,498,125,499
493,217,495,139,494
494,560,496,924,495
493,621,497,127,496
493,189,493,815,497
493,837,492,600,500
494,415,491,98,492
493,340,490,898,495
492,820,491,112,498
492,217,490,223,496
491,597,491,923,495
490,574,494,108,496
491,162,491,879,496
491,811,491,533,493
490,341,491,110,493
488,224,492,894,494
492,812,490,182,494
492,218,492,100,495
493,414,491,899,496
493,706,489,121,496
492,199,492,610,478
490,772,496,791,515
492,472,489,98,499
494,269,490,915,499
493,833,491,185,500
493,222,493,102,500
494,464,492,924,497
493,680,492,122,500
494,201,492,692,502
494,797,492,704,498
495,451,492,109,495
492,211,492,889,496
493,846,495,292,497
491,269,492,101,496
494,348,495,920,493
493,801,493,122,495
493,221,492,350,494
494,673,494,914,494
492,554,493,121,494
493,204,494,887,491
494,852,493,472,494
492,357,493,101,493
493,293,492,904,494
491,847,492,157,494
493,232,494,99,492
493,704,494,885,498
495,508,494,104,494
494,178,493,885,497
492,833,491,423,496
492,310,494,115,493
495,288,491,919,495
493,817,492,121,496
494,229,494,95,496
493,749,493,805,496
492,484,491,126,495
492,196,491,906,496
493,841,493,374,498
493,302,494,95,494
493,451,496,915,495
493,699,496,114,494
494,202,493,656,495
493,789,498,739,499
496,476,490,106,497
497,239,493,894,499
497,861,485,320,510
493,226,517,105,493
497,284,502,924,494
497,800,499,129,499
494,226,507,317,494
494,606,501,912,506
498,497,485,117,494
498,156,486,903,488
493,834,499,498,498
497,366,502,106,481
495,267,517,896,492
496,839,505,159,497
494,223,498,99,493
493,677,499,916,495
493,529,500,118,494
493,185,496,905,496
493,850,492,452,496
493,338,495,104,496
491,296,494,909,495
490,852,491,134,496
491,243,490,102,496
490,521,491,910,498
492,660,490,113,495
493,200,491,729,496
492,813,490,682,494
490,436,492,113,495
493,224,490,909,491
491,843,491,278,493
494,261,489,99,495
493,526,490,906,495
493,653,492,121,495
494,206,490,802,494
493,848,490,614,499
494,417,491,118,496
495,244,491,896,496
494,853,493,229,500
495,259,492,99,498
456,608,552,904,501
493,604,492,120,499
493,198,491,868,499
493,848,492,563,495
491,396,493,109,496
493,265,491,913,495
493,854,494,217,496
492,247,494,89,498
492,626,494,912,492
490,568,493,114,496
495,203,492,889,495
493,854,495,506,496
494,370,494,111,496
492,276,494,897,495
491,850,494,173,495
492,243,495,96,494
494,690,495,914,495
493,549,494,124,493
493,213,494,893,492
494,855,496,456,494
493,353,494,99,496
494,392,496,902,493
494,771,493,130,495
494,225,495,491,494
494,737,495,872,493
493,527,494,110,494
494,195,494,888,496
494,848,496,426,492
493,330,493,95,496
495,414,494,919,494
494,741,494,125,493
492,205,493,600,494
494,754,493,799,497
493,493,494,120,495
496,202,492,905,495
494,852,496,364,495
494,308,495,103,493
493,330,492,913,495
494,812,492,117,497
492,234,492,220,496
495,605,494,920,494
492,599,494,116,495
493,205,495,880,494
493,852,494,548,495
492,387,493,101,496
495,267,494,913,495
493,855,495,203,495
492,249,495,94,494
494,646,493,912,497
492,562,496,116,496
492,201,493,897,496
495,847,495,485,493
493,365,495,112,495
493,279,494,891,494
492,840,492,152,496
492,237,496,107,494
494,484,493,921,495
495,681,496,128,495
493,211,493,698,496
495,808,496,699,496
492,447,496,105,495
493,222,495,899,494
493,845,495,287,494
493,270,495,106,494
495,356,494,913,496
491,793,496,130,497
494,224,493,349,496
495,670,496,917,498
495,557,494,122,496
496,198,494,890,497
493,847,496,475,496
495,350,493,118,497
496,291,499,908,505
495,847,494,143,497
496,235,516,94,487
495,706,501,890,491
497,470,516,106,525
497,127,493,908,499
497,799,511,418,488
496,274,498,102,517
496,282,503,899,482
493,813,516,130,485
495,202,517,100,487
502,527,509,897,503
493,624,519,124,500
502,202,507,796,493
493,831,498,630,488
497,403,512,109,504
495,210,502,911,496
493,822,497,253,493
495,238,496,98,494
494,549,490,913,494
491,606,495,113,495
492,190,494,826,501
492,843,503,596,497
493,379,496,102,501
492,227,490,909,501
492,827,491,204,500
492,226,490,96,499
494,587,488,910,497
492,562,493,131,496
494,164,492,899,493
493,827,493,522,495
493,332,492,97,497
492,311,488,900,496
492,779,491,125,494
492,212,490,338,494
491,643,491,918,494
491,546,490,109,493
491,193,491,890,490
492,849,490,474,494
493,350,494,107,496
492,282,490,911,494
491,839,492,141,493
491,231,494,96,494
492,704,494,883,494
491,522,494,119,493
492,192,492,893,494
492,845,492,433,497
493,328,491,102,497
493,295,491,912,496
491,831,493,143,494
491,227,491,102,494
493,540,493,911,495
493,637,495,127,494
495,195,494,783,477
495,840,492,620,496
495,421,491,108,496
492,242,492,904,494
493,858,492,242,495
491,259,494,105,497
494,391,491,914,495
492,763,493,122,495
492,226,491,491,494
494,737,493,862,498
493,518,493,95,496
493,266,493,898,496
491,854,494,195,494
491,254,495,98,495
494,632,495,898,494
491,578,494,104,496
491,198,494,891,494
493,854,494,511,493
492,375,493,96,496
494,359,492,916,494
493,787,496,130,493
492,223,496,385,495
492,686,495,915,493
491,559,494,119,497
494,215,494,903,497
493,857,493,460,495
493,362,495,105,495
494,298,494,897,495
491,848,495,141,496
493,238,494,92,497
494,721,495,868,498
494,513,496,112,494
492,200,496,907,492
493,852,496,415,493
493,322,501,103,490
499,312,495,920,501
494,817,503,113,495
496,192,496,106,476
498,495,491,926,485
492,586,511,120,483
493,184,511,801,509
497,827,479,616,494
495,355,503,95,499
499,249,491,900,486
495,747,492,141,482
499,156,518,216,504
496,528,495,916,495
493,534,494,132,491
494,102,498,880,491
494,775,496,549,494
492,339,501,104,495
493,239,495,912,495
492,833,495,177,496
492,225,489,103,496
492,428,494,916,495
492,714,491,127,499
492,214,490,644,497
495,776,488,749,494
495,466,488,115,495
491,197,489,913,494
491,821,492,334,497
490,250,490,104,493
491,318,487,908,494
493,778,491,129,497
491,205,490,295,495
492,633,490,913,496
490,565,492,112,495
491,185,491,896,494
492,836,493,493,494
491,360,490,111,491
493,285,491,892,495
493,840,492,181,496
492,225,494,90,496
491,673,493,903,495
489,530,491,110,494
491,200,493,904,492
493,840,494,465,497
491,344,492,112,493
494,293,493,909,494
494,844,493,147,496
493,231,493,95,493
491,728,493,868,494
492,522,494,118,495
491,203,493,889,494
492,845,494,405,497
494,323,493,105,493
493,316,491,899,493
490,834,493,136,494
493,228,494,117,496
495,563,493,913,496
492,639,493,112,494
492,209,494,799,493
494,856,492,617,496
494,414,491,96,499
494,331,490,913,492
493,821,493,131,495
492,230,493,215,495
493,600,491,904,495
492,603,492,122,495
492,207,493,870,495
492,852,492,554,496
491,394,493,123,494
491,269,491,903,496
493,849,492,200,498
494,242,491,104,496
496,428,494,916,495
492,723,492,126,495
492,214,492,603,494
494,768,491,783,497
493,490,492,99,497
494,280,492,902,495
492,843,492,185,496
493,229,494,94,498
493,677,493,920,497
493,535,492,111,494
496,201,492,886,495
493,845,494,451,496
493,343,494,94,498
493,381,494,913,497
492,753,493,120,498
493,211,491,492,495
495,727,493,869,495
492,515,495,108,495
493,204,493,910,497
495,849,492,407,498
493,319,493,103,497
495,311,495,911,495
491,829,494,120,496
494,232,492,124,497
495,563,493,906,496
492,623,492,114,496
492,193,493,810,495
493,844,496,588,495
495,403,494,110,495
493,246,493,893,500
494,847,496,238,499
493,264,494,93,505
493,588,498,915,520
494,593,508,115,495
495,176,497,884,484
493,818,507,537,496
498,381,507,108,494
498,250,499,913,487
501,840,507,178,520
491,211,504,96,508
498,544,498,911,493
494,457,510,121,489
504,142,499,898,488
496,791,520,486,505
494,308,502,103,519
503,191,515,899,489
491,721,507,148,497
494,144,489,99,518
502,668,499,900,494
494,500,498,103,495
496,170,493,899,496
495,831,497,435,494
494,320,495,111,493
495,290,496,907,496
494,854,494,132,499
493,245,494,103,497
493,539,494,926,499
493,662,494,113,498
492,224,490,752,495
492,874,491,653,498
494,455,490,115,496
493,252,491,886,496
492,851,492,252,498
492,263,491,98,495
493,559,491,926,494
492,603,494,111,496
495,186,490,852,493
493,841,493,575,496
493,388,491,101,495
491,255,491,898,493
492,853,492,216,494
490,245,493,98,495
492,617,491,905,493
493,587,492,103,496
493,202,492,894,494
493,847,492,528,496
493,384,494,101,495
494,278,494,904,496
492,853,493,160,496
491,245,495,88,496
493,672,493,918,497
493,550,494,107,495
495,199,493,885,494
492,848,492,467,497
491,355,494,101,495
493,294,492,907,494
492,843,493,131,496
491,237,493,107,493
492,502,495,916,496
492,667,493,122,494
494,207,493,738,494
493,820,491,687,497
495,444,494,115,494
494,225,493,891,495
492,857,492,279,495
491,278,491,107,493
493,363,494,926,495
493,776,493,133,495
492,190,495,395,496
493,669,495,910,495
492,534,492,112,495
492,201,492,889,498
493,858,492,456,496
493,354,490,95,497
496,398,493,910,493
492,766,492,110,495
493,226,493,516,494
494,749,492,851,493
493,520,491,120,494
496,209,491,901,495
494,860,494,395,496
492,325,492,108,496
494,323,490,910,493
492,829,492,122,497
492,232,493,149,494
493,578,493,920,493
493,624,495,125,496
493,206,493,829,495
494,853,495,585,496
493,405,492,117,494
495,256,492,907,495
495,851,493,214,497
494,257,492,95,494
492,617,493,920,495
492,582,493,122,494
492,197,493,902,494
494,848,493,521,495
493,372,495,95,496
493,352,494,916,495
492,783,493,105,494
492,221,496,329,495
493,664,493,916,495
493,553,492,128,494
497,193,494,898,495
494,849,493,479,497
493,356,492,102,493
493,283,495,899,495
492,838,495,159,495
492,240,493,86,494
495,707,494,902,496
494,528,496,111,495
496,202,494,892,495
493,852,494,437,494
493,342,493,103,494
494,309,494,905,493
492,842,494,121,495
493,237,495,99,494
494,759,495,813,495
494,506,497,120,495
493,204,494,906,496
495,855,494,379,497
495,322,493,103,494
495,325,493,906,494
493,831,494,123,494
494,233,496,155,495
494,582,494,913,492
494,624,496,129,497
494,205,495,829,499
494,856,495,578,496
497,395,495,99,506
494,341,504,915,504
499,801,499,116,495
500,202,495,276,482
497,610,503,907,491
504,551,482,117,499
500,166,478,888,501
494,820,506,512,484
496,363,504,109,493
496,240,503,899,473
497,776,494,164,489
494,206,479,96,494
497,639,490,915,493
491,486,504,123,492
493,65,491,910,502
495,740,497,230,495
495,230,501,109,497
495,359,495,898,496
491,738,497,117,497
495,208,497,445,496
491,708,495,887,499
493,524,493,115,495
493,205,492,909,497
492,878,493,421,497
492,355,493,104,497
493,325,493,910,496
490,849,491,132,496
492,250,489,92,497
492,734,490,806,499
493,478,489,124,497
493,173,489,900,494
491,823,491,368,495
493,288,490,109,496
493,302,492,896,495
493,803,491,126,495
492,212,492,187,497
493,570,492,900,496
492,595,492,115,496
494,195,492,881,496
493,845,494,562,492
491,394,493,94,497
493,339,491,916,495
492,813,493,132,493
492,222,492,292,497
492,645,491,920,478
490,591,499,124,474
487,221,494,902,475
487,857,492,500,476
485,388,492,94,477
487,378,489,904,479
487,794,489,112,481
488,235,490,369,482
489,692,489,921,483
489,557,489,107,484
489,215,490,905,484
489,856,488,458,485
487,366,490,103,483
488,303,489,904,487
487,840,487,136,487
488,238,489,104,486
493,515,491,915,489
491,659,489,113,492
489,211,490,717,488
491,822,490,667,492
491,441,489,97,491
491,309,492,916,491
490,827,491,141,492
492,227,492,102,492
495,549,491,915,492
492,637,490,111,493
494,203,494,798,491
494,848,491,620,491
491,417,494,97,493
495,322,494,903,491
494,823,493,110,495
494,228,493,190,494
496,592,494,917,491
496,610,494,128,493
496,198,494,884,491
496,853,497,559,494
496,388,495,110,493
498,267,494,900,494
497,841,496,175,493
494,240,497,95,493
498,645,496,904,492
497,550,497,125,493
497,189,495,899,494
496,842,495,494,492
497,358,497,112,491
496,276,496,907,492
495,836,495,156,493
495,234,496,96,493
496,692,496,904,493
496,534,498,103,494
495,193,494,893,493
495,842,493,451,493
497,348,497,112,494
495,296,492,895,492
496,840,494,154,496
494,239,497,99,494
496,735,496,857,494
494,522,494,110,494
495,201,494,906,495
496,856,496,420,496
495,338,492,108,493
497,312,493,898,492
496,846,493,134,495
495,240,496,100,495
496,546,494,903,494
495,658,495,126,495
495,220,493,787,494
495,852,496,627,495
495,431,495,107,495
494,254,494,907,495
494,859,494,243,496
494,291,492,109,527
504,389,495,919,523
501,774,495,130,522
501,228,493,469,516
501,726,495,881,514
499,531,496,105,514
500,221,495,897,512
499,865,497,413,457
