Sensor0,Sensor1,Sensor2,Sensor3,Sensor4

492,492,373,492,493
492,494,375,492,494
490,492,384,0,489
492,490,491,454,490
493,492,492,515,491
492,491,491,594,490
495,491,492,633,490
493,491,493,632,491
493,491,493,610,489
494,491,493,516,492
494,493,493,428,491
493,491,493,387,490
492,494,494,369,488
493,493,493,377,491
493,490,493,386,491
495,492,495,422,490
492,491,492,482,491
494,491,493,544,492
492,490,492,617,491
492,491,493,635,490
494,491,491,627,489
493,492,495,578,493
494,493,494,471,491
494,492,493,406,491
494,493,492,374,490
494,493,493,370,490
493,490,492,379,491
493,493,494,398,492
492,490,493,446,491
493,492,492,505,490
490,493,494,578,492
495,490,492,632,490
494,492,494,632,491
492,492,491,620,491
496,492,492,533,491
494,494,492,434,491
492,493,493,392,490
492,491,491,370,490
494,492,492,373,490
492,491,493,383,490
492,491,494,413,489
493,492,493,472,490
493,491,492,535,492
491,492,491,612,490
491,492,494,636,492
494,490,492,628,492
493,491,492,585,493
493,491,493,487,490
493,491,492,410,491
493,492,492,379,491
495,492,493,370,489
493,492,492,378,490
494,493,492,392,490
495,491,494,437,491
493,492,493,500,491
492,493,494,569,493
493,489,492,629,492
493,491,494,633,491
493,493,495,624,492
495,492,495,546,491
494,493,492,445,491
493,493,493,397,491
494,493,491,371,491
492,494,491,373,492
495,491,493,383,489
493,491,495,408,492
492,490,493,463,490
493,491,492,524,490
492,490,493,601,490
492,491,494,634,489
493,491,493,631,492
494,493,493,596,492
493,492,494,502,490
494,492,493,417,491
494,491,492,383,492
495,491,491,371,490
493,492,493,375,491
492,493,492,389,491
491,491,494,431,490
492,490,493,492,491
493,492,493,556,490
491,492,493,623,491
492,493,491,633,490
493,492,492,625,492
494,489,492,563,492
494,491,492,457,490
494,491,493,400,491
492,492,493,373,490
492,491,494,371,492
494,491,493,381,491
493,493,493,404,491
494,492,492,455,491
492,492,492,515,491
493,492,492,595,492
494,493,493,634,490
492,491,494,630,490
492,491,494,607,491
492,491,494,514,490
494,492,492,425,490
493,491,492,387,492
494,491,494,372,490
492,493,491,378,491
494,490,491,386,491
496,491,494,423,491
491,492,492,483,491
493,492,492,546,489
491,491,493,617,491
493,491,493,636,491
492,492,492,626,491
493,493,494,575,492
493,491,493,470,491
493,491,493,405,490
494,491,492,375,492
494,490,492,372,492
493,490,492,378,491
494,492,492,400,491
491,491,493,448,490
494,491,493,508,490
494,493,494,582,490
493,493,493,633,490
494,492,494,630,490
492,490,492,619,492
492,492,495,529,492
494,492,493,432,491
493,491,492,392,492
492,491,492,369,491
494,492,492,374,490
492,492,492,385,492
494,493,493,416,490
493,493,492,474,491
493,492,493,537,490
494,490,492,612,490
492,492,494,636,491
492,490,493,627,491
494,493,493,582,491
493,492,493,484,491
493,491,493,410,490
493,493,492,378,492
494,493,493,371,490
492,491,493,376,491
494,493,491,395,491
495,491,491,441,491
493,491,492,501,490
491,492,493,569,491
492,490,492,630,491
494,492,494,632,489
493,492,495,622,490
493,493,494,545,491
495,492,492,443,491
494,493,493,397,490
494,491,494,371,491
493,493,492,372,491
492,492,493,382,492
493,489,492,407,491
493,490,492,464,490
493,491,493,525,490
494,491,492,606,489
493,492,493,637,491
494,493,492,631,491
495,491,492,595,490
493,492,493,500,491
495,492,493,414,490
494,491,492,380,491
493,491,492,370,490
492,492,493,376,490
491,492,492,390,491
492,492,494,433,491
491,491,492,492,490
493,492,492,559,489
493,492,492,625,491
493,491,491,632,489
493,493,492,622,491
494,493,493,559,491
494,492,492,453,490
493,492,493,399,490
493,492,494,369,490
492,492,493,372,491
493,491,493,382,490
493,493,493,402,491
493,491,492,458,491
493,492,493,519,492
493,491,492,596,493
494,494,493,635,492
493,492,494,629,491
494,491,491,604,489
492,494,494,513,490
494,492,493,424,490
493,492,492,385,492
493,491,492,372,491
495,492,494,376,491
494,490,492,386,493
493,490,492,425,489
492,491,492,484,491
492,493,491,548,489
491,491,494,621,491
494,490,493,634,490
494,493,493,625,490
494,494,493,573,491
495,493,492,468,491
494,492,493,403,490
493,491,492,373,490
491,493,494,370,492
492,491,492,378,490
492,491,493,398,491
492,491,493,450,491
494,492,493,509,490
493,490,492,584,492
493,493,492,634,490
494,492,492,633,491
494,491,492,618,493
493,493,495,526,492
494,494,493,433,491
492,493,492,390,491
494,491,493,369,491
493,492,494,374,489
493,492,492,385,492
494,493,494,417,490
492,491,492,476,491
493,493,493,539,491
494,492,493,614,491
495,491,493,636,492
493,490,493,627,490
494,494,492,582,492
493,492,492,482,491
494,492,492,408,490
492,493,493,375,489
489,492,493,371,490
494,490,492,378,490
495,493,491,393,490
492,491,491,443,490
494,492,492,503,490
492,492,492,571,491
493,490,493,630,490
494,491,493,631,490
495,491,491,622,490
493,492,494,540,491
493,492,493,441,491
493,493,493,396,492
493,491,492,371,489
494,492,494,372,489
492,491,492,383,492
493,491,491,410,490
492,492,492,466,491
493,491,492,527,491
495,492,492,607,490
492,493,494,638,491
492,492,492,630,490
495,492,493,592,490
495,493,493,497,491
494,493,492,414,492
493,492,491,381,493
493,494,494,371,492
492,491,493,375,491
493,490,494,386,490
492,491,494,433,491
493,492,492,493,490
493,492,492,560,490
492,492,493,626,491
494,492,492,635,492
494,492,491,623,492
495,492,495,556,491
493,491,492,453,491
494,493,493,399,491
492,491,494,368,491
492,492,494,371,489
493,493,494,381,488
493,493,492,405,491
492,492,492,458,490
492,491,493,518,491
493,490,491,598,491
495,490,492,634,491
493,491,493,630,491
494,491,491,601,491
493,491,492,511,491
494,491,493,420,491
493,493,492,384,490
493,494,493,372,491
495,491,493,375,491
494,492,491,386,489
492,492,494,428,491
493,491,492,485,490
493,491,493,549,491
492,490,494,623,490
493,492,494,635,490
494,490,492,625,491
492,493,494,572,490
495,492,493,465,491
495,492,493,405,491
494,492,492,373,490
492,492,493,371,491
493,491,493,381,491
494,490,492,398,491
492,491,492,449,490
493,492,493,509,490
492,491,491,586,492
493,493,493,633,490
492,493,494,634,492
494,490,491,616,492
496,490,492,525,491
494,491,493,431,490
493,492,492,389,491
493,494,492,372,490
492,492,494,374,490
493,492,493,384,490
493,493,493,417,490
493,492,492,476,491
494,493,492,538,491
493,493,492,616,492
494,491,492,636,492
493,491,493,625,491
492,491,493,580,491
493,493,492,481,491
494,492,493,407,491
491,494,492,376,489
494,492,492,372,491
495,492,491,379,491
495,492,492,393,489
492,491,491,443,491
494,492,493,503,490
493,491,493,573,491
492,490,493,629,489
492,492,494,632,489
494,490,492,621,490
493,493,494,539,492
493,492,493,441,491
493,492,492,396,491
494,491,491,372,491
494,491,494,373,489
493,490,493,382,491
494,494,492,413,490
491,492,493,468,490
493,490,493,529,490
493,492,493,606,489
492,493,493,636,490
492,491,492,630,491
495,493,495,588,489
495,492,493,495,491
495,492,492,415,492
494,492,492,379,492
494,494,493,372,490
492,491,494,378,491
493,490,494,389,489
491,494,493,435,490
490,494,492,494,491
494,492,494,560,491
492,491,491,628,492
494,493,493,634,491
493,491,493,623,491
492,491,493,554,491
494,491,492,452,491
495,491,493,399,490
493,492,491,372,492
494,493,492,373,490
494,493,492,382,490
494,493,491,407,491
494,490,492,458,491
492,491,493,518,491
493,491,492,598,489
493,493,494,633,490
492,491,494,629,490
492,492,494,600,490
493,493,492,509,492
494,492,492,422,490
494,491,493,383,491
495,493,492,373,491
494,490,492,377,492
493,491,493,386,490
493,494,493,428,491
493,491,492,487,491
494,492,494,551,491
492,493,495,621,490
493,493,493,636,491
494,492,492,623,490
494,493,492,573,491
493,492,493,464,491
494,493,492,405,491
494,491,492,372,493
493,490,492,371,491
492,491,492,382,491
494,491,494,399,490
493,490,492,452,490
491,492,493,513,490
493,492,493,587,490
494,494,492,634,490
492,492,495,633,492
493,491,493,611,490
493,492,492,523,492
493,494,493,431,492
491,494,491,389,491
494,492,492,373,491
493,492,494,375,492
492,491,492,384,490
493,494,493,419,490
493,493,492,477,491
493,491,492,539,490
493,491,492,617,492
492,491,493,637,491
492,491,494,624,490
492,492,494,579,490
492,492,493,477,491
494,492,493,408,491
493,491,492,376,489
492,492,493,370,491
493,492,492,380,490
492,491,492,399,492
495,491,491,444,491
494,492,492,504,491
494,491,493,573,491
494,492,492,630,490
492,493,494,633,490
493,493,494,620,490
493,494,494,536,492
494,492,493,439,491
493,491,493,393,491
494,492,491,373,491
493,491,493,374,492
493,490,493,383,491
494,493,492,413,490
492,491,493,470,490
493,491,493,531,489
492,492,494,608,489
492,493,493,638,491
493,492,491,629,492
494,492,495,586,490
494,492,493,494,491
494,491,492,413,491
493,492,492,378,492
492,491,491,370,491
492,491,494,378,491
495,491,494,389,489
492,490,492,437,491
493,492,493,497,490
494,494,493,565,490
493,493,492,629,491
493,492,494,634,491
492,490,493,624,490
494,493,493,550,492
493,492,493,449,490
493,491,493,398,491
492,492,491,372,492
493,493,493,373,489
492,490,494,380,491
494,492,491,407,490
494,492,492,460,490
492,492,492,521,491
492,490,491,599,490
492,493,494,634,491
491,492,491,632,492
492,493,495,598,489
494,492,494,506,490
493,491,493,421,490
492,491,493,383,491
494,493,492,370,490
492,492,491,377,492
493,491,492,386,493
493,491,492,428,491
493,490,492,488,491
494,491,493,551,489
493,490,491,623,490
493,492,493,634,490
494,493,492,626,491
495,494,493,570,492
494,492,493,461,492
494,493,494,403,491
493,491,492,370,493
493,491,492,369,490
493,491,493,379,490
492,492,494,400,490
493,491,491,453,490
492,491,493,515,492
493,491,492,590,490
495,493,492,634,491
495,491,492,632,492
494,491,493,610,490
493,491,492,521,492
493,493,493,428,492
493,491,492,387,490
493,491,493,369,490
490,493,494,376,492
494,489,492,385,490
494,493,493,420,490
492,491,491,479,490
493,492,491,543,491
493,490,492,617,491
492,492,493,636,491
492,491,493,623,491
494,493,491,576,490
493,492,494,474,491
493,493,493,407,490
494,492,493,375,490
493,492,493,369,491
492,491,491,381,491
493,493,494,395,493
492,490,490,443,491
492,492,492,505,492
493,491,494,575,491
495,491,492,630,489
493,492,493,633,492
492,491,493,619,490
494,494,492,536,491
494,494,493,436,491
494,490,493,392,490
495,491,491,371,489
493,493,493,373,491
492,491,493,382,490
491,491,494,411,489
489,492,493,472,490
494,489,492,532,489
494,489,492,609,491
493,492,492,638,492
494,491,491,629,492
494,491,491,589,492
494,492,492,491,491
493,491,492,410,491
493,491,492,379,490
494,490,493,369,490
493,493,493,375,489
493,494,493,390,488
493,490,492,436,491
492,492,492,497,490
491,493,493,567,491
494,489,491,628,492
493,490,492,632,491
492,490,494,623,490
494,494,494,547,491
493,493,494,448,490
494,492,494,397,490
494,492,494,369,489
494,493,492,374,490
491,491,494,381,492
494,492,491,405,489
492,491,492,464,491
493,490,492,523,492
493,491,493,600,492
493,491,494,634,490
492,491,491,632,492
493,494,494,597,492
494,490,493,504,491
494,491,492,418,490
494,492,491,383,490
494,493,491,369,489
493,492,492,376,491
493,493,492,387,489
490,491,493,429,491
493,490,492,489,490
492,492,493,553,489
492,491,491,624,489
494,491,492,633,491
492,491,492,626,491
495,492,491,567,492
495,491,492,460,491
493,492,494,402,490
493,491,492,369,492
493,493,491,372,489
492,493,493,380,490
493,492,494,401,489
493,492,494,454,490
492,491,493,515,491
493,491,493,593,490
495,492,494,634,490
494,491,492,632,492
492,490,493,611,493
492,492,493,518,491
493,493,492,427,491
494,491,493,389,491
495,491,494,370,490
493,493,493,377,490
493,492,492,386,490
494,494,493,421,490
492,491,492,481,491
491,491,493,543,491
492,490,491,618,492
492,490,492,635,491
492,491,493,624,491
493,493,491,576,490
492,493,491,473,492
495,493,492,406,490
493,494,493,373,490
494,493,491,371,491
495,491,491,379,491
492,492,494,395,492
493,490,492,444,490
491,492,492,507,491
489,490,493,576,490
491,490,493,630,489
493,492,493,633,491
492,492,494,619,490
495,491,494,532,491
498,493,493,437,491
495,492,492,393,491
495,491,492,372,490
492,493,494,375,491
490,491,492,384,490
494,492,494,413,490
490,492,493,471,490
491,492,494,533,490
490,490,493,611,491
492,492,493,638,491
490,492,494,630,492
486,494,492,588,493
486,490,492,488,493
486,491,491,410,492
486,491,491,378,490
488,491,492,368,490
493,491,491,378,490
495,492,493,391,489
497,492,493,438,490
497,492,492,498,490
495,491,494,568,490
493,491,494,625,490
491,491,493,634,491
492,491,493,621,492
495,491,493,547,491
496,493,493,447,490
494,491,493,396,491
493,491,492,369,489
491,493,493,375,490
489,492,494,384,491
493,493,494,406,490
491,492,494,465,491
493,491,494,524,491
496,491,494,604,491
498,491,495,636,491
490,492,495,629,490
491,493,495,596,492
495,492,492,503,491
497,492,492,417,491
499,493,493,384,490
501,494,491,372,491
500,490,491,377,491
496,494,493,387,489
492,492,491,430,490
490,493,492,489,490
491,493,493,554,489
491,490,494,622,489
496,492,493,634,491
496,491,493,626,490
497,490,494,561,490
495,492,493,457,490
494,492,492,403,491
496,490,492,371,493
497,493,492,373,490
490,492,493,381,492
489,491,494,400,489
490,493,494,455,489
495,492,494,516,490
497,492,493,593,490
504,491,494,633,490
507,491,493,634,490
510,493,494,610,492
482,491,493,516,492
484,495,493,428,492
491,492,493,389,491
493,493,495,370,490
495,491,493,377,492
498,493,493,386,489
500,494,491,425,491
500,492,491,481,490
499,491,494,545,492
500,491,493,619,490
490,493,493,635,491
483,491,494,625,490
487,492,494,575,491
491,492,493,472,491
492,492,494,406,490
495,491,492,374,490
494,493,493,372,491
490,493,492,381,491
488,491,492,400,491
489,490,492,445,490
488,492,492,508,491
490,491,492,581,490
491,490,492,630,489
491,493,492,632,489
493,493,492,616,490
495,491,492,530,491
494,493,494,434,491
493,491,492,391,491
496,492,492,372,491
492,490,494,374,492
489,490,494,384,490
494,491,494,414,490
495,492,493,474,490
495,493,495,535,489
499,493,495,611,490
502,495,494,638,491
505,493,493,629,491
501,494,493,583,490
502,491,492,485,492
496,491,492,410,492
476,489,493,376,492
482,489,493,369,491
487,494,491,378,489
489,492,495,395,492
492,489,494,439,490
489,491,494,500,490
488,490,493,570,490
491,492,494,627,490
491,492,494,635,491
492,493,493,623,492
493,490,493,543,491
494,493,494,445,491
495,491,494,396,491
493,491,491,368,489
491,494,493,373,491
491,494,493,383,491
494,494,492,410,490
493,491,493,465,490
494,490,494,524,490
492,490,492,604,489
488,494,492,635,491
493,491,494,628,489
494,492,496,594,490
491,493,495,502,491
490,492,493,418,492
493,492,493,384,490
491,491,494,370,492
494,490,493,377,491
493,492,493,389,492
492,490,493,432,490
494,491,492,492,490
491,492,493,560,491
491,492,494,623,490
493,494,493,635,490
492,493,493,626,491
491,490,494,559,491
494,493,493,456,491
492,492,494,401,492
493,491,492,370,493
493,491,493,371,490
491,492,495,383,491
491,491,495,401,489
492,491,492,458,491
487,492,493,517,490
494,492,493,595,489
494,494,493,636,491
494,491,493,632,490
495,492,494,609,493
496,492,495,515,491
495,492,492,425,492
494,491,492,385,490
491,492,493,370,490
493,491,491,377,492
501,493,492,387,492
500,490,494,426,491
490,491,494,483,491
480,492,494,548,492
489,493,493,619,490
491,493,494,635,491
490,493,492,628,492
491,493,494,573,491
491,495,494,469,491
494,492,495,406,490
489,490,493,373,490
490,491,493,370,490
490,493,492,382,492
492,493,491,401,492
493,492,492,449,491
491,492,494,510,491
490,491,493,583,490
493,488,494,632,491
496,489,493,633,490
494,491,493,616,490
496,495,494,530,491
499,494,495,434,491
489,493,493,391,492
490,494,495,369,489
490,489,494,374,492
489,490,494,383,491
495,488,494,416,490
495,489,493,475,491
496,488,494,538,491
489,490,494,613,489
484,493,492,637,491
495,494,493,630,491
497,497,496,583,491
496,496,495,485,492
500,494,495,410,492
490,493,494,375,492
491,490,493,369,489
494,491,494,378,489
494,492,495,396,492
489,489,493,440,490
484,490,493,502,492
483,492,493,573,492
492,491,493,632,492
495,492,494,635,491
495,493,494,623,492
495,492,494,545,491
497,494,494,443,491
487,491,494,394,490
489,492,495,369,489
491,493,494,374,491
488,493,493,384,491
489,492,494,408,491
492,494,493,467,491
492,494,493,527,491
491,493,493,605,489
493,495,493,636,491
491,496,493,631,492
492,497,497,593,490
489,495,496,498,492
490,494,493,416,491
492,496,492,382,491
491,493,494,371,492
493,491,493,376,489
492,492,494,389,492
491,489,493,433,491
492,489,493,494,491
492,491,494,562,492
493,492,495,625,490
492,493,495,635,491
491,498,493,627,492
494,497,493,561,492
495,494,494,455,491
494,489,495,401,492
493,489,494,369,490
492,491,494,372,490
491,490,494,381,490
492,490,495,403,490
490,492,493,460,491
491,498,494,519,491
492,501,494,600,490
493,502,494,638,491
494,496,493,632,492
496,493,493,607,492
495,491,495,514,491
492,490,494,424,492
489,492,492,387,490
490,491,495,371,490
491,492,493,377,490
491,492,493,387,491
488,490,494,428,491
490,491,493,484,490
490,492,493,550,492
491,491,493,620,493
492,492,493,634,491
494,495,491,628,492
493,496,495,572,494
498,496,494,467,492
498,494,495,405,491
491,485,494,373,491
492,489,492,370,490
493,494,492,382,492
492,494,495,399,490
495,493,493,451,491
497,493,494,512,492
481,491,495,582,491
482,492,495,632,492
488,491,493,634,491
491,492,494,615,493
491,493,494,529,492
491,491,495,432,492
493,491,493,392,492
494,493,496,370,489
492,493,494,375,491
493,497,493,383,490
491,496,495,418,490
490,491,493,475,491
491,491,494,539,491
491,488,495,615,490
491,492,494,636,490
493,497,493,630,492
492,497,493,586,493
493,493,493,482,493
490,499,494,410,492
491,499,494,377,492
492,500,494,369,490
492,497,496,379,490
491,493,495,395,490
491,493,493,443,491
491,492,494,505,492
491,491,494,575,490
492,485,495,631,492
493,486,493,635,491
492,486,494,620,492
492,488,495,544,491
492,492,495,443,492
492,491,494,395,492
493,493,495,371,489
492,494,493,376,491
493,494,493,384,492
489,493,496,409,492
492,491,493,467,491
491,493,493,528,492
490,492,494,607,492
490,492,495,636,491
491,495,493,632,492
493,495,496,592,490
493,489,494,496,492
494,494,495,416,491
495,497,494,384,492
495,500,493,373,493
494,499,493,378,490
493,503,494,390,493
491,492,493,436,491
493,487,494,495,491
492,493,494,561,490
492,493,494,626,490
492,492,495,635,492
494,494,494,624,492
492,495,494,559,493
494,495,495,455,493
492,491,493,401,493
492,492,494,370,491
491,490,495,372,491
493,491,493,384,490
491,494,496,405,491
493,495,494,461,490
492,496,494,521,492
493,496,494,601,491
493,498,495,636,491
492,493,493,631,493
491,493,493,606,494
492,493,494,512,493
493,494,494,422,494
493,489,493,387,491
489,489,496,373,492
493,486,494,378,490
494,492,494,388,489
493,494,493,430,490
492,494,494,486,490
489,495,493,552,492
489,494,495,621,494
494,495,494,635,492
494,498,495,626,490
493,500,496,572,494
497,502,494,465,492
496,498,493,405,493
494,492,492,371,490
494,492,492,372,492
492,493,492,382,493
491,496,493,398,491
489,494,491,450,491
485,498,492,511,493
490,498,495,584,490
492,498,496,634,489
495,498,496,635,490
497,496,496,615,493
493,503,494,528,492
495,494,493,430,492
494,485,493,391,493
495,487,493,374,493
492,491,494,375,493
492,498,493,384,490
491,497,493,422,491
493,490,494,477,490
493,493,494,541,489
495,493,495,617,489
495,495,495,636,490
497,491,495,629,489
496,490,497,583,493
496,488,493,480,493
497,494,493,409,492
497,494,493,378,492
496,492,492,369,490
482,491,492,379,493
484,493,492,396,490
487,494,492,442,491
487,490,493,505,490
489,494,492,575,490
490,498,494,630,491
493,496,493,636,491
495,496,494,618,491
492,495,495,538,491
494,494,494,441,492
493,488,493,394,493
493,493,493,371,492
492,493,495,375,492
493,493,492,383,492
494,494,491,412,493
492,495,493,468,491
491,496,494,530,492
492,496,493,611,492
492,492,494,636,491
493,492,493,629,491
494,493,495,591,492
492,491,494,493,493
494,492,492,412,492
493,492,492,381,494
495,490,492,370,494
493,493,495,376,494
492,493,495,389,492
490,494,492,437,491
491,495,494,496,489
493,495,493,564,489
491,496,493,628,491
492,500,492,636,491
493,499,493,624,490
491,501,493,556,493
493,495,494,451,491
493,500,493,399,492
494,509,494,369,492
495,515,494,373,492
493,504,492,383,495
495,503,492,406,496
493,507,491,462,495
495,504,492,521,496
496,494,493,601,494
495,487,496,636,492
494,488,495,629,491
493,484,493,604,489
490,487,495,508,490
491,491,495,420,490
493,493,495,385,489
493,494,495,372,492
492,488,492,378,491
495,491,494,386,490
495,485,492,430,493
494,485,492,486,492
492,492,493,552,495
490,490,493,624,495
491,487,495,637,495
494,490,495,627,495
494,497,494,570,495
494,497,496,463,493
493,495,494,403,489
492,497,491,372,490
491,495,493,370,490
490,495,491,380,491
495,499,492,400,493
497,507,492,452,493
498,514,493,513,495
498,518,491,589,498
495,500,499,637,496
494,485,496,634,494
491,496,489,614,492
490,492,491,523,489
489,488,494,427,492
493,492,492,387,491
496,496,493,369,492
492,489,496,373,492
492,484,495,383,491
493,495,492,419,494
492,498,492,476,493
491,495,495,540,492
492,495,493,617,490
494,490,493,636,491
492,491,494,625,490
488,492,495,579,492
488,497,492,476,492
495,496,492,406,493
494,502,491,373,492
494,502,491,370,491
495,501,493,376,490
495,491,489,396,489
494,488,493,443,491
494,488,491,504,490
492,479,491,573,490
493,481,492,628,489
490,491,493,634,492
492,500,495,619,492
493,495,492,536,492
492,498,493,438,493
493,503,491,393,493
497,506,491,372,491
496,505,495,375,491
496,493,493,383,491
497,498,494,411,492
492,500,495,469,492
491,497,497,531,492
491,498,495,610,494
493,498,495,639,493
493,492,495,631,494
495,494,494,592,497
496,501,495,493,497
494,497,493,412,491
492,499,493,378,491
490,488,492,371,491
492,483,494,376,489
494,484,494,390,487
493,485,494,437,488
492,493,492,496,490
491,495,492,567,492
491,492,493,626,491
493,496,492,635,495
496,496,491,623,497
494,494,490,551,500
495,502,490,450,501
496,508,492,398,502
498,496,493,369,500
496,497,493,375,498
496,494,492,382,492
496,482,492,404,488
494,483,497,463,487
492,491,495,521,487
492,502,493,601,488
491,500,492,635,488
492,500,490,631,488
493,500,493,601,489
494,502,494,505,491
494,483,495,418,489
494,494,494,385,490
495,499,491,372,492
493,500,491,377,497
495,504,491,388,497
495,501,494,429,499
498,495,491,488,497
496,491,495,554,496
492,499,495,623,494
491,505,492,634,492
491,495,493,627,496
493,489,494,566,496
496,492,491,461,494
495,482,486,401,490
494,486,484,366,487
498,491,487,371,491
496,493,495,381,499
496,507,498,403,502
497,528,503,457,501
493,523,498,517,499
493,512,491,589,498
489,497,489,634,496
491,483,493,633,489
493,490,491,609,484
496,490,493,519,490
495,482,494,429,495
501,486,493,389,493
500,486,491,370,493
498,492,491,374,497
496,507,489,386,497
498,500,491,422,494
497,518,492,480,485
500,520,500,544,488
495,492,500,620,500
494,478,497,638,503
492,493,495,628,502
492,495,491,580,500
495,500,489,474,496
499,505,487,405,486
497,503,492,370,479
503,503,494,369,484
501,488,495,378,489
495,487,496,396,487
494,498,492,445,494
493,514,490,508,497
493,489,492,576,491
493,478,488,630,486
494,474,484,631,485
502,484,489,619,489
499,493,494,533,491
500,494,497,438,496
497,495,501,393,501
496,506,498,372,500
495,500,491,374,499
493,497,487,385,505
500,508,493,415,499
497,524,491,472,489
496,534,493,533,487
494,518,492,611,491
487,496,489,636,490
493,508,490,627,488
498,495,487,587,489
505,485,485,485,491
504,487,487,407,490
505,483,494,376,488
501,471,496,371,489
505,482,503,381,490
500,493,506,398,493
501,518,499,443,502
502,535,496,503,499
502,531,502,572,498
497,568,497,634,502
501,526,495,637,493
495,507,489,626,486
492,516,494,550,486
490,469,497,449,492
492,467,488,397,487
495,468,480,368,485
495,486,481,369,490
497,482,483,378,493
499,484,485,404,493
495,483,502,462,499
499,509,499,525,501
497,513,496,602,502
495,482,492,636,501
495,476,490,631,504
496,487,491,600,514
501,520,493,505,518
497,527,498,421,515
499,544,497,384,502
497,528,496,371,490
500,550,498,376,483
496,527,498,385,474
496,453,500,430,482
505,459,496,491,480
504,474,493,556,490
501,499,488,627,496
502,535,488,637,500
499,519,489,626,501
496,499,492,564,505
494,477,491,457,509
496,511,494,401,503
504,500,496,368,504
502,531,498,373,499
503,567,497,383,502
498,474,489,401,503
500,491,480,451,499
492,501,480,510,493
486,456,483,586,493
490,463,485,627,489
493,477,501,630,479
496,489,501,609,476
495,486,493,513,478
495,480,485,423,484
503,486,487,384,488
511,508,490,369,488
513,542,491,374,493
508,551,496,386,496
499,533,503,426,518
502,537,493,484,525
501,551,491,544,524
494,520,490,618,521
494,461,490,633,498
500,479,489,621,476
498,463,495,574,470
498,497,497,472,490
498,512,501,407,496
496,504,499,373,500
501,526,487,371,491
507,549,481,375,488
499,464,473,386,478
490,459,470,435,482
491,507,478,500,494
495,535,482,574,507
503,523,491,625,499
503,453,501,630,500
505,464,508,618,492
506,485,511,535,490
503,508,499,435,487
502,501,479,388,487
505,527,465,366,494
502,535,466,365,503
501,576,475,377,514
503,570,496,409,514
490,477,505,468,514
488,473,507,531,499
489,494,496,610,491
501,471,499,637,502
508,516,500,628,505
503,513,491,589,507
500,522,487,485,498
498,464,476,404,492
493,451,476,368,486
486,446,478,362,480
499,481,495,373,475
500,481,510,394,494
504,518,510,443,513
509,576,508,509,514
507,608,503,574,506
502,602,495,630,502
492,457,487,630,491
485,438,492,620,488
495,463,489,544,495
499,473,490,445,496
501,495,480,393,488
499,532,477,367,485
502,515,486,370,482
510,547,485,377,485
507,557,489,405,482
498,477,503,460,486
505,421,501,522,509
501,474,502,604,518
486,466,485,637,522
483,494,475,624,505
491,493,477,591,487
492,490,492,496,482
487,467,490,412,499
492,518,493,381,504
497,514,491,367,504
500,492,489,373,497
501,500,493,387,489
499,511,504,433,494
502,513,502,492,494
506,531,506,560,500
509,514,496,629,502
507,556,493,638,496
502,596,486,623,492
494,450,468,553,488
494,463,467,447,484
498,450,475,391,485
506,481,488,364,495
513,516,502,374,509
512,557,511,386,513
500,490,507,405,510
479,458,501,455,497
485,462,492,514,481
483,458,486,588,469
489,504,487,632,485
501,523,484,631,497
512,569,485,610,511
516,555,485,516,522
516,524,485,421,520
507,482,488,383,505
502,488,483,367,499
492,466,486,369,493
483,521,481,378,504
495,500,499,420,510
503,505,492,479,498
503,501,493,541,475
495,484,509,617,472
498,503,497,636,487
501,506,489,621,487
497,450,483,575,491
495,508,483,467,499
500,458,492,403,507
494,474,504,373,510
493,481,501,374,498
493,492,503,381,489
491,492,491,400,482
493,507,480,444,477
498,516,475,505,484
502,509,477,576,490
499,481,479,625,501
498,526,494,632,508
496,519,499,612,502
501,498,493,528,502
512,535,492,433,506
517,560,499,394,506
519,570,502,375,500
500,488,493,374,503
491,453,486,380,494
486,455,478,410,492
490,454,499,473,500
498,472,501,535,493
498,524,489,612,493
502,562,486,638,506
509,594,489,627,524
511,531,494,583,525
503,477,488,482,502
496,460,492,404,480
493,442,493,371,478
496,478,493,369,481
498,487,485,375,477
493,473,492,391,494
494,452,480,436,506
500,487,477,498,501
509,551,484,568,497
505,592,489,625,499
499,515,506,632,493
484,498,499,621,496
486,504,487,539,491
492,472,482,439,480
505,496,498,394,492
513,509,501,374,535
511,532,494,375,536
502,545,487,382,520
496,544,488,408,490
483,503,490,459,465
490,422,488,519,485
498,405,482,598,486
505,428,475,628,490
509,455,472,619,478
504,489,484,587,470
500,578,507,499,483
498,574,515,417,504
494,548,508,384,510
491,517,504,375,506
490,496,495,377,496
488,482,494,389,490
486,469,484,431,480
495,506,484,491,489
500,495,493,559,505
505,495,491,625,508
507,483,494,636,516
502,492,488,625,507
504,524,488,556,495
506,527,493,452,498
508,476,484,397,497
503,482,489,366,493
494,486,493,371,488
490,485,512,381,485
492,473,505,408,489
494,549,490,459,494
494,532,495,519,491
498,463,496,592,480
492,471,485,634,486
493,486,478,627,491
501,492,470,600,489
506,514,467,506,499
514,544,470,416,522
526,526,494,383,513
518,531,513,373,517
501,532,504,375,514
486,468,489,378,482
474,451,492,418,480
476,461,491,479,485
489,460,501,546,481
492,485,511,623,487
491,485,502,640,494
493,504,494,631,503
501,521,493,581,503
505,528,496,473,504
506,535,489,406,492
500,488,491,369,487
497,470,484,367,483
497,478,476,375,493
499,490,476,396,507
502,506,486,445,494
502,473,503,510,492
495,471,506,585,488
491,491,501,634,488
494,518,501,635,491
487,459,494,615,499
497,512,494,533,497
506,553,492,434,498
508,523,488,391,491
505,513,482,366,481
498,497,479,374,505
500,497,484,383,524
504,530,477,412,518
501,531,474,466,504
495,508,474,525,490
488,479,489,599,462
481,449,504,630,472
488,467,518,627,493
504,473,516,589,494
513,504,505,489,508
520,515,499,415,505
526,529,490,378,494
508,579,481,373,492
493,534,477,374,490
483,502,484,389,497
483,440,494,436,498
492,419,497,501,507
497,480,501,573,493
488,520,502,631,481
485,482,493,636,496
487,473,486,622,503
498,488,489,543,494
495,482,499,443,491
494,469,501,397,495
499,490,504,375,509
510,536,502,380,507
503,547,497,387,487
497,545,493,411,486
493,510,482,465,487
491,487,481,523,476
492,458,481,599,484
497,458,484,632,495
496,455,489,626,514
499,497,485,590,525
506,523,486,497,519
496,517,486,412,501
501,535,491,375,460
499,503,500,368,477
495,478,501,377,490
499,503,504,390,488
509,531,503,440,497
515,485,493,493,500
509,458,490,560,486
497,478,488,624,502
487,495,481,631,507
484,495,494,623,494
483,492,497,556,479
489,510,484,451,495
498,476,486,397,497
497,500,481,368,500
502,508,488,371,495
508,517,514,384,493
501,519,512,408,488
491,478,503,459,488
485,456,497,519,491
490,482,495,597,496
494,495,488,637,506
498,505,476,632,514
505,516,479,601,511
509,505,486,509,500
506,491,502,423,492
510,525,512,388,486
505,561,507,375,489
491,533,496,381,497
488,452,496,385,484
484,459,494,426,481
484,449,494,485,485
493,475,494,551,485
493,485,495,620,488
496,510,492,637,488
497,509,487,625,485
497,487,482,571,483
501,490,482,464,485
503,477,491,403,493
501,482,508,372,495
504,492,505,375,505
499,490,498,386,520
497,481,490,404,509
495,540,486,452,503
490,518,492,511,491
494,508,500,586,485
498,525,496,633,491
497,502,497,632,484
502,500,500,616,490
505,497,494,529,488
499,500,497,435,493
497,493,491,390,487
494,457,489,372,495
497,487,492,378,510
497,503,485,384,512
502,524,469,413,500
503,501,482,470,490
503,446,486,531,480
493,433,502,609,484
486,481,509,638,484
486,504,498,628,485
490,495,492,585,490
494,497,490,479,491
489,496,489,408,491
500,495,498,377,493
496,492,491,370,495
496,496,483,379,493
496,505,486,391,500
505,497,489,441,516
502,503,496,504,514
499,509,504,576,510
500,527,507,633,493
498,518,499,635,484
490,488,497,622,487
487,466,495,540,493
492,484,497,443,491
495,479,497,395,478
496,472,496,369,481
499,471,486,375,490
499,481,484,382,492
498,503,486,412,488
504,517,490,468,488
497,519,503,531,491
497,514,493,606,489
504,496,484,634,491
505,493,474,623,492
501,485,482,585,491
496,515,487,492,490
493,522,492,410,490
489,488,497,378,493
495,497,511,372,492
493,514,504,381,493
489,468,505,393,490
490,459,498,437,489
491,477,496,497,488
492,486,496,567,492
494,490,498,628,487
493,493,496,638,485
495,496,494,627,487
493,491,497,561,494
495,487,496,454,497
495,494,495,403,506
495,506,495,375,519
497,506,494,375,518
494,479,496,384,518
495,488,496,410,510
495,481,495,458,482
496,482,495,521,484
495,508,494,601,487
497,509,493,637,482
498,506,492,633,483
498,512,497,603,490
499,489,497,511,488
497,489,495,423,487
493,486,496,384,484
492,485,496,372,484
492,489,493,379,488
494,491,495,389,487
494,492,495,429,490
496,494,494,489,493
497,500,495,554,498
494,505,494,624,503
496,510,493,638,501
498,503,493,625,497
496,491,491,574,504
503,488,490,463,500
501,482,491,402,498
496,484,493,370,479
493,490,485,367,480
495,497,485,376,488
499,503,482,399,498
503,496,486,448,504
495,486,490,508,504
488,485,499,587,500
491,486,504,632,486
492,501,505,634,481
496,511,496,616,487
499,487,494,526,489
500,487,499,433,490
502,489,501,393,488
502,490,500,373,487
500,491,495,377,490
499,491,494,386,487
495,491,492,419,487
485,493,493,478,489
486,491,494,541,489
487,493,495,618,491
488,490,498,641,492
493,492,498,631,494
493,500,497,587,496
498,503,499,482,498
500,508,496,411,495
499,489,495,379,490
493,487,495,371,486
492,482,495,379,488
488,491,495,397,489
489,490,494,446,488
492,492,496,506,489
491,490,495,578,490
492,490,494,632,489
493,490,495,634,489
494,493,495,624,491
494,491,496,539,493
498,495,496,440,492
495,492,496,395,489
496,490,496,371,489
497,492,496,377,493
496,490,494,384,499
491,487,493,414,491
492,489,496,470,495
492,494,495,532,494
494,498,495,608,485
495,495,497,637,485
498,494,495,630,488
493,497,493,593,492
493,491,496,495,489
493,490,495,414,495
493,493,494,382,497
494,491,495,372,489
495,491,493,380,486
496,494,496,393,489
492,492,496,437,489
495,490,496,499,490
497,492,496,567,490
496,490,498,629,489
497,490,497,637,490
499,492,496,628,491
496,493,495,559,491
494,493,495,453,490
496,493,494,400,490
494,494,496,373,492
495,489,496,376,489
498,491,497,383,488
495,490,497,407,489
497,491,496,462,490
496,492,495,525,491
502,493,496,604,490
503,491,498,641,491
502,490,497,635,491
506,491,496,606,493
499,492,496,511,491
481,493,495,423,491
482,493,495,387,491
488,491,497,374,489
493,492,493,379,490
493,493,491,389,489
485,491,493,428,490
490,490,492,488,490
490,490,494,554,491
492,490,493,624,491
492,491,493,635,490
492,492,494,624,489
490,493,495,575,492
493,492,498,464,491
492,491,499,406,490
489,492,500,375,489
493,491,497,377,491
494,491,496,383,489
499,492,496,406,492
504,493,497,456,488
501,492,499,517,491
496,490,499,591,489
497,490,500,638,489
501,490,498,637,489
495,491,497,617,490
498,490,496,528,490
506,492,496,434,490
504,491,494,393,490
486,491,496,372,488
478,490,495,376,490
483,490,494,389,488
487,491,498,424,488
491,491,496,482,490
493,491,496,545,489
490,493,496,619,489
487,490,495,641,489
486,493,496,629,487
490,491,494,585,492
495,490,495,480,493
493,492,495,411,492
492,493,496,378,491
490,491,498,374,492
490,492,498,382,486
491,493,496,400,485
495,490,495,447,488
495,490,496,508,491
494,490,496,579,490
489,491,498,635,488
492,490,499,636,489
491,490,498,623,492
496,489,499,541,493
501,489,498,442,492
500,490,496,397,492
501,492,497,375,489
500,489,496,379,489
493,489,495,388,489
493,489,494,416,488
496,492,498,472,489
498,491,498,536,489
506,492,499,612,488
504,492,499,641,488
507,493,499,634,489
496,491,495,591,491
462,491,495,495,490
483,491,496,414,490
496,492,496,384,490
500,489,495,375,489
493,488,496,380,488
492,490,494,392,488
482,489,494,441,489
492,489,495,501,488
491,490,496,568,487
492,492,496,631,489
490,490,497,636,488
494,489,495,628,488
493,490,498,555,491
493,491,497,452,489
487,490,496,400,489
488,490,497,372,489
489,491,495,377,490
490,491,497,386,489
495,488,496,410,488
500,491,498,466,488
494,491,498,527,490
497,489,495,606,487
495,491,497,640,489
489,490,495,636,489
488,490,496,600,488
489,490,496,509,489
491,491,494,421,489
490,490,495,387,490
495,491,497,375,488
493,489,496,380,489
494,490,495,391,489
489,489,495,432,489
494,489,496,491,488
499,491,497,556,487
499,490,496,628,489
499,490,498,638,487
501,492,498,629,488
494,493,498,571,489
484,492,497,465,489
493,492,498,406,488
501,491,498,371,487
493,491,493,374,488
486,489,494,382,487
479,487,496,403,488
487,488,495,457,488
493,490,497,517,490
495,489,496,594,487
500,494,498,640,488
505,492,499,639,489
503,490,498,615,489
500,493,498,526,490
496,492,496,431,489
483,489,495,390,488
478,487,495,372,487
485,488,496,379,486
490,487,494,388,486
485,490,496,425,489
487,488,496,484,488
489,490,496,546,487
481,489,495,623,488
489,488,495,640,489
490,489,493,630,489
490,489,495,580,490
495,491,495,476,490
495,490,496,409,487
494,492,497,377,487
489,492,496,371,488
483,490,495,383,488
490,491,498,398,487
493,490,495,448,488
492,490,496,510,488
500,490,497,580,488
512,491,496,637,487
505,491,498,638,489
486,488,497,623,488
495,493,497,539,489
491,492,497,440,489
484,490,495,395,488
486,489,494,375,489
493,491,496,378,488
487,490,495,384,488
493,487,496,414,487
490,489,495,473,487
492,490,497,536,489
498,489,497,614,487
500,490,497,641,488
495,490,494,632,488
484,489,494,592,489
486,489,495,493,489
480,489,495,412,489
486,489,495,381,488
492,490,495,371,487
493,490,495,378,486
491,492,496,393,486
492,490,495,440,489
487,490,495,501,487
491,490,496,568,488
499,489,496,633,490
501,490,496,638,489
505,490,497,626,488
501,493,495,551,489
489,491,495,449,488
475,489,495,398,488
496,490,497,372,486
504,492,497,377,487
504,492,495,386,487
493,490,496,407,488
478,490,496,464,488
483,490,496,527,489
491,489,497,605,487
502,491,499,639,485
496,491,495,637,489
504,491,498,600,489
493,489,495,508,490
484,488,494,419,489
490,489,493,385,489
495,490,493,374,487
491,489,497,379,489
496,490,497,390,487
498,489,496,433,488
493,487,496,491,487
479,487,494,556,485
483,487,493,628,488
485,490,493,638,489
487,489,495,629,487
489,491,494,568,489
491,490,495,461,489
486,490,494,403,489
488,488,496,371,487
486,490,493,371,488
487,490,494,383,488
489,489,495,402,487
492,489,495,455,487
491,489,496,516,488
489,487,494,595,486
495,491,496,635,487
490,489,494,636,489
491,488,495,615,490
498,490,496,521,490
494,493,497,431,489
499,491,497,389,489
509,492,496,373,487
511,493,496,380,487
505,490,495,387,487
487,490,493,423,487
479,487,493,483,487
478,488,494,545,487
475,488,492,621,489
479,487,494,637,489
486,489,495,627,487
493,489,496,579,490
500,491,496,474,489
500,491,496,410,488
502,491,497,376,487
502,491,496,374,488
489,490,494,382,488
494,489,496,397,487
488,488,492,447,486
470,488,493,509,486
479,486,494,580,487
482,486,494,633,486
487,489,495,636,489
489,488,494,621,488
490,489,494,534,489
486,492,495,438,488
493,490,494,395,488
493,488,493,374,487
490,490,495,376,487
492,490,493,384,485
494,491,494,414,486
498,487,496,473,488
496,489,496,535,489
492,490,496,612,488
491,489,496,637,489
487,490,495,631,487
495,489,497,591,490
498,488,494,489,490
486,489,492,411,490
488,489,493,379,488
495,491,495,370,487
499,488,493,379,489
498,490,496,393,486
498,490,495,440,487
499,490,494,500,487
488,487,492,564,487
467,490,490,627,487
483,491,494,634,489
487,488,495,621,490
490,489,495,546,489
488,491,495,447,489
482,489,495,396,488
483,486,493,371,487
486,489,492,375,488
484,492,492,383,489
488,489,490,408,489
485,491,489,461,488
492,489,490,523,488
495,486,493,603,488
495,487,495,635,489
487,493,495,629,491
488,492,496,594,492
489,490,494,502,493
496,490,494,415,493
503,491,494,383,491
504,489,495,372,489
500,491,495,375,488
487,489,494,388,483
483,485,494,429,483
483,488,494,489,485
485,488,494,556,484
480,488,494,623,485
488,489,492,635,486
489,489,494,626,487
490,488,495,560,485
491,488,494,457,486
491,488,493,401,488
490,489,494,370,490
496,491,494,371,487
508,489,493,383,486
500,491,495,405,489
493,490,494,456,487
493,489,495,517,487
483,487,491,594,488
478,487,493,633,487
476,488,492,632,489
485,490,492,610,490
490,489,495,516,490
492,489,493,428,489
490,489,494,387,488
490,489,492,372,487
489,490,494,376,488
490,490,492,387,485
495,490,492,427,488
493,489,494,484,490
497,490,495,547,488
494,489,494,619,488
491,489,493,636,488
489,491,495,626,487
491,491,495,576,488
491,490,493,471,489
494,491,493,407,488
488,490,492,374,489
480,488,493,369,489
481,489,492,380,489
485,489,492,399,491
491,489,492,448,488
495,490,493,509,486
495,488,492,583,487
495,489,494,633,486
489,490,494,633,488
484,491,491,619,488
492,490,493,529,489
494,491,494,436,489
496,491,495,392,489
502,490,494,372,488
500,491,496,374,486
492,490,494,386,486
497,490,494,414,484
472,486,491,474,486
476,487,493,535,486
481,490,492,613,487
485,490,491,637,491
488,488,491,628,489
489,491,495,586,490
491,489,495,484,489
490,491,494,409,490
492,490,494,375,489
492,490,493,371,488
498,488,493,379,489
488,490,494,394,488
480,488,493,441,488
488,490,493,501,489
491,489,494,571,490
492,487,492,629,487
491,492,493,633,488
491,490,492,624,490
492,489,494,543,490
491,490,494,444,488
493,490,493,396,487
494,491,492,371,487
499,491,493,373,487
493,489,493,384,489
493,490,492,411,488
494,488,494,466,487
491,488,492,525,486
495,490,492,606,486
498,488,495,636,489
489,488,491,630,488
480,490,492,593,488
478,492,493,500,489
484,490,493,415,489
485,489,493,383,490
489,489,495,371,488
489,488,493,375,488
493,490,493,387,488
492,488,495,432,489
492,489,493,494,490
486,491,494,559,491
486,488,494,627,490
489,490,492,636,488
490,490,492,625,489
489,489,495,560,487
489,490,492,456,487
490,491,494,401,487
491,489,494,369,489
491,490,494,371,486
494,492,495,382,488
502,491,494,405,490
503,489,493,457,487
500,490,492,517,487
484,489,489,596,489
485,489,492,634,491
487,489,493,631,490
489,491,492,607,490
486,489,494,514,490
484,490,491,424,489
486,490,493,385,487
488,491,494,371,488
489,490,493,375,489
489,489,491,386,488
487,490,494,424,490
489,489,492,483,488
489,490,492,546,489
487,488,493,618,488
491,488,492,633,488
487,492,492,626,489
490,491,495,574,489
489,489,493,467,489
493,493,491,405,487
496,491,492,373,486
497,489,493,370,489
498,490,492,380,487
492,491,492,396,490
481,488,492,447,490
487,491,493,508,489
488,490,492,583,490
488,493,493,632,489
488,490,494,630,491
492,489,491,617,490
493,491,492,528,489
491,492,493,432,487
488,492,492,389,488
485,486,492,370,488
487,489,493,373,487
489,491,493,383,488
491,490,494,416,489
492,489,492,475,489
489,490,492,536,488
487,489,493,615,490
490,487,491,636,490
488,486,493,625,489
486,488,492,583,491
489,490,492,483,490
492,489,493,408,489
493,489,493,377,488
491,490,493,371,489
492,490,492,379,489
494,490,491,394,488
487,489,493,441,490
494,492,493,503,489
495,489,493,570,489
492,488,492,628,487
479,491,494,631,487
484,489,492,621,491
488,491,493,542,491
490,490,492,442,490
490,491,492,396,490
491,490,491,371,489
491,491,491,372,488
490,490,492,382,489
487,491,491,410,488
490,488,493,465,488
490,488,493,526,487
491,488,494,603,487
493,491,493,635,488
496,489,493,630,489
497,490,494,589,489
491,491,492,498,490
496,490,492,415,491
491,491,492,380,490
477,494,491,371,488
484,488,492,374,490
489,488,491,388,486
487,491,493,433,486
486,490,492,493,487
487,491,492,557,488
483,490,491,626,491
488,490,492,633,491
490,488,492,622,491
488,489,492,556,491
488,491,491,453,490
496,491,492,400,489
495,491,493,371,491
496,490,493,373,488
495,491,492,381,489
493,491,491,405,490
487,489,491,455,489
485,490,494,516,488
486,489,491,594,488
489,492,492,632,489
489,491,493,628,487
488,491,494,601,485
491,492,493,512,490
492,492,492,422,490
490,490,492,383,490
490,491,491,372,490
491,489,491,377,491
489,488,492,385,491
489,491,492,426,489
488,492,490,483,489
492,490,493,547,488
490,489,494,618,488
493,490,493,634,489
494,492,493,623,489
491,493,491,573,490
487,492,493,464,490
492,490,493,405,490
490,489,492,371,491
488,489,491,369,490
486,491,492,381,491
488,490,493,397,489
487,489,491,450,489
487,491,493,511,489
489,490,491,585,490
491,491,491,632,490
490,491,493,631,490
490,488,492,614,488
491,493,493,524,489
490,491,492,431,490
490,490,492,390,489
489,491,491,373,490
490,492,493,376,489
489,490,492,382,489
491,491,491,419,488
490,490,491,476,490
490,489,491,537,488
489,491,493,613,491
489,490,491,636,491
491,491,493,624,488
489,491,494,580,489
491,491,493,480,490
492,491,492,409,489
491,489,493,375,489
491,491,491,368,488
488,491,491,379,490
488,489,491,395,491
486,490,491,442,490
490,489,492,504,489
489,488,494,570,488
489,488,491,630,488
488,492,491,634,489
490,493,490,621,489
493,491,491,541,489
491,491,493,440,491
490,492,492,394,490
492,490,491,370,491
490,490,492,372,489
488,490,492,381,489
488,489,490,411,491
488,490,492,467,490
491,490,493,529,488
489,495,491,607,487
495,490,491,637,490
493,489,491,628,491
491,489,493,588,490
490,490,492,494,492
492,491,492,412,491
489,492,493,378,489
489,489,494,370,489
490,491,492,377,490
490,490,491,390,488
490,492,492,433,489
489,490,492,494,488
489,490,491,561,489
490,489,491,626,490
489,491,492,634,489
490,490,492,620,490
492,492,491,550,491
491,492,492,449,490
492,491,493,397,489
489,491,493,368,491
486,491,491,372,490
491,490,493,378,490
491,489,490,404,491
490,491,490,457,489
492,491,492,518,489
490,489,492,594,489
492,491,491,632,488
490,492,491,629,489
490,492,493,599,489
492,493,493,508,489
491,492,492,420,489
491,491,492,382,488
492,491,490,371,489
490,491,491,373,491
490,489,492,383,491
489,490,492,426,490
490,489,492,485,491
491,490,492,549,488
489,489,491,620,490
490,491,491,634,491
491,490,491,625,490
492,491,491,571,491
491,491,492,462,489
492,491,491,403,490
492,492,492,367,491
490,490,492,369,487
490,492,493,379,487
486,494,492,400,489
490,488,491,450,491
492,489,492,511,490
490,489,492,587,490
492,490,490,632,490
490,490,493,630,491
491,490,492,613,490
493,493,493,521,490
491,492,492,430,490
492,490,492,388,489
492,492,493,370,489
489,493,491,377,490
491,489,492,382,490
494,490,490,418,489
490,490,492,478,491
491,490,492,538,490
486,490,492,613,489
488,490,490,636,490
493,490,492,625,488
492,490,491,581,488
491,494,492,476,489
491,491,492,408,490
493,490,491,376,491
493,490,491,368,489
493,491,492,377,490
493,491,491,396,489
491,490,491,441,490
492,491,491,502,489
491,491,493,572,488
490,489,491,629,489
491,492,491,631,488
490,491,490,620,490
493,491,490,537,491
492,492,491,439,491
493,490,491,393,491
492,490,491,368,491
492,491,490,374,489
491,490,492,382,489
491,492,493,410,488
490,493,493,468,490
490,490,492,530,489
493,490,494,606,489
489,490,491,636,491
490,491,492,626,491
492,489,492,587,491
493,490,492,492,491
493,490,492,413,490
491,491,493,381,490
493,489,492,370,486
493,492,490,377,489
493,491,491,391,489
493,491,493,433,489
491,491,491,494,489
491,490,492,561,490
491,489,491,624,489
491,490,492,630,489
490,491,493,620,492
493,489,490,551,491
494,492,491,449,490
493,492,492,398,490
494,491,491,371,490
493,491,491,371,492
492,491,493,381,490
492,487,491,403,489
493,491,491,459,489
492,490,491,518,489
491,490,492,596,489
492,492,492,633,489
493,492,492,628,490
491,490,491,600,491
491,491,493,505,492
493,491,492,418,491
493,491,491,383,492
491,490,491,369,490
491,491,492,373,490
494,490,491,387,490
495,491,492,428,489
493,491,492,486,490
492,492,491,551,488
492,490,493,618,489
493,490,490,633,490
493,492,492,623,492
491,489,491,565,492
490,492,491,460,491
493,490,492,403,491
494,490,492,368,490
490,490,490,370,491
494,492,490,381,490
493,491,490,402,490
494,489,491,451,489
494,490,492,511,489
492,490,492,586,490
492,489,492,632,490
493,491,493,629,490
492,491,493,609,489
492,492,493,520,490
494,491,491,429,491
493,491,491,388,489
492,490,493,373,490
492,489,491,375,491
493,489,491,382,491
492,489,491,421,490
493,491,492,478,491
492,492,492,541,490
490,492,493,615,489
492,491,493,636,490
494,492,491,626,490
492,490,493,576,491
495,490,491,472,489
493,492,492,407,489
492,490,492,373,492
492,489,491,368,490
491,491,492,377,489
491,491,490,398,492
492,490,492,443,491
493,490,492,505,489
493,489,491,576,487
494,491,490,630,491
493,491,490,631,489
491,494,491,617,493
493,492,492,535,491
494,489,492,437,491
493,491,491,391,491
493,491,493,368,489
492,489,492,373,487
493,491,491,380,489
491,490,490,414,490
494,491,491,470,490
490,491,490,530,491
493,489,492,607,489
492,489,493,633,490
493,489,490,627,489
491,491,494,585,490
493,494,492,489,491
494,493,490,411,490
494,493,492,377,490
494,489,491,371,491
495,491,492,376,489
493,491,491,392,491
492,490,491,436,490
492,490,492,497,491
494,492,492,564,489
491,490,493,628,491
493,490,491,634,489
495,492,491,623,490
495,493,491,551,491
495,492,492,446,491
493,492,492,397,491
493,492,492,368,492
492,490,492,370,490
492,490,492,380,490
491,490,492,404,491
494,490,491,460,490
493,491,490,521,491
492,492,490,601,489
493,492,491,635,490
494,489,492,629,491
491,491,491,597,492
493,494,492,503,491
495,490,492,418,490
495,491,493,380,489
492,489,493,370,488
493,491,492,375,489
494,493,491,384,491
493,491,491,431,490
495,488,492,489,491
494,491,492,554,491
492,489,491,622,492
491,489,491,632,491
494,491,491,622,489
492,491,490,566,492
495,491,493,458,490
494,492,493,401,490
495,492,492,370,490
494,490,492,369,490
493,490,491,381,489
493,491,493,402,492
492,490,491,453,490
493,490,491,513,490
492,490,492,587,490
491,489,492,633,491
491,493,493,631,489
493,489,492,608,490
496,493,491,519,491
494,492,492,428,490
495,491,491,388,489
493,492,493,372,490
492,490,491,376,490
494,491,492,382,489
491,491,493,420,489
491,491,491,479,490
493,490,491,542,491
493,492,492,617,491
492,490,492,635,491
494,491,491,625,491
492,491,490,578,493
495,490,492,472,491
495,491,492,406,490
493,490,491,374,491
493,490,492,368,489
494,493,493,379,489
493,493,492,397,489
493,492,491,445,491
495,491,492,506,490
494,490,493,575,489
493,490,491,630,490
492,491,493,630,490
489,494,492,616,490
491,490,491,534,491
493,493,493,436,491
497,490,490,392,490
497,493,491,370,490
496,491,491,376,490
495,489,491,381,489
492,491,491,413,490
491,491,493,471,489
493,490,492,530,488
491,490,493,608,488
491,492,493,635,488
493,489,491,626,490
495,493,493,585,493
493,491,492,487,491
493,491,492,411,491
493,492,491,379,492
495,491,490,370,492
492,492,491,377,490
492,491,493,389,487
496,490,491,436,487
493,491,493,500,489
494,492,494,565,489
492,492,494,627,491
492,492,491,634,491
495,492,494,621,489
495,490,491,547,491
494,491,491,446,492
493,491,492,397,492
495,492,491,371,491
492,491,493,374,492
494,490,493,382,490
493,491,493,407,489
493,492,492,462,490
493,491,491,522,490
493,491,490,602,490
494,491,493,634,491
495,491,491,627,491
493,489,491,593,491
491,491,493,502,491
493,491,492,418,491
495,491,493,382,489
492,490,491,371,491
494,491,491,377,490
495,492,491,388,489
494,492,491,431,489
492,490,492,489,488
493,491,492,555,488
490,493,492,621,490
493,490,492,631,489
493,492,492,622,490
492,494,491,563,493
495,491,493,457,491
494,492,492,400,491
494,491,491,370,491
495,490,490,371,492
495,489,491,379,490
494,492,491,400,491
492,491,491,455,490
493,491,493,513,490
494,491,492,590,489
493,492,492,632,489
496,491,492,631,491
493,491,492,604,491
496,492,491,514,489
493,492,492,424,491
494,490,492,385,490
494,490,492,370,489
492,492,491,377,490
494,491,492,384,488
494,489,491,423,490
493,490,491,481,490
493,491,492,544,490
494,491,492,618,490
492,490,493,634,491
495,489,492,625,490
496,490,492,573,491
493,493,492,469,491
490,493,492,404,491
495,488,491,375,493
494,491,493,370,491
493,491,493,381,487
494,490,490,399,487
493,492,490,446,487
493,495,492,507,491
493,489,491,578,491
496,489,492,628,491
495,491,491,632,489
493,492,493,615,488
495,493,494,530,486
496,492,493,433,488
494,491,492,392,489
496,492,493,368,489
493,490,491,375,494
495,490,492,382,493
493,489,492,413,491
493,492,492,473,490
493,491,492,532,492
492,491,491,610,491
488,496,492,636,490
497,491,491,627,490
496,492,492,582,491
494,490,492,485,492
495,490,493,409,490
493,491,493,377,492
491,491,491,369,490
494,491,492,377,489
494,492,493,391,492
492,491,491,439,490
493,490,492,501,491
496,491,491,569,490
495,491,490,629,491
494,491,492,633,491
495,492,493,621,490
493,489,492,543,491
496,493,494,444,491
494,490,493,395,490
493,495,493,369,489
495,492,493,373,491
492,490,491,384,491
495,491,493,406,490
494,490,493,466,492
493,493,492,525,492
493,490,492,602,492
494,493,492,636,490
489,493,493,630,492
495,489,494,592,490
495,492,494,500,491
494,491,492,415,491
494,493,492,383,491
495,490,492,369,490
495,490,491,377,489
494,493,492,388,492
494,490,491,432,492
494,490,491,490,490
494,490,492,557,490
496,490,493,622,489
494,490,491,633,491
493,493,492,625,490
494,493,492,561,491
496,492,492,456,490
494,491,493,399,491
494,490,491,368,489
494,492,492,371,490
492,491,493,379,490
492,490,493,402,489
493,491,492,457,491
494,492,493,517,490
493,491,492,593,490
494,493,491,635,491
494,491,491,631,492
494,490,492,607,492
494,491,492,514,491
494,492,492,423,491
494,491,491,387,490
492,492,494,369,488
492,492,493,376,490
496,492,492,385,490
491,491,492,423,491
490,492,491,483,491
495,489,492,547,491
494,490,491,619,492
494,489,493,633,491
493,490,491,626,490
495,490,495,572,489
495,490,492,469,490
493,492,493,405,490
494,493,492,373,490
494,492,491,372,490
492,493,493,381,492
495,490,494,398,490
494,490,492,448,490
494,491,492,510,491
493,490,493,579,490
492,490,493,631,489
494,490,492,633,489
495,492,492,615,491
494,491,492,530,490
495,492,493,434,489
495,492,491,393,491
493,491,494,370,490
492,489,493,375,492
495,491,490,385,490
492,492,493,416,490
492,492,491,475,491
494,492,494,536,492
493,490,493,614,490
494,491,493,635,490
494,490,491,628,492
494,491,492,585,493
495,490,492,484,492
494,493,492,409,490
493,491,493,376,491
496,491,491,369,489
494,492,493,378,489
493,492,492,394,489
494,492,491,440,490
492,494,492,502,490
494,489,492,571,490
494,490,494,627,490
493,490,493,632,490
492,491,493,618,491
492,492,492,541,491
495,492,492,443,490
494,491,492,395,492
494,494,492,370,489
495,492,491,375,491
493,491,491,383,492
492,492,493,407,489
495,491,492,466,491
495,492,493,525,491
493,491,493,603,490
492,492,495,635,490
494,492,493,628,492
495,491,493,591,489
494,493,492,496,491
495,492,492,414,491
493,494,491,382,492
497,490,491,371,493
496,489,492,376,490
493,493,492,387,491
492,489,491,434,491
495,490,492,492,490
493,491,493,557,488
493,491,494,623,489
494,491,492,632,489
495,492,491,624,490
492,491,494,558,492
496,492,492,455,490
495,492,491,400,491
495,490,492,370,489
495,492,493,370,491
492,491,491,382,492
492,492,493,402,489
493,492,493,457,490
493,491,492,517,490
493,491,492,592,490
495,492,492,634,489
493,493,492,628,491
494,489,493,603,492
492,494,493,511,493
491,494,492,424,492
496,489,492,387,492
494,491,494,371,492
493,490,491,376,490
495,492,491,386,490
495,491,492,427,491
495,491,492,483,491
493,491,492,547,492
493,493,492,620,490
493,491,493,632,489
494,492,494,623,489
493,492,495,571,490
494,490,492,466,490
494,492,492,404,491
494,491,491,373,490
496,491,491,371,491
494,490,492,380,491
493,490,494,399,490
493,491,492,449,491
493,491,491,511,491
493,491,493,581,490
491,493,494,631,489
494,492,493,632,490
497,491,491,612,491
496,491,492,526,491
496,491,493,432,491
494,492,491,389,491
493,490,492,371,491
493,490,493,374,491
492,493,491,385,489
493,490,494,419,490
493,491,494,476,491
494,491,493,538,490
495,492,493,614,490
496,491,493,635,490
493,492,491,625,492
494,493,493,582,494
496,490,492,479,492
496,491,492,408,490
494,491,494,375,490
495,490,492,369,488
494,492,492,378,490
493,492,490,396,490
495,490,491,442,490
494,491,492,502,490
494,490,492,571,492
493,492,493,629,491
493,491,493,634,491
494,490,494,617,490
493,491,494,539,489
494,492,494,442,490
493,492,492,394,492
494,493,492,371,490
493,491,493,372,492
494,490,491,382,492
493,490,490,409,491
494,490,492,466,490
494,491,492,526,490
493,490,491,607,490
494,491,494,634,490
493,491,492,628,491
495,493,493,590,491
495,493,493,494,492
496,493,491,413,490
495,492,494,380,493
494,490,492,370,491
490,490,493,376,491
493,492,491,388,490
493,489,491,436,491
494,491,492,494,491
494,492,492,560,490
495,492,492,625,491
495,492,491,634,491
493,492,491,623,489
493,492,494,555,492
493,492,493,451,490
494,491,492,398,491
494,491,493,368,491
492,494,493,372,489
491,490,492,382,492
496,490,493,405,490
494,490,493,461,489
494,491,492,519,490
494,491,491,597,491
489,493,492,634,489
493,490,493,627,490
493,492,491,603,491
494,492,493,508,491
494,491,492,422,490
494,493,493,385,490
494,494,493,372,491
492,490,493,377,491
496,490,494,385,490
492,490,492,428,492
493,491,492,486,491
493,491,493,548,490
491,491,492,622,491
494,492,492,633,491
494,490,493,625,491
496,493,493,570,491
496,492,492,464,491
494,493,492,402,491
492,491,491,371,493
494,492,493,371,490
491,491,493,378,488
494,490,493,398,489
496,491,493,450,489
494,491,493,512,490
492,492,493,584,490
491,490,492,634,490
494,491,492,632,491
494,489,492,615,491
494,489,493,524,491
493,492,493,430,491
493,491,492,388,490
496,492,491,369,489
493,492,493,375,490
493,493,492,384,490
495,492,492,417,490
492,490,492,477,491
493,491,493,537,490
492,491,491,615,492
494,490,492,634,491
493,491,493,624,490
493,495,491,583,490
492,492,494,479,491
497,490,494,408,490
494,492,492,377,489
494,493,489,371,491
496,492,492,377,488
494,489,492,397,492
493,491,492,442,490
493,491,493,504,491
493,491,493,572,490
492,490,494,629,489
493,491,494,633,492
492,490,492,620,490
494,490,493,536,491
495,492,492,440,491
494,491,491,395,492
494,491,491,372,492
494,493,493,375,490
492,491,493,384,490
495,493,493,410,489
491,492,494,468,490
490,492,493,528,490
495,490,493,606,491
492,492,491,637,491
494,491,493,626,491
494,491,491,590,492
494,490,492,492,492
495,490,492,411,490
494,492,491,378,489
492,490,491,371,491
495,492,493,377,490
493,492,493,390,489
494,492,492,436,490
494,492,493,496,491
493,492,494,561,492
494,490,491,624,490
494,493,494,633,490
492,491,494,621,491
491,492,494,551,491
491,494,492,452,491
493,494,492,398,490
494,489,492,369,489
495,490,492,375,491
494,490,491,382,492
494,490,491,407,489
493,492,493,461,491
493,491,492,519,489
494,490,493,598,489
492,490,494,634,488
492,492,493,629,488
492,489,492,601,492
494,493,492,508,493
495,492,492,420,490
495,492,492,386,492
495,491,491,372,492
493,489,492,376,492
492,490,492,388,489
494,490,492,427,489
496,491,491,487,489
494,490,493,551,488
492,491,494,620,489
495,492,492,634,490
494,491,495,626,492
495,491,495,566,491
493,493,492,463,491
493,492,492,404,491
493,490,493,369,492
493,491,491,372,490
493,492,493,380,492
493,489,491,402,490
493,493,492,453,490
494,491,493,513,490
493,490,492,585,490
493,492,491,633,492
493,492,492,632,491
491,492,493,610,491
493,491,494,521,491
495,491,493,429,491
494,491,493,390,491
494,491,492,372,490
491,494,493,375,491
493,492,491,387,491
496,490,491,422,491
493,491,491,479,490
493,490,493,540,489
493,488,493,614,490
495,491,491,634,490
493,492,493,625,489
493,492,495,579,490
494,493,493,476,492
494,492,493,408,490
495,490,493,373,490
496,491,492,372,492
492,492,492,379,492
492,490,492,397,492
496,491,492,446,491
494,491,493,508,491
493,490,493,575,489
493,492,494,631,490
494,491,492,633,491
495,491,491,619,491
495,493,493,534,490
495,491,492,438,491
494,491,492,391,491
493,490,493,370,491
492,491,494,373,490
491,492,493,384,491
496,491,494,413,489
493,490,492,470,491
493,492,492,531,490
494,492,492,610,491
494,490,492,636,492
493,492,492,626,491
492,490,493,588,491
495,492,494,487,491
494,491,493,411,490
493,492,494,378,490
492,492,492,371,492
493,493,492,378,491
492,492,493,389,492
494,490,492,437,491
493,491,492,497,489
494,491,492,562,490
493,489,493,627,490
495,491,494,632,489
492,492,491,622,492
492,493,494,549,491
496,493,494,449,491
494,492,492,399,491
493,490,493,368,491
494,491,492,373,490
492,492,492,380,491
492,491,492,406,490
492,493,492,461,492
494,492,493,522,491
495,491,495,600,489
494,490,493,635,490
494,491,492,631,491
496,492,492,600,491
496,493,492,506,491
495,492,492,417,491
495,492,494,383,490
492,492,491,369,492
492,490,492,374,491
494,490,493,385,490
492,490,493,429,490
494,491,491,488,491
492,491,492,554,491
492,489,492,623,490
494,492,492,635,491
494,491,491,625,492
494,491,494,565,490
495,492,492,460,491
494,492,493,403,492
493,491,493,367,490
492,492,493,372,489
492,493,493,381,491
492,490,491,402,489
494,491,493,455,491
493,491,493,515,491
495,490,491,590,491
493,492,492,633,491
491,492,493,631,490
493,490,493,608,490
496,492,492,518,492
494,491,493,426,491
493,492,493,389,490
493,494,494,371,490
493,491,493,374,490
494,491,491,386,490
491,492,493,421,491
489,492,491,480,490
495,489,492,541,491
493,491,493,616,490
496,491,491,634,490
494,492,492,626,492
492,492,493,577,491
493,492,493,473,491
494,492,492,407,490
495,492,492,372,490
496,491,492,371,489
494,492,494,379,491
492,489,493,396,491
492,490,493,445,489
493,491,493,509,489
493,489,493,576,489
493,490,492,631,491
493,492,491,634,493
495,491,491,618,492
496,492,492,534,492
493,492,493,437,491
494,492,492,391,492
494,491,492,372,490
495,491,493,372,490
493,493,493,382,489
493,492,495,413,488
494,489,492,471,491
494,492,492,532,489
491,491,494,612,491
493,490,491,635,492
492,490,492,626,492
492,490,492,587,491
496,492,492,487,491
493,493,492,412,491
492,492,493,377,491
494,491,492,370,490
496,492,491,378,490
491,491,493,390,491
496,491,491,436,489
493,489,493,500,491
493,490,492,565,491
491,491,492,625,490
493,491,493,632,490
493,490,491,622,492
493,492,494,546,492
494,492,492,447,491
494,491,492,396,490
494,492,491,371,490
494,492,492,372,489
493,491,492,381,492
494,493,493,408,489
492,490,492,463,491
494,490,493,521,490
493,491,494,599,490
495,490,492,635,490
494,491,492,627,491
492,491,493,598,491
495,493,492,502,490
490,496,493,417,490
495,489,494,383,490
492,490,491,370,492
495,492,492,378,490
494,489,494,387,490
493,490,493,431,490
494,491,492,489,490
493,491,493,555,491
492,489,492,624,490
495,489,494,633,489
494,489,492,625,492
495,491,491,565,492
494,492,492,460,491
494,492,493,403,491
493,490,493,371,490
495,491,494,372,489
493,492,493,381,490
495,492,493,401,490
494,492,493,455,491
493,491,493,515,491
492,491,493,589,491
494,490,492,634,492
492,489,493,629,492
489,491,493,608,490
496,492,493,517,490
495,491,493,427,491
495,493,493,389,490
493,495,493,372,490
494,491,490,377,491
494,491,491,386,491
488,494,495,423,493
495,491,493,481,491
494,493,492,544,491
490,491,493,616,491
495,489,493,634,490
493,492,492,626,492
493,491,494,576,491
495,490,493,471,490
496,492,493,407,491
496,491,491,375,491
495,490,491,371,489
491,492,494,380,490
492,490,492,399,490
495,490,493,447,491
492,491,492,508,491
492,490,493,577,490
493,490,492,631,491
493,491,492,634,491
492,491,494,619,491
495,492,492,532,492
494,491,492,435,491
494,490,491,391,491
494,491,494,371,490
494,490,493,372,490
494,491,491,384,489
492,492,494,415,489
493,492,493,472,491
494,492,493,533,491
493,490,494,613,491
494,490,493,634,490
493,490,492,627,491
493,490,492,584,493
493,491,492,486,491
494,492,492,411,490
492,491,494,376,492
495,490,492,371,489
494,493,493,379,490
492,493,491,394,490
495,491,492,438,490
492,491,493,501,490
494,490,492,567,489
493,490,492,627,490
492,491,494,632,489
492,491,494,620,489
493,491,495,546,491
494,491,493,446,490
493,491,492,395,490
491,492,492,373,490
495,490,491,375,492
494,489,491,382,492
494,493,493,408,489
492,490,492,464,492
493,490,492,523,491
491,490,494,602,490
492,491,493,634,491
492,495,491,627,491
490,491,493,596,491
497,488,494,498,492
495,492,493,417,491
492,491,493,383,493
493,489,491,370,492
495,492,492,378,490
492,491,493,389,492
495,490,492,431,490
491,494,493,492,491
495,491,493,557,490
495,491,492,624,491
495,491,494,633,490
493,490,493,624,490
493,493,493,559,492
494,491,493,456,491
494,491,493,401,491
493,491,494,372,491
495,490,494,372,490
493,490,492,379,491
494,492,492,404,490
493,491,492,457,490
493,490,493,516,490
493,491,494,591,491
493,490,493,635,490
494,491,493,628,490
492,492,494,605,489
492,492,494,516,491
493,491,493,425,492
494,493,492,389,490
493,490,492,370,492
496,490,490,376,492
492,489,492,386,493
492,489,493,424,491
492,491,493,482,490
495,493,494,546,490
493,491,492,620,492
492,493,492,636,490
494,493,493,626,491
493,496,492,576,491
494,491,492,468,491
495,491,492,404,490
493,492,492,372,492
494,490,493,370,490
492,490,493,380,490
492,490,491,400,491
495,492,493,448,490
493,490,492,510,490
493,491,493,581,489
493,493,493,633,491
494,491,491,633,490
493,492,494,616,492
493,491,495,529,491
492,492,492,432,491
495,491,493,390,490
493,491,494,370,490
492,491,494,374,490
493,489,492,384,489
494,493,493,416,491
493,490,492,474,490
492,491,493,536,488
491,492,491,613,491
492,490,492,635,490
495,491,493,625,489
496,492,492,585,490
494,492,494,482,491
495,493,495,411,490
494,492,493,379,492
493,490,493,372,491
495,491,495,378,490
493,490,492,394,494
494,490,491,440,491
494,492,493,501,492
493,491,492,570,491
492,492,494,627,492
493,490,492,634,491
494,492,492,621,490
495,494,493,544,491
494,493,493,444,492
492,493,492,394,491
494,490,491,372,492
494,492,493,374,491
493,490,494,379,490
492,491,494,408,489
492,491,493,465,491
492,490,492,525,490
493,491,493,605,491
491,490,492,635,491
494,490,492,629,491
493,490,491,594,492
494,492,493,497,490
494,491,493,415,489
493,491,492,380,490
492,491,493,369,489
494,492,493,377,489
494,492,493,388,491
491,489,491,434,489
494,492,494,495,490
491,493,492,558,491
494,490,492,624,491
493,490,493,632,491
492,491,493,622,493
495,492,491,557,489
494,492,493,455,491
493,491,493,400,490
494,493,492,370,490
494,491,492,374,491
494,490,494,380,490
493,489,492,405,489
492,492,493,458,491
490,492,492,516,490
492,490,494,593,489
491,491,494,636,492
492,489,493,630,490
492,491,493,604,492
496,492,492,514,492
498,491,493,424,491
494,492,492,388,492
496,493,493,372,492
493,492,492,377,491
491,495,493,385,490
492,489,494,425,489
492,489,494,485,489
492,491,493,547,489
493,489,492,618,492
494,491,492,635,489
493,492,494,626,492
492,491,491,573,493
493,492,493,468,491
493,491,492,406,490
494,491,493,370,489
492,491,492,373,492
493,492,493,381,490
494,493,492,400,490
494,492,493,450,491
493,491,493,510,491
494,490,492,582,490
492,492,492,632,491
492,491,493,630,490
493,492,493,612,490
490,495,491,529,492
493,491,493,432,491
496,490,493,391,490
495,492,493,374,491
495,490,491,376,491
494,491,492,384,492
494,490,492,418,489
493,491,492,475,491
493,492,492,538,490
492,490,494,611,490
492,491,493,635,490
494,492,493,627,490
492,489,493,581,491
495,492,492,480,491
494,491,492,411,491
492,490,492,376,492
495,490,491,370,491
493,491,491,380,491
494,492,493,391,490
495,491,492,443,491
493,490,494,502,489
493,492,493,571,490
494,493,493,629,490
491,492,494,634,492
494,490,493,619,490
493,490,493,541,492
493,491,492,442,490
494,490,493,394,491
493,490,492,371,492
493,491,492,376,490
492,490,493,383,490
493,492,494,410,489
492,491,493,466,490
493,490,493,526,489
493,492,492,606,491
493,491,492,636,491
491,492,493,627,491
493,490,491,593,492
494,490,492,495,492
495,491,492,415,490
493,491,493,380,492
490,489,491,371,491
492,493,493,377,489
491,492,492,388,490
490,493,491,434,490
494,489,492,494,490
493,492,491,560,489
489,492,494,627,490
496,488,493,634,491
493,491,492,621,491
493,490,493,555,491
495,491,494,454,491
495,490,493,399,491
495,491,492,373,489
492,491,494,374,490
494,492,491,382,491
494,492,492,406,490
492,491,493,460,491
493,492,493,517,490
493,490,492,599,492
494,489,492,634,491
493,490,493,627,490
492,491,492,605,491
492,491,493,509,491
495,492,492,419,490
493,492,493,387,489
493,492,494,371,489
493,493,491,375,489
490,491,492,389,491
496,490,494,425,490
494,491,492,486,490
492,490,492,549,492
492,488,492,618,491
493,491,493,633,491
493,491,493,624,489
493,491,492,571,492
495,492,494,465,491
493,491,492,404,491
495,493,490,372,490
494,491,494,370,489
492,489,492,381,491
492,493,494,400,491
492,490,493,451,491
494,491,493,511,491
493,491,493,586,490
494,492,494,632,489
493,490,492,630,491
494,492,492,614,489
494,493,492,526,491
493,491,493,429,490
493,492,493,389,492
493,493,491,370,490
490,494,492,374,491
494,490,493,384,491
493,489,493,418,490
492,490,492,476,489
493,491,492,540,490
492,491,493,613,492
493,490,492,636,491
494,492,491,628,491
494,493,491,582,492
495,491,492,478,490
493,492,492,409,491
493,492,492,374,489
493,490,493,369,490
491,491,494,378,490
492,491,493,393,489
495,490,492,444,490
492,490,492,504,492
493,490,491,573,489
494,492,493,631,491
494,489,491,633,492
494,490,493,618,489
493,491,492,538,492
494,492,493,437,491
494,492,493,393,491
492,492,494,369,491
493,491,494,374,490
493,491,493,383,491
492,490,493,412,489
493,491,492,468,491
493,493,493,529,490
493,493,492,609,490
494,490,491,635,491
494,491,493,628,491
493,488,493,590,490
495,491,494,491,492
494,491,493,414,491
493,491,493,380,490
492,491,490,371,492
494,492,493,379,489
492,490,493,389,490
495,492,492,437,489
494,492,493,496,489
494,490,491,562,489
493,492,494,627,491
494,490,492,635,491
495,491,493,619,490
492,492,495,552,490
493,491,494,452,491
492,491,492,399,490
495,491,492,372,489
492,494,493,372,490
492,492,491,382,490
493,490,492,408,491
494,489,493,461,491
494,490,494,518,491
494,490,493,598,491
493,492,492,636,490
493,491,494,628,489
492,492,495,601,489
493,492,494,509,490
495,492,493,419,490
494,492,492,386,491
493,492,492,372,490
494,491,492,379,491
494,490,492,390,491
495,492,493,427,490
493,491,492,487,491
491,491,492,550,491
492,489,493,618,490
492,491,494,635,489
493,492,494,624,490
491,493,491,569,493
494,493,493,464,490
494,490,492,403,491
493,493,491,373,491
495,491,491,373,492
494,489,492,380,490
494,493,493,400,491
492,490,492,453,491
493,491,492,511,490
493,491,494,585,489
492,491,494,633,489
493,490,492,629,491
495,492,492,614,490
492,491,494,523,491
495,493,493,428,491
495,494,493,391,492
492,491,492,371,492
495,492,493,374,492
492,493,492,387,491
492,489,495,419,490
493,492,494,479,490
490,493,494,542,491
492,491,494,615,493
492,490,493,637,491
494,491,494,627,489
495,489,492,581,493
495,492,493,478,492
492,493,493,409,492
495,491,492,376,491
494,490,494,370,492
493,489,492,378,490
494,492,493,395,489
493,493,493,445,490
493,491,493,505,491
493,491,492,575,490
494,492,494,631,490
493,490,492,630,491
493,490,494,617,491
493,491,494,536,491
495,492,492,439,491
492,494,493,393,492
495,491,494,370,490
494,492,491,374,490
494,492,492,383,490
494,492,492,414,491
494,492,494,467,490
492,491,493,530,490
492,492,493,607,491
492,491,493,633,489
495,493,494,627,489
493,493,495,589,493
492,493,493,490,491
494,491,493,413,492
494,491,492,380,492
495,491,492,371,492
494,490,493,378,491
492,491,493,390,492
492,491,493,438,490
493,491,492,498,490
493,491,493,561,487
492,492,494,626,490
493,493,493,633,491
492,492,491,622,489
492,491,495,549,491
494,492,492,448,491
494,491,491,397,492
493,491,492,371,493
492,491,493,374,492
494,491,493,379,489
493,490,491,408,492
493,492,492,460,490
493,491,492,520,490
493,493,491,601,490
492,490,493,633,491
493,491,492,629,490
492,491,493,598,492
493,490,493,504,491
495,492,493,419,490
493,492,492,387,492
495,491,494,370,490
492,490,492,376,490
494,492,491,389,491
494,493,491,429,491
492,494,493,489,490
492,491,493,552,492
495,488,492,621,489
494,490,494,634,490
493,491,494,622,489
492,491,495,565,489
494,492,494,462,490
494,491,491,402,490
494,492,492,369,489
492,491,492,373,492
493,490,491,380,492
492,490,492,402,492
493,490,493,454,490
493,491,492,512,490
494,491,491,591,489
492,492,493,634,490
494,491,492,632,491
494,492,492,612,491
492,491,494,521,492
495,492,493,427,491
493,491,492,390,492
493,491,491,371,491
492,491,493,373,490
493,491,492,387,492
492,492,494,420,492
495,492,492,481,491
494,492,493,544,491
492,494,493,616,491
493,490,493,636,491
495,490,494,626,490
494,490,491,576,493
495,494,492,475,492
494,492,492,406,491
493,493,493,372,490
493,491,494,371,492
493,489,493,380,490
494,492,493,395,491
492,491,492,448,490
494,490,492,506,491
493,491,491,576,492
493,493,494,632,491
494,490,493,630,489
495,492,491,616,489
493,492,495,533,491
492,494,493,437,491
494,491,493,393,492
493,490,492,371,491
494,491,493,372,490
494,490,492,384,492
494,490,491,414,492
493,490,492,470,491
493,491,492,530,490
493,490,491,607,490
492,492,492,635,492
492,492,492,629,491
493,492,493,587,491
495,493,493,488,491
495,492,494,411,491
494,490,492,379,490
495,493,493,370,491
493,491,493,377,491
493,491,493,389,490
492,491,493,440,491
494,492,493,499,491
493,492,492,564,491
494,493,492,630,491
494,490,491,633,492
494,490,491,621,492
493,493,495,549,492
494,491,492,446,490
494,492,493,396,490
492,491,494,370,491
492,491,493,373,490
492,493,493,382,489
493,490,491,408,490
494,491,492,462,490
494,492,493,524,491
493,490,492,603,492
493,490,492,634,492
492,491,492,630,492
494,491,493,595,492
493,491,492,503,491
494,491,493,416,490
493,491,493,385,490
494,492,493,371,490
492,491,494,376,491
494,491,491,387,490
492,491,493,431,491
493,491,493,492,492
493,492,493,553,491
491,490,493,624,490
495,489,494,635,490
493,490,492,622,491
494,494,493,564,491
495,492,493,460,491
494,491,492,402,492
493,491,492,369,489
491,493,492,372,491
485,498,491,381,491
495,488,494,401,490
495,488,494,454,491
494,490,492,513,489
493,490,492,591,489
493,492,492,632,491
493,491,492,632,492
494,490,492,612,493
494,490,492,519,492
494,491,493,426,491
493,491,492,389,491
495,492,491,373,489
493,492,494,376,489
493,492,493,387,489
494,492,493,423,490
493,491,492,482,489
494,491,493,544,489
492,489,491,618,492
493,490,493,635,492
491,490,493,625,491
492,490,493,575,491
495,492,493,475,491
494,491,494,408,491
494,490,494,373,489
493,492,493,374,491
493,491,492,381,490
494,490,494,396,489
492,491,493,448,493
494,491,493,506,492
493,491,493,577,490
491,490,494,631,490
492,492,493,632,492
494,490,492,619,490
495,493,493,531,493
495,493,493,434,491
494,493,493,394,491
494,493,492,374,492
493,493,493,374,490
493,490,492,383,490
494,491,492,413,490
493,490,493,471,490
492,490,493,533,490
491,490,493,609,489
492,492,492,635,491
493,492,494,630,490
492,492,493,583,490
495,493,493,487,490
494,491,492,413,491
495,490,492,378,490
493,492,493,371,492
492,491,492,380,491
495,490,494,389,491
491,491,494,439,490
494,491,494,501,490
494,490,492,565,491
494,493,493,630,490
492,491,494,633,492
494,490,492,621,493
494,491,492,548,493
494,491,492,445,491
493,494,493,396,490
491,490,493,373,491
493,489,493,372,490
491,494,492,382,490
492,493,494,409,490
495,489,492,463,491
493,492,492,524,491
494,490,493,601,489
492,490,493,634,490
492,491,494,628,490
491,491,494,594,490
491,492,492,502,491
494,491,493,416,492
493,490,492,383,490
494,493,492,371,490
494,491,492,378,491
494,490,492,387,489
493,492,492,431,491
493,491,493,493,491
493,490,492,554,490
492,490,494,622,489
492,492,494,635,489
493,489,493,622,490
494,494,493,560,491
493,492,492,457,491
494,491,492,401,492
494,491,491,373,492
494,490,492,372,491
492,492,491,381,490
493,491,493,401,491
494,491,493,455,490
494,492,493,515,489
493,492,493,593,489
493,492,492,631,489
492,492,492,631,491
494,491,494,606,491
494,490,492,514,493
494,492,492,424,492
493,491,492,388,491
494,493,491,374,490
491,493,493,377,492
491,490,492,387,490
495,492,491,424,491
495,491,492,482,491
494,491,493,545,490
492,489,491,617,490
491,492,492,636,490
493,490,494,624,489
493,490,495,573,490
493,492,495,472,490
491,493,494,407,491
495,489,493,374,489
495,490,493,372,489
495,490,491,381,491
494,490,491,400,492
493,491,493,449,492
494,490,493,509,491
494,491,493,583,491
495,491,494,631,490
494,493,493,632,491
493,493,492,617,490
494,493,494,528,490
493,493,492,432,490
494,492,493,392,493
493,489,492,371,494
493,490,493,373,491
492,491,493,383,491
495,491,491,414,490
493,492,492,475,491
493,491,493,536,490
492,493,492,611,489
494,491,492,636,491
494,491,492,628,492
491,493,494,582,493
495,491,492,484,491
494,491,492,410,491
493,491,493,374,491
492,491,494,371,489
493,492,492,379,491
493,492,492,393,489
492,490,493,440,490
493,491,492,501,490
494,490,492,567,491
493,490,492,629,490
494,491,492,631,490
492,492,492,622,491
495,492,495,543,491
493,492,493,442,491
494,492,493,395,491
494,490,493,370,492
494,491,491,374,490
492,493,493,383,491
490,492,491,409,492
493,491,493,464,492
495,491,493,524,490
492,491,492,606,491
495,490,493,635,490
493,490,493,628,491
494,492,492,594,491
494,493,492,498,490
495,492,493,416,490
493,491,493,382,492
495,490,494,370,490
494,490,493,375,491
492,491,493,386,490
491,493,494,431,489
493,490,493,495,491
491,493,492,557,491
492,489,493,626,491
494,491,491,635,492
493,490,491,622,492
495,491,492,561,490
494,492,493,455,491
496,492,493,400,491
493,492,494,370,490
492,491,493,373,490
494,493,492,382,490
494,493,492,406,490
492,491,493,457,491
495,492,493,516,490
493,490,493,595,492
493,489,493,633,491
492,491,494,629,490
493,490,492,609,493
493,492,493,513,492
494,491,493,423,491
493,492,492,388,491
495,493,491,373,491
495,491,492,376,489
493,492,492,386,493
493,493,492,426,489
492,491,492,484,489
