Sensor0,Sensor1,Sensor2,Sensor3,Sensor4

497,494,493,244,492
497,496,493,262,494
496,495,493,493,543
494,498,494,493,687
495,499,495,493,775
3,493,495,494,493
321,494,498,495,493
421,493,496,495,493
543,494,498,494,493
687,495,499,495,493
775,495,497,494,493
765,494,498,494,493
716,496,498,498,493
545,494,497,495,493
360,494,497,495,493
286,494,496,494,494
247,493,497,496,493
261,493,496,495,494
294,495,498,495,494
362,494,496,495,493
472,494,497,495,494
593,493,496,494,494
743,494,499,495,493
783,493,497,496,493
757,495,499,496,493
652,493,496,495,493
454,495,497,496,493
323,493,496,495,493
263,494,499,494,493
248,493,498,495,494
280,492,496,496,493
314,491,497,497,493
412,493,497,496,493
525,495,497,494,494
667,492,499,498,494
774,493,497,496,493
774,494,499,496,493
737,495,500,496,493
573,495,497,495,493
376,493,498,496,493
296,492,496,497,494
250,495,496,494,494
259,495,497,494,493
284,494,496,494,494
346,493,497,494,494
462,493,498,494,493
576,493,499,496,493
745,493,497,496,493
782,492,497,496,493
757,492,497,496,493
675,496,498,494,492
481,493,496,496,493
332,494,496,496,493
269,493,497,497,493
246,493,498,497,494
275,493,498,495,493
299,493,499,496,493
402,493,496,495,494
516,494,498,495,493
648,496,499,495,493
775,495,498,495,493
779,493,498,497,494
740,495,497,497,493
605,494,496,495,493
398,494,496,495,493
300,493,496,496,494
240,493,496,495,494
255,495,498,495,494
282,492,496,496,494
340,495,497,496,493
447,493,497,495,493
563,493,499,497,493
724,492,498,494,494
785,494,500,497,493
769,492,497,496,494
702,496,498,495,493
512,495,498,496,493
340,494,497,495,494
276,493,497,498,494
243,494,496,496,494
272,493,496,495,493
293,493,496,495,494
382,492,497,496,494
499,493,497,495,494
629,493,499,497,494
767,495,497,495,493
788,494,499,496,494
755,496,500,496,493
633,495,498,496,494
422,494,497,496,493
309,494,497,495,494
241,491,497,497,494
248,493,496,495,493
273,493,497,497,494
325,492,497,496,494
435,494,498,495,494
548,493,498,495,494
705,495,499,497,494
794,494,499,496,494
775,495,500,496,493
728,495,496,496,493
535,495,498,496,493
352,492,496,496,494
284,494,496,494,494
241,494,496,495,493
258,494,496,495,494
294,495,499,495,494
367,493,498,495,494
485,493,497,495,494
613,493,498,497,494
762,493,499,497,493
792,494,500,496,493
756,493,497,496,493
658,495,499,497,493
442,493,496,495,493
317,495,497,495,494
247,495,497,494,494
241,493,498,496,494
278,492,497,496,494
321,495,497,495,494
419,493,497,496,494
537,493,498,496,493
683,492,498,497,494
789,493,497,496,494
781,494,497,496,494
739,496,498,495,494
563,495,498,496,493
367,494,497,495,493
288,493,497,497,494
235,494,496,495,494
256,494,498,496,494
280,492,496,496,494
351,493,497,496,494
465,494,497,496,493
592,493,497,493,494
751,493,500,496,493
791,493,497,496,493
771,496,499,495,493
677,496,499,496,493
472,494,497,496,493
321,493,497,495,493
250,494,498,498,493
242,493,495,495,493
260,493,496,496,494
298,492,496,496,493
404,494,497,495,494
522,494,497,497,494
658,494,496,497,494
792,495,499,496,493
789,496,500,496,493
752,496,499,497,493
593,493,497,496,493
385,493,497,497,494
291,494,495,494,494
230,494,497,496,494
244,492,496,496,494
273,492,496,496,494
342,495,497,496,494
450,493,497,495,493
575,493,498,496,494
744,493,500,497,493
801,495,499,496,493
776,492,497,497,493
696,496,498,496,493
498,493,496,496,493
329,495,496,495,493
259,494,496,495,493
229,492,496,495,494
264,495,496,497,494
289,496,497,495,494
390,493,497,496,494
507,494,498,496,494
642,494,500,498,494
778,494,497,495,494
795,495,499,497,493
757,492,498,495,493
623,496,496,495,494
407,495,498,496,494
298,494,497,496,494
230,492,498,496,494
235,493,497,497,494
273,495,499,496,494
324,492,497,496,494
436,493,498,496,494
558,493,498,495,494
720,495,499,498,494
804,493,497,496,494
785,496,499,495,494
723,496,499,495,493
527,494,498,496,494
341,492,496,496,493
270,495,496,498,494
234,493,496,495,494
249,493,496,495,493
280,492,496,496,493
369,492,497,495,493
493,494,496,495,494
624,495,498,495,493
777,492,498,497,494
803,494,499,496,493
768,494,500,497,493
654,494,499,496,494
430,494,497,495,493
307,492,496,495,493
239,494,498,494,493
236,496,498,494,493
263,494,498,495,494
316,491,496,496,492
421,494,498,496,493
545,493,497,495,494
698,495,497,494,493
798,494,497,495,493
783,492,499,495,493
749,493,497,496,493
554,495,498,496,493
359,493,496,495,493
281,493,497,497,493
226,492,497,498,493
247,494,495,497,493
280,493,495,495,493
353,493,498,495,493
476,493,497,496,494
606,495,499,496,494
769,493,500,495,493
802,491,497,496,492
771,495,497,497,493
672,492,496,495,493
459,494,496,495,493
316,493,497,495,492
242,494,498,498,494
236,493,496,495,494
263,493,498,495,493
299,492,495,494,493
408,493,497,495,494
528,494,497,496,493
680,494,499,494,493
797,492,499,495,493
794,493,498,497,494
757,493,497,496,492
581,493,497,496,493
373,492,497,496,493
287,492,497,497,494
230,496,498,497,494
241,492,496,496,493
270,493,497,494,493
335,492,496,496,493
458,492,497,495,493
587,493,497,495,493
759,494,499,495,493
807,492,497,495,493
775,493,497,497,493
685,492,496,496,493
492,493,497,495,493
322,494,498,496,493
259,492,495,494,494
226,493,495,495,494
250,492,495,495,493
285,493,498,495,493
393,493,497,495,493
516,494,499,495,493
655,492,496,496,493
790,493,498,497,493
799,493,499,495,493
759,494,499,497,493
618,494,497,495,493
399,493,497,495,494
296,494,496,495,493
230,496,498,495,493
233,495,496,495,493
271,493,498,494,493
323,493,499,495,493
447,493,497,495,493
568,494,497,496,494
732,493,498,497,493
809,495,497,495,493
789,494,499,496,493
707,494,497,496,493
520,494,497,496,493
335,493,498,495,493
266,495,499,495,493
227,492,497,494,494
249,492,498,498,493
280,494,496,494,494
377,494,497,495,494
498,494,498,494,493
639,493,500,496,493
782,494,497,495,493
805,495,498,497,493
772,492,497,497,493
644,493,498,496,493
419,493,497,496,493
303,494,496,494,493
234,492,498,496,494
227,493,496,496,494
268,495,498,495,494
322,495,498,495,494
429,494,499,495,493
553,494,498,495,493
716,493,498,496,493
810,495,497,494,493
791,495,497,494,493
742,496,499,495,493
543,493,496,495,493
350,494,497,496,493
274,492,496,494,493
230,493,495,494,493
244,494,496,494,493
274,493,498,497,493
367,493,497,494,493
484,493,498,496,493
617,492,496,495,493
775,493,497,496,493
806,492,497,496,493
773,492,497,495,493
672,496,497,496,493
445,494,498,496,493
312,492,496,496,493
242,492,496,496,492
231,493,498,498,493
260,494,497,495,493
306,492,497,494,493
414,494,496,495,493
540,493,497,496,494
688,492,497,496,493
805,493,498,495,493
796,493,498,497,493
752,496,499,495,493
569,492,497,495,493
367,493,496,494,493
281,493,496,496,492
234,494,498,496,493
240,492,498,495,494
273,492,496,496,493
348,492,496,495,493
466,493,497,495,493
593,493,498,497,493
765,496,498,495,493
811,494,499,495,493
773,493,500,495,492
689,495,499,496,493
476,494,497,496,493
320,494,496,496,493
248,495,498,494,493
227,492,498,497,493
252,495,496,494,493
291,494,496,495,493
397,493,497,495,493
524,494,498,495,493
664,492,499,495,493
799,492,498,497,493
800,494,499,497,493
764,493,499,497,493
603,493,496,496,493
390,493,499,495,494
288,492,497,495,493
231,495,496,495,493
239,495,496,494,493
266,494,496,494,493
329,493,498,496,493
454,495,498,495,493
575,494,499,496,493
741,493,497,495,493
808,493,497,496,493
781,492,498,498,493
705,495,497,497,493
505,494,497,495,493
327,492,497,496,494
265,494,499,497,494
230,495,499,495,493
255,492,497,497,493
287,495,497,494,493
383,493,498,496,493
507,494,497,495,493
641,494,496,494,493
783,495,498,496,493
804,495,497,496,493
766,496,499,495,493
629,492,497,497,493
409,494,496,496,493
300,494,498,497,493
231,492,499,495,493
233,492,496,495,493
269,495,497,498,493
320,495,497,495,493
435,495,497,495,493
560,495,498,494,493
717,492,499,498,493
803,494,497,495,493
786,494,500,496,493
722,493,496,495,492
531,493,497,495,493
342,493,497,495,493
276,494,496,496,493
227,494,497,495,493
247,491,496,496,493
280,492,496,494,493
367,494,496,494,493
489,494,497,496,493
623,494,496,497,493
780,493,497,495,493
802,493,496,495,493
770,495,496,494,493
656,496,497,495,493
439,494,497,495,493
311,495,496,495,493
242,491,497,494,493
234,491,494,496,493
263,493,496,495,493
313,492,497,495,493
424,494,496,495,493
545,495,498,495,493
700,491,497,497,493
806,493,499,497,494
791,494,499,497,493
741,493,496,494,493
560,494,497,495,493
359,493,498,496,493
285,494,497,495,493
238,494,497,494,493
251,495,496,497,493
274,495,498,494,493
355,493,497,495,492
475,494,497,494,493
604,493,497,494,493
767,496,499,495,493
802,495,496,497,493
777,494,496,494,493
671,494,500,496,492
461,493,497,495,493
319,493,496,495,493
246,493,495,495,493
237,495,497,494,494
263,492,497,494,493
301,496,498,496,493
411,493,497,495,493
530,493,498,496,493
672,493,496,495,493
792,496,499,495,492
788,492,498,496,493
751,496,498,495,493
587,495,496,495,493
381,494,497,496,493
290,492,498,495,493
231,495,498,496,493
249,493,496,495,493
274,493,497,495,493
339,493,496,495,493
456,493,497,496,493
584,495,498,494,494
746,493,497,495,494
803,496,497,497,493
778,493,498,497,493
693,493,499,498,493
493,493,496,496,492
327,492,497,496,493
255,493,496,494,493
237,495,498,494,493
264,496,498,495,494
294,496,498,495,493
392,492,496,495,493
512,494,497,496,493
648,495,497,493,493
783,495,496,495,493
789,494,497,495,495
753,495,500,496,493
613,492,496,495,492
403,494,498,495,493
297,493,497,496,493
230,492,496,496,493
246,492,497,497,493
272,491,497,494,493
330,492,498,496,493
440,495,497,495,493
564,494,498,496,493
729,494,500,497,493
800,495,500,496,493
773,492,497,494,493
715,496,497,497,492
519,495,497,495,493
339,495,497,495,493
271,496,496,494,493
236,493,499,497,493
256,493,495,495,493
292,494,499,496,493
376,493,497,495,493
492,493,497,495,493
625,492,498,494,494
776,496,498,497,493
795,496,497,495,492
763,494,500,497,493
645,495,498,495,492
426,494,497,496,493
308,495,499,497,493
235,493,494,495,493
246,495,497,497,493
269,495,498,494,493
321,495,497,494,493
426,495,498,495,493
546,493,498,496,493
698,494,496,494,493
797,494,500,496,493
776,493,498,496,493
731,493,497,497,493
545,493,497,495,493
356,494,497,496,493
286,494,497,495,493
239,493,498,496,493
261,494,499,494,492
288,495,499,495,494
359,493,497,496,493
480,494,497,496,493
605,493,497,495,494
759,496,498,495,493
791,494,497,495,493
759,494,497,496,493
658,495,498,495,493
452,494,496,495,492
319,495,497,497,493
253,492,497,497,493
245,494,498,497,493
273,494,499,495,493
308,492,499,495,493
416,494,497,495,493
534,494,498,495,493
676,496,498,494,493
786,495,498,495,493
783,494,500,496,493
740,493,496,496,493
574,495,497,496,493
375,494,496,495,493
292,493,497,497,493
238,492,497,495,493
251,493,498,495,493
279,493,496,495,493
352,495,498,495,493
466,494,497,495,493
586,495,498,494,493
746,497,499,497,493
795,493,497,495,493
762,495,499,496,493
672,493,496,496,493
480,494,496,495,493
326,494,498,497,493
260,496,497,494,494
246,494,498,495,494
262,493,498,496,493
308,494,499,495,493
403,494,498,495,493
514,494,497,496,493
649,495,498,494,493
778,494,499,497,493
776,494,496,496,493
744,493,496,495,493
597,494,496,495,493
397,494,497,495,493
300,493,497,495,493
244,492,497,497,493
256,492,497,497,493
285,493,497,496,493
341,494,498,496,493
447,494,498,495,493
568,494,498,496,493
722,493,500,496,493
793,495,498,494,493
767,496,497,495,493
697,496,499,497,492
511,494,496,494,492
339,493,498,496,493
271,492,495,495,493
243,492,496,496,493
266,492,497,497,493
297,496,497,497,493
388,493,497,495,493
499,493,498,496,493
633,493,498,497,493
772,493,500,496,493
786,493,497,495,493
754,495,498,495,493
626,493,497,495,493
418,493,497,495,493
312,494,495,495,493
247,496,497,494,493
250,495,498,496,493
284,493,496,495,493
336,495,499,495,492
433,493,496,495,493
552,494,497,495,493
702,492,497,496,493
786,496,497,497,493
774,494,497,495,493
713,494,500,497,493
537,494,497,496,493
355,494,498,495,494
287,493,496,496,493
253,496,497,493,493
266,492,497,495,493
290,493,496,494,493
372,494,496,494,493
484,494,497,496,493
614,493,496,494,493
756,495,499,495,493
782,492,498,497,493
754,491,497,497,493
651,493,497,497,493
443,493,497,495,493
319,494,496,496,493
257,493,496,494,493
245,494,499,495,493
280,495,497,495,493
325,496,497,494,493
419,493,497,495,493
537,495,497,494,493
682,493,499,495,493
778,493,496,495,493
770,493,496,495,493
732,493,497,495,493
562,494,497,495,493
371,494,496,495,493
293,493,497,497,493
245,492,497,497,493
266,493,498,497,493
285,494,495,494,493
362,495,498,494,493
468,493,498,496,493
592,495,498,496,493
754,495,499,494,493
786,496,497,494,493
756,494,499,497,493
666,495,497,494,493
471,493,497,495,493
328,493,496,495,493
262,491,495,494,493
248,492,496,494,493
279,495,496,496,493
313,495,496,494,493
410,493,497,497,493
525,493,497,495,493
660,494,500,497,493
773,493,497,495,493
779,496,498,496,493
742,493,498,495,493
588,494,497,496,493
393,493,496,495,493
303,494,497,497,494
248,495,495,494,493
265,494,499,496,494
283,493,496,495,493
344,492,496,495,493
456,494,497,495,493
571,493,497,495,493
734,496,497,496,493
790,495,497,495,493
766,494,499,497,493
690,494,499,496,493
501,494,498,496,493
335,493,496,496,493
278,495,498,495,493
248,492,497,494,493
272,494,496,495,493
301,494,495,494,493
392,494,498,496,493
507,494,496,494,493
643,495,499,495,494
765,493,498,496,493
779,493,498,497,493
749,495,498,497,493
614,495,496,497,494
414,494,497,495,493
309,494,499,496,493
251,493,499,496,493
263,495,497,495,493
288,495,498,494,494
335,492,497,496,493
443,495,497,495,493
556,494,497,495,493
711,495,497,494,493
783,494,496,494,493
762,493,499,495,493
714,493,496,496,493
527,495,498,496,493
349,493,496,496,493
287,493,497,497,493
253,494,498,496,493
266,493,496,495,493
303,494,495,495,493
378,495,498,496,494
492,494,498,495,493
618,494,496,493,494
759,493,499,497,493
778,494,496,495,493
755,496,499,496,493
637,493,497,496,493
432,493,496,495,493
318,493,497,497,493
254,492,496,494,493
252,493,498,496,493
277,493,496,495,493
331,495,497,495,493
429,493,498,495,493
544,495,497,494,493
685,491,497,494,494
780,495,498,496,493
770,494,496,496,493
723,493,496,495,493
548,494,496,494,493
364,494,498,496,493
292,492,496,495,494
255,495,498,496,493
266,492,497,497,493
297,492,497,496,493
368,493,497,495,493
475,493,498,496,494
601,494,496,493,493
754,494,500,496,493
786,494,498,495,493
758,495,497,494,492
663,496,498,495,493
457,493,496,495,493
326,494,496,495,493
259,496,498,494,494
250,494,495,494,493
278,493,496,494,493
314,491,498,497,493
411,493,496,495,493
527,493,497,494,492
662,493,497,495,493
777,494,496,495,493
771,493,496,496,493
738,496,495,496,493
574,495,496,496,493
379,494,495,495,493
297,493,495,496,494
244,492,496,496,493
264,495,498,497,493
286,492,496,494,493
355,495,498,496,493
459,494,496,495,493
578,493,496,495,494
735,493,496,496,493
781,495,497,496,492
761,493,498,496,493
672,495,496,497,493
486,494,497,496,492
335,492,497,496,493
273,493,499,496,493
245,491,498,496,493
279,493,496,495,493
310,496,499,495,493
403,495,498,496,493
512,494,500,494,493
639,493,496,496,493
775,494,497,497,493
775,493,497,496,493
740,493,497,495,493
602,493,497,496,493
404,491,497,497,493
307,489,496,495,493
253,492,498,494,493
255,494,496,496,493
284,495,496,496,493
339,493,497,496,493
445,493,497,496,493
560,494,498,496,493
723,495,497,494,493
788,496,500,495,493
765,496,498,494,493
702,497,498,495,493
512,493,497,497,494
343,494,496,496,494
281,493,496,495,494
245,493,496,496,494
268,492,495,496,493
297,492,498,496,494
386,492,496,497,493
499,492,498,497,494
626,491,498,497,494
763,491,499,497,493
783,491,499,496,494
742,490,496,496,493
636,493,496,495,494
421,493,497,495,494
313,494,498,495,493
253,496,498,494,494
255,496,496,494,493
280,493,497,498,493
327,493,494,495,494
432,493,495,494,493
547,494,496,495,493
694,494,495,495,493
783,495,498,495,493
767,495,499,497,493
719,498,498,495,494
540,494,499,496,493
359,495,499,495,493
293,494,499,496,493
241,491,498,496,493
269,495,496,496,493
295,494,496,494,494
369,493,497,495,493
482,492,497,494,494
606,491,499,496,494
752,491,497,493,494
788,495,499,493,494
756,492,499,494,493
654,493,498,493,493
450,492,496,497,493
322,493,497,498,493
251,492,499,500,493
249,492,496,496,493
280,496,498,494,493
324,499,497,495,493
420,497,498,496,493
530,496,497,495,493
674,497,498,498,493
785,496,497,494,493
770,494,497,494,493
736,494,497,495,493
565,495,498,495,493
373,492,496,494,493
296,494,495,494,494
246,492,498,491,493
267,494,499,485,493
294,494,497,485,493
351,492,495,491,494
470,492,494,493,494
589,495,497,494,493
747,497,500,501,493
787,495,498,500,493
758,495,497,495,493
677,497,502,499,493
475,495,500,500,492
330,492,499,500,493
262,490,497,498,493
249,491,499,499,493
276,494,498,496,493
311,492,499,493,494
402,494,496,489,493
518,495,498,485,493
655,496,498,489,494
781,496,498,495,493
777,493,497,499,493
740,492,498,498,493
585,492,498,495,493
388,491,497,494,493
298,488,497,497,493
248,492,499,499,493
252,492,496,502,493
286,498,497,502,493
339,496,498,498,493
448,500,500,497,493
568,497,499,497,493
728,499,499,496,493
790,498,501,498,493
760,496,498,495,493
690,497,498,496,493
503,497,499,496,493
336,493,498,496,494
270,485,498,492,494
242,483,500,490,494
259,483,497,487,494
292,482,495,489,493
387,487,497,489,494
502,496,497,491,493
634,501,496,497,493
773,508,500,497,493
781,504,500,495,493
753,500,499,488,493
626,499,494,488,494
409,499,495,495,493
305,501,496,494,493
243,502,499,495,493
250,497,498,499,493
277,492,498,496,493
328,488,497,490,493
435,487,498,494,493
554,493,502,496,493
706,497,502,495,493
787,500,500,496,493
770,495,498,498,493
714,497,499,492,493
529,496,498,482,494
347,494,497,485,494
281,495,499,491,494
247,497,498,493,494
266,498,495,499,493
287,499,498,505,493
374,495,497,496,493
485,493,498,491,494
611,490,496,492,494
761,491,497,493,493
789,494,500,497,494
754,491,499,495,493
650,494,500,492,493
433,496,499,491,493
314,493,499,487,493
250,492,500,487,494
240,493,496,486,494
278,499,497,486,493
317,498,495,485,493
422,500,496,493,493
544,496,495,491,494
686,493,499,491,493
790,485,497,498,493
781,491,500,499,494
732,496,498,495,494
553,500,498,493,493
364,500,497,488,493
286,497,495,490,494
241,486,494,491,494
253,480,500,502,493
287,484,504,505,493
360,492,500,498,493
473,494,497,504,493
597,504,499,501,493
755,506,497,496,493
788,509,497,497,493
758,507,499,494,493
664,496,499,483,494
463,491,499,479,493
322,489,498,481,493
255,492,500,486,493
243,487,500,495,493
270,491,498,497,493
313,499,497,495,493
403,503,496,507,493
526,499,498,506,493
664,490,501,506,493
785,488,503,503,493
777,489,502,500,493
741,493,504,502,493
577,497,500,498,493
381,501,501,496,493
289,503,497,499,493
232,496,497,498,493
253,499,500,498,493
275,503,502,505,493
346,500,499,501,493
459,497,500,500,493
578,495,501,495,493
746,492,500,491,494
796,493,496,490,493
767,487,496,487,494
682,484,499,495,493
491,473,497,491,494
325,463,495,487,494
260,470,495,481,494
237,488,497,479,494
263,500,497,492,493
294,513,498,494,493
395,507,498,490,493
510,502,498,490,493
647,500,498,484,493
774,495,497,484,493
786,493,496,500,494
750,499,499,511,493
608,501,501,509,493
402,502,501,504,493
303,502,499,501,493
229,503,494,497,493
250,509,497,499,493
275,499,500,503,493
332,494,498,499,493
443,493,497,495,493
561,495,499,496,493
727,497,501,495,494
794,498,498,490,493
773,499,497,491,493
709,500,498,491,494
520,500,496,490,494
336,496,495,492,494
270,497,496,490,493
233,499,496,489,493
254,494,496,488,493
288,493,496,490,493
379,492,499,494,493
493,489,500,492,494
628,487,503,500,493
776,489,502,497,493
796,494,502,499,493
764,497,501,508,493
638,499,501,501,493
424,499,498,497,493
307,498,496,492,493
235,495,494,487,494
239,490,494,492,493
269,488,494,495,493
326,489,496,501,493
427,494,501,510,493
548,493,504,506,493
703,493,500,486,494
798,498,496,481,494
775,495,494,488,494
737,493,498,498,493
541,479,495,510,494
353,485,499,514,493
280,492,501,503,494
238,496,502,498,493
257,503,499,493,493
288,503,500,491,493
361,491,500,491,493
477,483,499,491,494
607,481,499,493,493
768,484,499,497,493
798,489,497,498,494
763,492,499,501,493
665,500,500,504,493
451,502,497,497,493
319,496,498,491,493
242,506,495,490,493
240,511,496,497,493
268,502,498,493,493
307,489,498,484,493
414,480,500,477,494
534,485,505,482,494
682,482,505,499,494
800,482,503,516,493
785,501,504,502,493
750,509,497,496,494
576,510,496,495,494
373,495,497,494,494
290,477,495,493,493
230,477,496,491,493
250,482,498,484,494
279,485,498,478,494
348,489,495,487,494
464,489,496,495,493
589,484,498,507,493
750,486,497,499,493
795,486,500,484,493
766,490,491,459,493
677,504,496,461,493
479,504,501,476,493
325,496,502,505,493
255,500,505,512,493
233,499,503,504,493
263,502,503,503,493
289,508,498,496,493
399,505,495,477,494
517,501,497,460,494
654,492,496,462,494
787,489,496,493,493
787,486,504,516,493
747,486,504,512,494
603,487,504,516,493
387,495,498,509,493
288,499,495,509,493
225,505,495,514,494
243,505,498,503,493
268,493,499,483,493
332,479,508,483,494
441,461,511,458,493
564,457,506,469,493
733,464,503,495,493
792,482,496,507,493
776,505,495,530,493
695,527,499,516,493
503,542,499,503,493
329,535,498,496,493
261,525,499,486,494
220,504,493,482,494
253,491,494,491,494
275,485,492,503,494
374,491,499,507,494
494,488,502,511,494
629,477,499,502,493
770,478,496,493,494
790,493,501,492,494
755,501,506,470,494
626,499,505,472,494
403,489,502,482,494
294,477,504,504,494
225,484,501,510,493
232,491,496,508,493
261,502,488,476,494
316,522,488,460,494
431,523,490,472,493
553,513,497,495,493
721,484,512,524,494
798,459,515,486,494
780,447,516,478,494
728,444,500,475,494
533,472,499,509,494
352,508,493,506,494
283,532,497,493,494
239,526,500,491,493
260,516,500,503,493
285,501,496,517,494
373,485,497,495,494
492,482,499,489,494
622,492,496,512,494
776,500,506,523,494
804,508,509,515,493
777,513,502,504,494
667,516,498,474,494
443,501,493,461,493
315,498,497,463,494
248,490,498,489,493
245,486,505,512,493
268,476,503,512,493
324,487,499,520,493
429,509,498,509,493
550,516,499,497,493
699,516,501,479,494
803,502,498,480,493
788,492,502,499,494
753,486,506,499,493
560,480,508,495,494
367,478,499,463,494
287,468,495,450,494
243,474,495,471,494
255,487,498,490,494
286,482,500,545,493
361,484,503,526,493
475,497,498,497,494
602,496,494,490,494
769,498,498,489,493
804,506,502,503,493
776,505,502,501,493
678,506,499,503,493
475,518,504,512,494
326,524,505,516,493
252,520,501,517,494
243,515,500,498,493
261,512,498,477,494
302,505,497,480,494
408,493,498,476,494
529,491,498,493,493
671,498,501,502,493
799,493,502,503,493
793,463,501,494,494
758,450,504,490,494
589,444,505,495,494
387,466,503,503,493
296,487,502,512,494
238,507,493,475,494
246,530,490,450,494
276,535,495,454,494
337,519,493,482,494
462,518,492,516,494
582,509,498,522,493
744,497,497,511,494
804,502,505,521,494
780,498,507,503,494
690,490,507,487,494
495,486,497,485,494
333,488,500,497,494
266,491,502,495,494
238,492,501,489,494
261,498,503,485,493
290,509,502,493,493
396,501,497,515,493
512,497,497,515,493
642,495,496,513,494
781,484,503,505,494
792,477,508,496,494
758,455,509,498,493
622,447,508,470,494
405,451,497,470,494
305,491,494,489,494
235,523,497,518,493
251,531,496,519,493
281,551,499,497,493
335,536,497,494,494
443,510,496,500,494
565,497,498,493,494
726,498,507,490,493
797,484,508,483,493
783,480,505,482,494
712,481,499,487,494
527,488,499,485,494
345,494,494,454,494
276,486,491,474,494
236,473,494,481,494
263,465,501,502,493
291,455,503,504,494
378,460,501,506,494
493,496,501,529,494
627,522,502,545,494
776,545,509,525,493
796,551,509,504,494
759,520,500,484,494
653,511,499,481,494
429,499,496,484,494
311,487,495,486,494
244,493,496,479,494
244,496,493,487,493
273,501,499,502,493
328,506,506,517,493
427,502,504,532,493
548,493,500,522,493
701,512,503,510,494
793,512,505,490,494
777,495,497,459,494
742,485,495,448,494
546,484,494,437,494
358,475,492,476,494
284,477,495,498,494
237,473,494,503,494
253,502,499,553,494
290,513,505,539,493
361,504,506,523,493
481,493,506,512,494
606,486,502,499,493
763,490,499,496,494
798,488,499,500,493
770,494,509,516,493
662,500,504,511,493
456,502,501,495,493
318,510,499,493,494
251,513,496,499,494
241,510,498,497,493
271,503,496,480,494
317,497,503,479,493
415,497,502,489,493
530,493,502,494,494
672,481,502,495,494
791,480,502,491,493
785,477,494,477,494
743,478,489,484,493
574,492,503,518,493
377,475,507,522,493
295,459,497,498,493
240,464,498,487,493
254,502,499,492,493
284,526,498,507,494
348,537,496,508,493
464,538,498,501,494
585,526,495,484,494
743,510,498,470,493
800,508,500,480,493
769,493,498,474,493
682,477,502,498,493
483,480,505,516,494
325,479,502,515,493
257,494,499,522,493
243,511,497,513,493
267,507,500,510,493
300,507,500,500,493
396,507,499,492,493
514,500,502,479,493
647,499,498,480,493
778,497,497,484,493
781,486,497,497,493
754,482,505,520,493
604,489,505,523,493
399,496,504,518,493
301,493,502,505,493
238,480,495,499,493
250,480,492,490,493
282,490,499,480,493
331,477,502,483,493
449,483,505,499,493
569,493,501,512,493
728,508,498,507,493
793,518,498,506,493
774,519,494,495,493
703,511,498,481,493
509,499,495,459,493
334,489,492,462,493
268,480,492,484,493
246,487,501,504,493
259,489,498,511,493
294,494,503,524,493
385,497,501,523,493
495,496,497,505,493
629,509,499,500,493
774,516,503,504,493
782,514,505,510,493
760,502,511,494,493
635,493,509,476,493
420,475,491,433,494
306,474,485,449,493
242,503,496,507,493
247,498,498,538,493
276,499,500,530,492
324,497,497,513,492
430,500,499,508,493
554,501,499,505,493
701,497,501,479,493
792,498,497,454,493
775,495,495,479,493
725,495,495,520,493
539,494,495,527,494
355,492,499,510,493
279,493,497,498,492
249,498,498,502,493
267,511,505,509,493
290,506,504,502,493
368,501,500,493,493
482,498,497,496,493
609,496,497,499,493
761,497,499,512,494
784,494,499,504,493
762,494,500,501,493
652,493,498,501,493
446,496,497,498,493
319,494,495,501,493
252,496,497,499,493
248,492,498,499,493
275,474,498,498,493
319,466,504,500,493
415,472,506,499,493
537,468,502,498,493
680,470,498,499,493
786,507,497,499,493
773,536,498,499,493
740,535,493,496,493
564,514,497,498,492
370,507,497,497,493
294,502,499,501,492
238,497,496,498,493
263,493,499,493,493
283,480,497,492,493
356,486,496,494,493
469,492,496,499,493
588,499,497,500,492
748,503,496,502,493
791,502,500,501,493
757,499,496,499,492
668,497,497,500,492
473,495,497,498,493
326,499,496,495,492
266,505,497,496,492
249,502,498,494,492
277,498,499,488,492
313,493,497,487,493
405,490,497,487,493
519,487,497,493,493
658,492,501,503,493
772,494,502,502,493
778,495,500,505,492
742,498,501,509,493
591,501,500,492,492
392,496,496,490,492
301,495,496,490,493
239,499,494,497,493
257,499,495,495,492
282,494,495,497,493
348,498,498,505,493
454,500,497,506,492
572,498,497,506,492
734,492,497,503,492
790,495,497,504,492
767,493,499,503,492
684,492,500,501,492
503,496,500,500,492
335,492,498,499,492
276,491,499,496,493
249,489,497,494,493
270,491,497,498,493
304,489,496,496,493
396,495,499,503,492
505,501,497,500,492
633,502,497,499,493
765,501,498,501,493
783,496,496,501,493
750,488,496,498,493
621,490,494,500,493
412,489,492,500,493
312,493,496,499,493
247,501,496,497,492
263,497,499,499,493
280,495,497,498,492
339,500,498,497,493
441,503,497,498,492
557,505,496,498,493
711,499,494,499,493
788,496,496,498,492
767,493,499,500,492
706,490,494,498,493
525,493,495,498,493
349,493,496,499,493
288,493,498,497,493
244,490,497,498,493
269,491,497,500,493
298,492,496,500,493
377,494,496,500,493
485,492,494,498,493
617,489,493,500,493
755,491,490,500,493
786,495,495,499,493
755,499,498,499,492
648,499,498,500,493
433,496,497,498,493
319,501,500,500,493
251,504,500,498,492
251,501,497,497,492
278,499,497,498,492
321,497,497,497,493
427,497,499,498,493
540,497,500,498,493
689,499,499,499,492
783,499,499,501,493
772,496,499,500,492
731,497,497,498,492
554,497,499,500,492
365,494,498,499,492
294,493,498,499,493
253,494,498,498,492
267,495,499,499,492
289,493,497,497,493
363,496,497,499,493
474,497,498,498,493
595,496,498,496,492
749,498,499,498,492
785,496,499,500,493
753,496,496,499,493
664,494,497,497,493
460,495,497,493,492
326,495,497,492,492
259,496,496,495,493
249,493,497,496,493
277,493,495,496,492
313,490,496,497,492
413,492,497,499,492
525,495,499,503,492
662,499,501,504,492
774,496,499,500,492
770,495,499,505,492
732,494,497,501,493
575,492,496,501,493
381,493,496,501,493
300,496,498,499,493
244,497,497,496,493
258,499,498,498,493
292,500,497,496,493
352,499,496,496,493
459,496,496,496,493
577,499,497,497,494
739,496,499,499,494
783,493,496,500,493
757,496,496,499,493
677,497,498,499,493
489,497,499,500,493
337,495,497,499,493
269,497,498,499,493
248,493,495,501,493
274,493,497,501,493
306,493,497,501,494
394,493,494,499,494
516,494,499,499,493
640,494,502,499,493
776,497,498,497,493
779,497,498,496,493
743,497,501,501,493
614,493,497,499,493
406,493,498,500,494
304,491,496,500,494
243,491,496,499,494
258,495,498,501,493
284,497,497,500,493
339,495,496,497,493
444,496,496,499,493
562,495,496,499,493
719,495,497,500,494
787,495,498,501,493
767,498,498,497,493
699,496,497,499,493
518,497,497,499,493
343,496,496,499,493
280,496,497,501,493
247,495,497,498,493
265,495,498,500,493
293,496,496,498,493
386,496,499,499,493
498,496,499,499,493
624,496,498,497,493
762,493,500,498,494
781,495,500,500,493
754,494,496,499,493
631,496,497,499,493
428,497,497,499,493
313,496,497,498,493
248,492,495,501,493
253,496,496,500,493
281,494,499,499,494
334,496,499,499,493
431,496,497,498,493
545,495,497,497,493
692,496,501,501,493
781,496,498,501,493
772,495,498,500,493
726,494,498,501,493
542,496,497,500,493
358,496,497,498,493
289,493,496,495,493
245,493,497,497,493
267,491,496,497,494
292,492,496,499,494
366,494,498,499,493
477,494,496,498,492
604,499,497,503,493
754,495,498,499,493
787,495,496,495,492
756,495,498,494,493
657,498,498,496,493
450,496,498,500,493
320,494,497,503,493
257,493,496,501,493
251,494,498,500,493
277,494,499,501,493
315,497,496,498,493
417,495,497,495,492
531,493,498,497,494
674,494,498,497,494
786,495,498,501,493
773,496,497,499,493
739,493,495,501,494
569,498,498,501,493
373,494,495,500,493
295,494,497,501,494
241,494,497,498,492
257,496,497,500,493
291,495,495,498,493
355,494,498,499,493
466,493,496,499,494
588,496,499,497,493
741,494,498,500,493
789,497,497,500,494
766,495,497,499,493
670,495,498,499,493
480,496,497,499,493
329,495,496,499,494
263,496,497,498,494
247,493,496,500,493
269,495,495,499,494
309,493,497,499,494
406,494,497,498,494
517,494,499,498,493
647,493,502,498,494
782,495,499,499,494
779,497,497,497,493
745,496,497,497,494
597,496,497,498,493
395,494,497,500,493
301,494,495,499,493
247,493,495,498,494
251,493,496,497,493
280,493,496,498,493
338,493,498,497,493
451,494,497,498,493
573,495,497,498,493
728,493,499,500,493
791,494,498,499,493
769,494,498,499,493
692,493,496,498,492
506,494,496,498,493
338,494,496,496,493
272,492,497,500,494
245,493,497,498,493
267,493,496,499,493
295,496,497,498,493
387,492,496,497,493
500,494,497,498,493
630,492,497,499,494
767,493,497,498,493
782,493,499,497,493
755,492,496,498,492
631,495,497,497,493
413,495,496,498,493
308,493,495,497,493
239,494,495,497,493
254,493,498,497,494
275,493,497,498,493
334,493,495,497,494
435,494,497,498,493
554,494,496,496,494
707,496,498,496,493
793,492,498,499,493
770,495,496,500,493
717,492,497,498,492
531,494,498,498,493
353,494,496,497,494
284,495,497,499,494
240,494,496,496,493
263,492,496,498,493
290,494,498,497,493
375,493,497,497,494
486,493,497,497,493
610,492,496,498,493
767,494,497,498,494
786,494,500,498,494
759,494,498,498,493
655,494,499,498,493
440,493,497,497,493
315,492,498,499,494
245,493,496,499,493
249,494,499,499,493
275,492,497,498,493
322,492,497,498,493
418,492,495,496,493
537,490,497,498,493
681,492,496,497,493
789,493,500,499,494
779,494,499,499,493
739,492,498,501,493
553,492,494,500,493
367,491,495,498,494
286,492,499,500,494
243,492,499,498,494
260,494,499,498,493
287,494,497,496,493
360,492,498,496,494
469,493,497,496,494
596,494,498,496,493
756,495,498,496,494
791,495,497,499,494
766,493,496,497,493
665,494,498,498,493
464,493,496,499,494
321,492,496,499,494
257,490,495,499,494
247,492,498,498,493
264,492,494,498,493
311,492,495,496,494
404,493,498,497,494
523,492,498,498,494
665,490,499,498,493
785,491,497,498,494
783,491,499,498,494
742,492,497,500,494
588,493,497,499,494
384,494,497,497,494
298,492,496,495,493
238,495,495,498,494
255,489,493,496,493
281,489,496,499,493
343,490,497,498,493
456,489,496,497,493
573,491,497,497,493
742,494,500,497,494
794,493,498,495,493
765,495,497,496,493
690,495,497,495,493
495,494,497,496,494
332,492,496,498,493
266,492,495,495,493
242,489,496,495,493
263,491,496,496,493
295,492,497,496,494
393,492,496,497,493
506,492,498,497,493
641,492,497,498,494
779,493,497,497,494
782,491,495,497,493
750,490,495,497,493
623,493,498,497,493
404,492,495,497,493
306,492,495,497,494
233,490,495,497,493
247,490,494,497,494
276,490,497,496,493
336,489,496,497,494
445,491,497,496,493
560,490,495,496,494
716,491,495,496,493
795,491,496,497,494
773,491,496,496,493
717,492,496,497,493
524,492,497,497,493
340,493,496,495,493
272,491,495,495,493
240,491,493,496,494
264,491,497,499,493
289,493,495,499,493
380,492,494,496,493
492,493,497,497,493
623,494,497,495,494
770,494,498,498,493
795,490,496,496,493
766,491,498,499,494
642,493,497,496,494
430,491,496,496,493
313,491,495,494,493
243,489,495,495,493
241,492,497,498,494
275,492,495,495,494
321,492,495,495,493
425,491,496,497,493
548,491,497,496,494
703,492,499,496,494
794,491,497,496,493
776,493,498,498,493
738,491,499,498,494
551,491,497,498,494
361,490,496,496,493
279,491,498,497,493
232,489,495,496,494
259,491,498,496,493
286,492,497,496,493
364,490,496,495,493
474,490,495,496,494
604,491,494,496,493
760,493,497,495,493
793,492,497,494,493
762,491,496,495,494
663,493,499,497,493
451,493,496,497,493
321,491,497,496,493
244,490,494,496,493
234,489,496,497,494
265,492,495,495,493
309,492,496,498,493
411,490,495,496,494
534,491,497,496,493
674,493,497,494,494
792,491,496,495,493
785,493,497,495,493
750,490,496,496,494
580,492,496,495,493
376,491,496,495,493
291,491,496,496,494
241,491,496,495,493
254,488,494,496,493
281,491,497,495,493
343,489,496,496,494
464,492,499,496,493
586,492,499,495,493
754,492,498,496,493
797,490,496,495,493
771,489,496,497,493
684,492,496,496,493
481,490,496,496,493
326,490,494,495,494
259,494,497,494,494
237,492,497,495,493
263,492,497,496,493
296,493,498,494,493
395,492,498,496,494
515,491,498,495,494
651,490,497,497,493
786,492,497,495,493
793,491,498,495,494
750,492,497,496,494
602,492,497,497,494
397,492,496,497,494
298,491,495,496,494
228,492,498,496,494
244,490,496,497,494
271,490,496,498,494
332,489,496,496,493
446,492,496,496,494
566,491,499,495,493
729,491,499,497,493
803,492,498,496,493
777,493,498,496,494
709,494,498,496,493
515,491,495,496,493
334,491,496,494,494
270,489,497,494,494
230,490,495,495,494
251,489,494,496,494
284,489,495,496,494
384,493,498,496,494
497,492,497,496,494
635,492,496,496,494
774,490,497,497,493
794,490,496,498,493
763,493,498,495,493
637,492,498,495,493
419,493,496,496,493
304,491,498,497,493
236,489,497,497,494
244,491,496,496,494
264,492,499,496,494
317,489,496,497,494
433,493,497,496,494
553,493,497,496,494
710,493,499,495,495
798,493,496,497,493
783,491,496,495,493
726,491,499,497,493
533,491,496,495,493
347,491,496,495,493
273,490,494,494,493
239,492,497,495,493
248,489,496,495,494
282,490,495,497,494
364,492,497,496,493
480,492,497,496,494
614,491,497,494,494
769,491,499,497,494
796,490,496,496,494
771,491,496,495,493
662,490,497,496,493
443,489,496,496,493
310,489,496,495,493
241,494,496,496,493
234,493,495,495,493
261,492,495,495,494
305,492,494,496,493
413,491,496,495,493
540,491,498,495,494
681,490,496,496,493
801,493,496,496,494
788,490,497,497,494
748,491,497,498,494
568,491,496,495,494
365,491,497,496,494
280,491,495,494,494
234,490,497,496,493
248,491,497,495,493
278,491,497,495,493
346,489,495,494,493
465,490,496,495,493
593,491,497,494,493
763,492,498,495,493
803,493,498,494,493
771,490,497,496,493
674,493,495,494,493
470,490,496,495,493
319,491,495,495,494
245,491,494,494,493
227,489,496,495,493
257,489,498,494,493
302,489,496,497,494
404,491,497,495,493
525,490,496,496,493
665,489,497,497,493
794,491,498,496,493
789,491,496,496,493
759,492,496,495,493
592,492,495,495,492
386,490,496,495,493
289,491,494,494,493
232,487,493,495,493
239,491,496,494,493
274,491,499,494,493
331,490,496,495,493
450,492,498,495,493
572,490,496,494,493
749,491,496,496,493
802,490,498,495,494
780,489,496,497,493
697,488,494,496,493
498,490,494,495,492
327,490,495,495,493
261,495,496,497,493
227,491,494,494,493
254,489,495,495,493
289,490,498,496,492
386,491,498,496,494
504,492,497,495,494
644,493,500,497,494
781,490,497,496,493
799,493,497,495,494
761,494,497,495,494
626,493,496,495,493
408,491,496,493,493
296,491,497,494,493
225,490,494,493,493
235,490,495,495,493
265,489,496,496,493
327,493,495,494,493
438,490,496,495,493
560,491,498,496,494
729,491,500,496,493
807,492,498,495,493
784,494,498,494,494
727,490,496,497,494
528,493,497,495,494
343,490,496,495,494
270,491,495,494,494
225,490,496,495,494
249,490,494,493,493
286,493,495,496,493
370,491,496,495,493
491,490,495,495,493
627,490,498,496,493
776,489,498,496,493
800,490,495,495,493
771,493,498,496,493
649,490,497,494,493
437,492,497,493,493
310,492,496,493,493
239,492,494,496,493
237,491,495,494,493
265,491,498,496,493
312,490,495,494,493
421,491,496,494,494
544,491,496,494,493
693,491,497,496,494
806,492,497,495,492
787,493,499,493,492
746,489,495,496,493
554,489,496,495,493
359,489,496,495,493
283,490,495,494,493
227,489,495,493,493
249,493,494,495,493
275,490,495,494,494
352,489,495,493,493
472,490,496,494,493
607,488,495,494,494
771,490,498,494,493
803,491,496,495,493
771,494,497,494,492
669,493,497,495,494
465,492,498,495,494
318,491,497,494,492
249,490,494,494,493
235,490,495,495,492
261,490,496,496,493
301,489,495,495,493
411,492,497,494,493
529,491,497,494,493
673,493,497,496,493
801,492,498,494,493
793,492,499,496,493
757,491,495,494,493
582,493,498,496,494
373,492,496,495,494
291,493,497,495,493
235,493,497,494,494
241,493,496,494,494
274,491,497,493,493
336,491,496,494,493
459,491,496,493,493
583,491,494,493,493
747,491,495,494,493
802,493,498,494,493
777,490,495,496,493
689,493,497,497,493
491,491,496,495,493
326,491,497,496,493
260,491,497,497,493
233,491,495,495,493
254,492,498,494,494
287,490,496,495,494
396,493,497,495,494
514,492,498,494,493
649,494,497,494,494
789,492,499,495,493
792,492,499,497,493
763,490,495,495,493
612,490,495,495,493
400,491,496,493,493
296,491,496,493,493
229,489,494,495,493
239,492,495,496,493
274,490,497,496,493
335,491,498,495,494
443,490,498,495,494
565,491,499,494,494
736,491,497,495,494
807,493,498,494,493
782,493,496,493,494
711,493,496,494,493
519,491,496,495,494
341,491,496,494,493
267,490,497,495,493
236,489,494,496,494
256,490,495,496,493
287,490,496,496,494
379,492,495,494,493
497,492,496,495,493
629,491,495,496,494
785,491,497,494,493
801,493,498,494,493
765,494,498,497,493
642,491,496,494,493
425,492,496,496,493
305,491,495,494,493
235,491,493,494,493
235,490,494,494,493
272,492,496,494,493
319,491,496,494,493
430,491,497,495,494
553,490,498,496,494
710,489,498,497,494
803,491,499,496,494
788,490,496,495,494
742,493,499,495,494
541,491,496,495,494
356,491,495,494,493
280,493,495,493,493
234,495,495,496,493
257,491,494,493,493
277,492,498,494,493
361,491,497,494,493
481,493,496,494,493
608,492,497,496,493
771,495,497,494,494
803,493,498,495,493
763,493,499,497,493
671,493,499,495,494
452,493,497,495,494
317,493,496,495,493
243,493,497,493,493
233,491,497,496,493
262,491,495,494,493
309,491,494,493,493
412,492,496,494,493
533,492,496,494,493
685,492,495,494,493
794,494,498,495,493
788,491,497,496,493
751,491,497,496,493
573,491,497,495,493
371,491,495,494,493
289,492,497,493,493
227,490,497,493,493
253,492,496,493,493
281,493,496,493,493
346,493,497,495,493
465,492,496,494,493
592,492,499,496,493
751,492,496,495,493
801,491,497,495,494
771,491,498,496,494
683,495,497,497,494
481,492,497,495,493
324,490,497,496,493
261,490,498,497,493
240,491,497,494,493
265,492,497,494,493
294,489,495,494,493
402,492,495,495,493
518,492,497,495,493
658,494,497,493,493
788,493,496,494,493
785,492,498,496,493
759,491,495,495,493
605,494,497,496,493
393,491,494,494,494
297,490,494,496,494
232,490,496,496,494
248,494,496,497,494
281,491,495,493,494
332,492,498,494,494
454,492,497,494,494
574,493,498,494,494
739,491,496,495,493
803,494,496,493,493
776,492,499,495,492
696,493,496,494,493
507,492,496,495,493
335,492,496,494,493
266,490,497,494,493
243,490,495,495,493
261,493,496,493,493
296,488,496,496,493
390,489,495,494,493
501,489,496,495,493
633,491,495,495,493
784,495,497,495,494
789,496,498,494,494
758,495,497,494,493
630,495,497,495,494
416,492,496,496,493
308,492,495,493,494
244,492,498,494,493
243,491,495,495,493
275,491,495,495,493
326,490,496,494,493
436,493,497,494,493
557,492,496,493,494
717,492,498,496,493
799,493,498,494,493
779,493,497,494,493
725,495,498,495,494
533,493,496,494,494
350,493,496,495,494
280,492,495,493,494
236,491,495,494,494
256,491,496,495,494
285,493,499,494,493
372,491,496,494,493
487,492,498,495,493
618,491,497,495,493
768,492,498,495,493
795,493,498,494,493
755,491,497,494,493
658,491,496,495,493
441,492,496,495,493
318,493,496,494,494
250,495,497,493,493
246,492,497,496,493
270,492,494,494,494
324,491,495,494,493
418,489,496,494,494
541,489,496,494,493
683,488,496,494,494
789,494,498,495,494
780,494,496,495,493
736,497,496,497,493
559,493,495,495,492
369,492,495,495,493
290,492,498,494,493
239,492,497,495,493
262,491,495,494,493
287,494,498,495,494
361,493,496,493,492
473,493,496,494,493
594,491,497,496,494
755,494,496,495,493
795,493,496,494,493
760,492,496,494,493
666,492,495,495,493
468,492,497,496,494
327,491,496,496,493
261,494,498,495,493
243,490,496,497,493
272,491,497,497,494
309,492,498,495,494
408,493,497,493,493
524,493,496,494,493
666,493,496,493,493
787,493,499,495,493
785,493,498,495,493
749,493,499,495,493
583,492,496,494,493
388,492,497,493,494
294,492,497,494,493
246,493,496,493,493
258,493,495,493,493
281,493,496,496,493
345,491,495,494,493
457,490,496,494,494
574,490,497,494,494
735,490,496,494,494
791,492,497,495,493
766,496,498,497,493
688,494,498,494,492
494,493,497,495,492
332,492,497,496,493
273,492,497,496,493
247,493,497,495,493
262,491,494,494,493
303,493,497,494,493
390,492,497,495,494
509,493,498,494,493
642,495,498,494,493
777,494,498,495,493
783,494,497,494,494
751,493,497,497,493
614,494,496,495,493
410,493,496,494,494
306,494,496,493,494
244,491,497,493,494
252,491,497,494,493
285,491,495,494,493
334,490,495,495,493
443,492,496,494,493
559,493,498,494,493
719,491,497,496,493
788,493,496,496,493
773,493,499,496,493
714,494,498,496,493
527,493,496,495,493
347,494,496,495,494
280,494,495,492,493
247,493,497,494,493
260,492,496,494,494
293,492,496,494,494
378,492,497,495,494
492,493,498,495,494
623,492,497,494,494
767,492,499,497,494
790,493,498,496,494
761,494,498,496,494
647,493,496,495,493
434,493,496,495,494
313,493,496,494,493
251,494,498,494,493
255,494,497,494,493
281,495,496,496,493
323,491,497,494,494
430,493,496,495,495
547,494,497,495,494
694,494,498,494,493
786,495,496,494,493
772,494,496,494,494
735,493,499,494,493
545,493,496,495,493
362,493,496,494,493
287,491,495,494,493
244,491,495,494,493
262,494,498,494,493
290,491,494,496,493
365,493,496,495,492
476,491,497,495,493
604,488,497,496,493
756,489,498,495,493
782,490,498,494,493
762,492,496,494,493
663,496,497,494,493
457,496,497,495,493
326,495,497,494,494
259,493,498,497,494
243,492,496,494,493
281,495,495,495,493
311,492,496,496,493
414,492,496,494,493
529,493,496,495,493
668,495,496,494,493
784,493,499,495,493
772,492,496,494,493
740,494,498,495,493
576,494,497,494,494
379,493,497,495,493
294,492,496,494,493
246,491,496,496,493
254,493,495,494,493
283,492,495,493,493
348,491,495,494,493
463,494,498,494,493
582,493,497,492,494
745,496,498,496,494
790,493,499,497,493
766,494,499,496,494
683,495,495,495,493
480,493,497,495,492
328,492,495,495,493
265,495,496,494,493
245,494,495,494,493
270,493,495,494,493
301,493,495,495,493
401,493,496,494,493
516,493,497,494,493
645,491,496,495,493
773,492,496,494,493
781,492,498,496,493
741,494,497,494,493
607,493,498,494,493
399,494,497,495,493
302,494,498,494,494
249,494,497,494,494
257,495,497,495,494
281,494,496,493,493
342,493,498,494,493
444,493,496,494,493
562,492,496,494,493
722,493,496,494,493
790,495,498,497,493
763,491,496,494,493
696,492,498,497,493
510,493,496,496,493
338,492,496,495,493
279,493,497,496,494
240,492,495,495,493
274,494,497,494,493
294,492,497,493,493
386,494,497,494,494
498,493,497,495,493
629,495,497,496,494
767,495,497,494,494
787,494,499,495,494
747,493,498,495,493
627,493,495,494,493
420,493,495,493,493
312,494,497,495,493
242,491,497,493,493
253,493,497,496,493
281,493,498,496,493
334,493,498,495,493
435,493,497,494,493
550,492,497,494,493
701,490,496,495,493
787,494,497,495,493
769,494,496,494,493
723,495,496,493,492
535,495,497,496,493
354,494,497,495,494
288,495,498,495,494
240,492,496,494,493
263,492,496,495,493
293,492,496,497,494
369,495,497,496,493
484,492,497,494,493
609,492,499,495,493
762,493,498,495,493
791,495,498,494,493
759,492,497,495,493
655,495,497,494,493
443,492,496,494,493
318,494,496,495,493
250,494,495,493,493
247,492,494,495,493
281,494,496,495,493
317,495,498,493,493
418,493,497,495,493
535,493,497,495,493
681,492,497,495,494
789,494,498,496,494
772,494,496,496,494
742,493,496,495,494
559,495,498,496,493
368,493,497,495,493
294,495,497,494,493
250,491,496,496,493
258,493,496,493,494
292,492,498,491,493
351,492,497,493,493
467,493,497,493,494
590,492,496,494,493
753,494,496,495,493
789,494,497,493,493
764,493,498,496,493
671,492,498,496,493
472,492,496,494,493
325,493,496,494,493
262,493,499,494,494
243,491,497,494,494
272,494,497,494,493
307,494,496,494,493
405,494,497,494,493
520,493,498,495,493
655,493,497,493,492
785,494,498,494,493
776,491,496,495,493
744,492,496,495,493
591,492,496,495,493
392,493,496,495,493
298,494,495,493,493
240,492,497,496,493
257,493,498,497,493
286,493,498,496,493
336,492,496,495,493
454,492,497,494,493
571,492,497,494,494
738,496,500,494,493
790,495,497,494,493
766,494,499,496,494
694,495,496,495,493
502,493,497,496,493
333,494,496,495,493
267,491,495,494,493
242,490,495,495,493
268,492,497,494,493
294,495,498,498,493
392,492,496,494,493
505,492,498,496,493
639,493,499,497,493
778,493,499,495,493
781,492,496,495,493
751,494,498,495,493
621,492,497,493,493
409,492,496,494,493
304,493,496,494,493
239,495,498,495,494
254,492,496,495,494
284,493,498,494,494
331,491,496,495,493
437,493,497,495,494
557,493,497,496,494
715,496,498,496,493
794,494,496,493,493
769,495,498,493,493
718,495,499,495,493
528,494,497,495,493
347,493,497,494,493
277,493,496,495,494
245,494,496,496,493
264,492,496,493,493
287,494,497,494,494
372,492,496,494,493
488,493,498,495,493
621,493,497,495,494
772,493,497,496,493
788,493,498,496,494
756,492,498,497,493
646,493,497,496,493
436,494,497,495,493
310,492,497,494,493
246,492,497,497,493
247,493,498,497,493
275,493,498,496,493
326,492,496,494,493
425,493,498,495,493
542,492,496,493,493
696,495,499,493,493
788,494,497,494,493
776,493,496,494,493
735,494,498,496,493
554,493,496,495,493
363,492,497,494,493
284,492,496,495,493
234,491,495,495,493
258,490,496,496,493
283,494,496,497,493
361,492,496,494,493
475,493,497,494,493
601,494,500,495,493
762,494,500,495,493
796,492,497,496,493
763,495,497,494,493
669,492,498,493,493
458,494,497,494,493
319,493,497,494,493
249,494,495,496,493
245,494,495,494,493
265,494,498,494,493
307,491,496,495,493
408,492,497,494,493
526,491,497,495,493
670,491,497,496,493
787,493,496,496,493
786,494,496,496,493
746,495,498,494,493
580,495,496,495,493
380,492,497,495,493
294,491,497,496,493
235,494,496,493,493
253,492,498,494,493
274,493,496,494,493
336,494,496,494,494
457,495,497,495,493
582,495,497,495,494
741,495,498,495,494
799,493,497,496,493
770,493,498,497,493
684,492,497,496,494
488,494,497,494,493
325,493,497,494,493
259,493,498,496,493
239,494,498,495,493
265,493,498,495,493
300,494,499,494,493
395,493,496,494,493
511,494,498,495,493
647,492,496,493,493
784,495,497,494,493
789,494,499,494,493
756,495,499,495,493
609,495,496,496,492
402,493,496,494,493
300,494,496,494,493
239,494,499,494,493
247,494,497,494,493
270,493,495,493,494
334,494,498,493,493
441,493,497,493,493
565,493,498,496,494
729,493,500,497,493
800,493,496,494,493
772,493,499,495,493
703,494,496,494,492
517,493,497,495,493
335,492,497,495,492
271,493,497,497,493
239,492,498,494,493
252,494,498,497,493
288,491,494,494,493
382,491,498,495,493
493,492,498,495,493
630,492,498,495,493
771,494,496,495,493
796,495,498,496,493
760,492,498,494,493
643,495,498,493,493
422,493,496,495,493
307,493,495,495,493
233,496,498,492,493
239,491,497,497,493
267,492,496,493,494
314,494,496,495,493
425,493,497,494,493
552,493,498,494,493
701,493,500,495,494
802,491,497,495,493
783,492,498,496,494
734,492,498,496,494
544,493,497,496,493
352,494,495,494,494
279,494,498,494,493
228,492,497,494,493
253,495,497,494,494
280,494,496,494,493
362,492,497,495,494
480,493,498,494,493
613,493,499,495,494
765,494,497,495,493
797,493,497,496,493
767,492,498,496,493
665,495,496,496,493
446,492,497,494,493
312,493,497,494,493
247,493,499,495,493
235,495,498,494,493
266,492,496,496,494
309,495,497,494,493
414,493,497,495,493
536,494,497,494,493
677,493,497,494,493
794,492,497,496,494
787,493,498,494,494
749,493,498,497,493
569,494,496,495,493
372,493,497,496,493
285,493,498,496,493
235,493,498,494,493
243,492,496,493,493
275,494,496,496,493
348,493,496,493,494
463,494,497,494,494
588,493,497,495,494
751,494,499,494,493
800,493,498,496,493
773,495,497,496,493
682,493,498,496,493
476,493,497,495,493
320,493,497,495,493
249,493,499,495,494
232,492,497,496,494
260,495,496,494,493
294,495,496,494,493
397,494,497,495,493
522,493,496,495,493
665,494,499,494,494
786,493,498,493,493
794,493,498,496,494
760,492,498,497,492
602,492,497,495,492
391,492,496,494,494
291,494,497,495,493
222,491,495,493,493
244,494,497,493,493
269,495,497,493,492
332,494,497,494,494
448,494,496,494,493
573,492,498,494,493
743,495,497,493,493
804,496,497,494,493
778,495,497,494,493
701,492,496,496,493
506,494,497,495,492
327,493,496,494,493
266,495,497,495,494
230,495,497,494,494
255,494,497,493,493
286,491,496,496,493
381,494,497,495,493
504,492,497,493,493
640,493,496,493,494
782,494,497,494,493
797,493,497,494,493
769,495,496,496,493
629,494,497,494,493
411,493,496,495,494
300,492,498,497,494
232,491,498,496,493
234,492,496,495,494
270,494,498,496,493
321,491,497,493,493
436,494,497,494,493
558,494,497,494,493
716,494,499,496,493
811,494,496,495,493
789,495,499,494,493
728,493,497,496,493
535,493,497,496,493
348,493,497,496,493
276,492,499,494,494
226,493,499,495,493
252,492,496,495,493
284,495,497,493,494
367,494,497,494,494
487,493,497,494,493
625,494,499,496,494
773,494,498,495,493
809,495,497,496,494
773,493,498,497,494
656,493,498,496,493
438,493,497,494,493
309,493,498,495,494
231,493,496,493,493
237,495,498,494,494
264,495,497,495,493
312,494,496,494,493
421,493,497,495,493
543,494,498,495,493
701,492,496,494,493
804,492,497,496,494
790,491,498,497,494
749,491,497,497,493
559,493,497,495,493
363,493,497,495,493
279,493,498,495,493
234,495,498,494,493
246,496,498,495,494
275,496,496,496,494
353,495,497,495,494
471,493,497,496,493
601,494,496,494,494
763,493,496,496,494
805,493,497,496,493
780,495,497,496,493
678,492,497,494,494
465,493,496,495,493
319,492,497,495,493
249,493,498,497,494
233,492,495,494,493
264,495,498,494,493
295,491,496,494,493
408,494,497,495,493
529,494,498,494,493
667,495,497,494,493
798,493,499,495,493
800,493,497,496,493
760,495,498,494,493
592,493,497,495,493
381,494,497,496,493
286,492,498,496,493
225,493,495,495,493
243,494,495,495,493
268,493,496,494,494
337,495,495,494,493
455,493,496,495,494
579,492,498,496,494
748,495,497,494,493
813,495,500,495,493
781,493,497,496,493
693,493,498,497,493
494,493,497,495,493
326,494,497,496,493
258,494,496,494,493
231,494,498,494,493
259,496,497,494,493
288,495,498,494,493
386,494,497,495,493
511,493,497,495,493
647,494,500,497,493
795,493,496,495,493
798,493,497,496,493
762,493,497,496,493
621,495,496,495,493
401,493,497,496,493
291,494,496,496,493
232,493,499,495,493
239,494,498,495,493
267,495,498,495,494
323,492,497,494,493
439,493,497,494,493
566,493,496,493,494
728,495,496,493,493
804,493,496,495,493
791,495,499,494,494
718,493,497,495,493
521,494,496,496,493
337,493,496,496,494
269,493,499,498,494
231,493,499,496,494
254,492,496,496,494
284,495,498,495,494
373,492,497,495,494
496,494,498,495,494
628,495,497,494,494
780,495,497,495,494
809,495,497,496,493
767,496,499,495,494
647,493,497,496,493
425,493,497,496,494
303,493,498,498,494
231,496,496,495,494
238,494,499,495,494
259,492,498,494,494
322,496,497,494,494
427,495,499,495,493
550,495,498,496,494
707,495,497,494,494
809,494,500,496,494
786,493,497,495,494
739,493,496,495,494
547,494,497,495,494
353,494,497,495,494
280,495,497,497,494
226,495,496,494,494
251,493,498,496,494
282,494,499,496,494
359,495,498,496,494
477,494,497,495,493
610,495,498,496,494
770,492,497,495,494
805,494,496,495,494
770,493,497,495,494
667,494,499,496,494
458,494,498,496,494
315,495,498,496,494
246,492,498,498,494
237,494,499,496,494
263,494,498,495,493
301,492,496,494,494
414,494,497,495,494
533,494,498,495,493
682,496,498,494,493
802,494,497,495,494
791,492,498,496,494
760,493,500,496,493
576,492,497,496,493
373,494,496,495,493
286,494,497,496,494
229,493,498,496,493
244,494,495,494,493
269,495,497,495,494
337,493,497,496,493
465,493,497,495,494
590,495,498,495,494
756,496,499,495,494
812,495,501,495,494
775,495,501,496,495
691,494,498,497,494
484,494,497,495,494
323,494,497,496,493
255,495,497,494,493
235,494,499,496,493
253,493,496,495,493
299,495,498,494,494
400,495,498,495,493
518,495,498,494,493
655,494,498,496,493
795,494,497,495,494
801,495,500,495,493
760,492,497,495,493
607,494,498,496,493
395,493,497,496,493
295,494,497,497,493
232,493,497,495,493
237,495,499,496,493
275,495,498,495,493
335,495,498,494,494
446,493,497,496,493
572,495,496,494,494
740,493,500,494,493
804,493,497,495,493
781,492,497,496,493
705,492,497,495,493
515,494,496,494,493
333,495,497,495,493
267,493,499,497,493
236,494,499,496,494
261,495,499,495,493
287,495,499,494,493
379,493,497,494,494
501,494,497,495,493
636,494,496,493,494
782,494,497,495,493
796,493,497,496,493
762,496,500,496,493
637,493,497,496,493
416,494,497,497,493
303,492,497,496,493
238,492,498,496,493
240,495,499,496,493
264,492,498,494,494
327,493,497,496,493
433,495,498,495,493
558,494,497,494,494
711,494,497,495,493
806,494,499,496,493
785,492,496,494,493
736,496,497,497,493
539,493,497,496,493
350,493,496,496,493
279,494,499,498,494
234,493,496,495,493
258,494,499,495,494
279,490,496,495,494
368,493,497,495,494
486,492,498,495,494
613,495,497,497,494
775,494,497,496,493
799,497,499,494,493
767,494,498,496,493
660,493,497,496,493
443,493,497,495,493
312,494,497,494,493
247,492,499,493,493
231,492,499,495,493
268,495,498,495,493
318,496,497,494,493
416,496,497,495,493
538,495,497,495,493
692,493,499,497,494
794,494,497,496,493
785,492,497,496,493
747,493,497,496,493
564,493,497,497,493
369,493,496,496,494
287,495,497,495,494
236,492,499,495,493
255,494,499,493,493
281,496,499,494,494
347,492,497,495,493
470,494,497,495,493
594,494,497,494,493
757,495,498,495,493
799,494,497,495,493
768,492,500,495,493
683,492,497,497,493
472,495,497,495,493
322,493,498,497,493
258,493,498,497,494
240,494,499,495,493
259,493,496,494,493
306,495,496,496,494
404,495,498,495,493
526,494,498,494,493
663,495,496,494,493
788,493,497,495,493
793,495,499,495,493
754,492,497,495,493
594,495,497,496,493
389,493,496,496,493
296,494,498,497,493
235,493,496,495,493
242,494,498,495,493
272,493,497,495,494
338,495,497,494,493
456,495,498,494,493
575,495,497,494,494
743,493,499,495,493
798,493,499,495,493
777,492,498,497,493
693,492,496,497,492
502,493,496,495,493
329,494,497,495,493
267,494,499,497,493
232,493,496,495,494
264,495,498,495,493
294,495,497,494,493
388,495,497,495,493
506,494,497,496,493
642,494,496,494,493
785,495,499,495,493
789,492,498,496,493
757,493,497,497,493
624,494,498,496,493
407,495,497,495,493
303,493,496,494,493
229,493,499,494,493
247,495,498,494,493
275,495,496,494,493
329,492,498,496,493
438,494,497,495,493
559,494,498,495,493
715,494,497,495,493
797,493,498,496,493
777,493,498,494,493
719,496,498,497,493
530,494,497,495,493
343,493,499,496,493
278,494,499,497,494
244,494,498,494,493
260,495,498,494,493
285,492,497,494,493
373,492,498,495,493
489,492,497,495,493
620,491,496,494,494
768,492,497,496,493
793,496,498,494,493
765,495,498,497,493
647,497,497,496,493
433,494,497,495,493
314,494,498,495,493
249,495,499,495,493
239,492,497,494,493
271,493,498,496,493
315,494,496,495,493
423,494,497,494,493
544,494,497,494,494
697,495,499,495,493
793,492,497,494,493
780,496,499,498,493
741,493,500,498,493
555,493,497,496,493
362,493,497,496,493
287,492,496,495,493
244,493,497,494,493
255,491,496,494,493
281,494,496,493,493
356,493,496,494,493
473,494,497,496,493
601,494,496,494,493
757,496,499,493,493
794,493,498,496,493
766,493,498,497,492
670,493,499,495,493
456,494,497,495,493
322,494,497,495,493
250,492,499,495,493
238,495,496,494,493
268,494,496,494,493
307,494,499,496,493
411,493,497,495,493
532,494,497,494,493
668,492,497,496,493
786,493,498,496,493
786,493,498,496,493
750,493,499,494,493
578,493,498,495,493
382,494,496,494,493
292,495,498,494,493
242,495,496,493,493
252,495,496,494,493
281,493,499,496,493
340,493,496,494,493
460,494,497,495,493
579,493,497,495,493
742,491,496,496,493
798,493,497,494,493
764,493,499,496,493
680,494,496,495,493
490,494,498,496,492
331,493,497,495,493
267,495,498,494,493
241,492,498,494,493
261,494,498,495,493
303,493,496,494,493
394,493,497,495,493
515,493,496,495,493
647,492,497,496,493
781,494,496,495,493
793,494,499,494,493
749,493,500,496,493
615,495,497,495,493
405,494,496,496,493
303,495,496,496,493
237,497,497,494,493
254,494,498,496,493
272,493,497,495,493
330,492,497,495,493
443,494,496,494,493
565,495,498,496,493
723,492,498,494,493
795,494,498,497,493
775,493,499,497,493
710,494,499,497,493
520,494,496,495,493
339,494,498,495,494
274,493,496,494,493
239,496,498,494,494
260,495,497,494,493
289,494,496,493,493
379,494,498,495,494
497,493,496,494,494
631,495,499,494,494
770,492,498,496,493
792,494,498,497,493
762,494,499,497,494
635,495,497,496,493
427,494,496,494,493
310,495,498,495,493
246,495,499,495,493
249,495,496,494,493
275,493,498,497,493
322,494,496,494,493
433,493,497,495,493
548,494,498,495,493
697,492,496,495,493
793,492,497,494,493
778,495,498,497,493
731,493,496,494,493
545,492,498,496,493
356,492,497,496,493
288,494,499,496,493
248,495,498,494,493
257,494,497,495,493
290,496,496,496,493
366,495,497,494,493
480,494,497,494,493
607,494,496,493,494
758,495,499,495,493
791,493,497,496,493
763,495,496,497,493
660,493,498,497,492
451,492,496,494,493
321,493,497,495,493
248,493,499,496,493
248,492,495,495,493
272,495,496,494,493
314,495,495,494,493
415,494,496,494,493
535,493,498,495,493
673,493,497,495,493
792,496,497,496,493
781,493,498,497,493
745,492,497,497,493
573,493,497,496,493
375,493,496,494,493
293,494,498,495,493
236,493,496,494,493
258,496,498,494,493
285,495,497,493,494
352,495,497,496,493
464,494,498,495,493
587,494,499,496,493
746,495,498,496,493
792,493,498,497,494
768,493,498,496,494
679,497,498,495,493
479,494,497,495,493
330,495,498,495,493
263,493,498,497,493
246,493,499,496,494
273,495,496,496,493
298,496,498,495,493
402,493,497,495,493
518,495,498,494,493
651,495,497,495,493
782,494,496,494,493
781,494,496,496,493
752,494,497,495,493
597,495,498,495,493
393,494,496,495,493
299,492,497,497,493
239,491,496,496,494
249,494,496,494,493
283,494,498,494,493
335,493,498,494,493
450,494,497,495,493
570,494,497,494,493
733,496,497,497,493
796,494,496,495,493
775,495,499,495,494
691,494,497,497,493
506,494,496,496,493
336,493,496,496,493
272,495,496,496,494
244,493,495,495,493
262,494,498,495,493
296,495,497,494,493
387,494,497,495,493
501,494,497,494,493
632,493,499,497,493
769,495,496,495,493
791,495,497,496,493
750,493,496,496,493
627,492,496,496,493
416,493,496,495,493
304,493,498,497,493
238,493,495,495,493
253,495,499,495,493
279,495,498,495,493
332,496,498,494,493
433,494,497,494,493
553,494,499,496,493
713,495,497,494,493
788,495,497,495,493
772,492,496,496,493
720,497,497,494,493
532,493,496,496,493
351,494,497,495,493
283,494,500,497,493
246,494,499,495,493
264,494,498,494,493
292,495,496,496,493
368,494,497,494,493
485,494,496,495,493
611,494,496,494,493
759,494,496,495,492
788,492,497,496,494
762,495,498,497,493
650,492,496,495,493
441,493,497,495,493
315,493,498,496,493
252,492,498,497,494
252,492,495,495,493
274,494,497,494,494
318,491,496,494,494
418,494,497,495,493
538,493,497,495,493
680,491,496,496,493
792,494,498,496,493
775,494,498,494,493
740,493,498,497,493
557,494,498,496,493
369,494,497,496,493
291,494,498,496,493
234,493,496,494,494
258,495,496,496,493
285,495,496,494,493
351,494,497,494,493
468,493,497,493,493
591,494,498,495,493
747,493,496,496,493
794,495,497,496,493
764,494,499,498,493
671,493,499,496,493
468,493,497,495,493
321,493,498,496,493
259,491,495,495,493
243,495,497,494,494
268,496,497,494,493
304,495,496,494,493
408,494,497,495,493
524,494,497,496,493
665,495,496,496,493
781,494,498,497,493
781,493,498,497,493
749,493,499,497,493
592,493,496,495,493
385,493,497,494,493
294,493,496,493,493
241,496,497,494,493
249,495,496,494,493
278,493,496,496,493
346,494,497,495,493
452,493,497,495,493
575,494,497,496,493
735,493,498,497,493
794,494,499,497,493
764,494,496,495,493
690,495,499,496,493
495,493,497,495,493
332,495,497,495,493
265,495,497,494,493
240,494,498,497,493
269,493,496,495,493
301,494,499,495,493
391,494,497,494,493
505,494,497,496,493
639,492,498,496,493
774,494,499,494,493
781,494,500,496,494
756,492,496,495,493
620,496,498,495,493
409,493,497,495,493
305,495,496,494,493
240,492,496,496,494
244,493,496,496,493
281,494,495,495,493
327,492,496,495,494
437,493,497,494,493
557,493,498,494,493
718,493,499,497,493
790,494,497,495,493
777,495,499,495,493
714,496,500,496,492
525,495,497,495,493
344,494,497,495,494
274,495,498,497,493
242,494,496,494,493
257,494,497,494,493
286,493,496,495,493
375,493,497,495,493
492,493,498,495,493
621,491,498,494,494
769,494,499,496,493
792,493,499,496,494
761,494,499,496,493
650,496,496,496,493
428,495,497,495,494
310,493,496,496,493
241,495,496,494,494
240,493,496,495,493
268,492,496,495,493
327,494,499,496,493
421,493,498,495,493
548,495,497,496,493
694,493,498,497,494
792,494,499,496,493
779,494,496,495,493
736,495,500,496,494
545,493,496,495,493
360,495,497,494,493
283,495,497,494,494
237,494,496,494,493
255,493,499,496,493
289,492,496,495,494
364,495,497,495,493
475,494,497,496,493
602,493,499,497,494
758,492,498,496,493
789,494,497,495,493
765,495,497,495,493
661,496,497,495,493
456,495,497,496,493
319,494,496,495,493
251,492,498,498,493
235,493,496,495,493
272,494,498,496,493
307,493,497,495,493
407,494,497,496,493
527,491,498,494,493
669,493,499,496,493
788,492,497,495,494
785,494,499,494,493
745,496,499,495,493
575,496,497,495,493
380,494,496,495,494
291,493,497,494,494
231,494,498,495,494
256,492,495,496,493
276,491,495,496,493
343,492,497,496,493
458,494,496,494,493
580,493,499,496,493
742,494,497,495,493
797,496,499,495,493
768,496,498,494,493
683,496,498,496,493
484,494,497,495,493
325,493,498,496,493
257,493,496,494,493
234,493,497,496,493
260,492,497,496,493
301,496,497,494,493
397,493,497,495,493
515,494,498,495,493
653,494,500,496,493
784,495,500,495,493
785,495,500,495,493
753,493,498,497,493
603,495,498,495,493
397,493,497,494,493
296,494,497,495,494
229,493,496,495,494
246,492,496,494,493
278,495,498,497,493
332,493,496,495,493
447,492,497,495,493
566,493,499,495,493
731,493,500,496,494
794,493,498,496,493
770,496,498,498,493
704,493,497,495,493
510,494,497,496,493
334,494,497,496,493
269,492,499,495,494
242,493,498,497,493
258,495,496,495,494
295,492,498,496,493
383,494,498,494,493
499,494,499,495,494
632,494,499,495,493
770,492,498,495,493
791,493,498,497,494
757,493,496,494,493
632,494,497,495,493
420,494,497,494,493
310,495,498,494,493
235,492,496,494,494
243,494,498,496,493
275,493,499,497,493
327,493,499,496,493
432,493,497,495,493
551,494,499,495,493
705,492,497,496,493
794,495,497,495,493
776,494,497,495,493
725,494,497,495,493
546,494,497,495,493
354,493,498,495,493
281,492,497,497,494
238,494,498,496,494
258,493,499,497,493
287,494,499,496,494
363,493,497,495,493
482,494,498,495,493
614,493,498,494,493
769,496,498,495,493
793,494,497,495,493
764,493,499,496,493
666,493,496,495,493
448,494,496,495,493
316,493,497,496,494
246,492,497,498,494
242,493,498,496,493
265,493,496,496,493
317,494,497,495,494
416,494,498,495,493
539,494,497,495,494
681,496,499,494,493
792,494,499,496,493
780,493,497,496,493
749,495,499,496,493
564,493,496,495,493
369,493,497,496,493
286,493,498,497,493
234,491,496,494,493
245,494,500,496,493
274,492,496,495,494
353,495,497,494,493
467,494,498,495,493
591,495,497,493,494
758,493,499,495,493
795,493,499,496,493
775,492,497,496,493
676,493,497,496,493
472,493,497,495,493
323,495,497,494,493
256,493,498,498,493
229,492,496,495,494
266,494,498,494,493
302,495,498,494,493
400,494,498,496,494
524,493,498,495,494
657,492,499,497,494
787,493,497,495,494
788,493,497,496,493
752,493,498,497,493
597,494,498,496,493
390,494,497,496,493
292,493,496,495,493
229,493,499,495,493
246,495,499,495,493
273,495,498,495,493
336,492,496,496,494
450,495,498,495,493
573,493,499,494,494
737,495,497,494,493
797,493,497,497,493
773,492,497,494,493
700,497,497,497,493
502,494,497,496,493
331,493,497,496,493
266,494,499,497,493
234,494,499,496,493
253,492,496,495,494
288,495,498,497,494
386,493,497,494,493
506,494,497,494,494
637,494,497,494,493
777,494,497,496,493
794,496,499,494,493
761,493,498,498,493
625,495,496,496,493
410,493,497,496,493
301,493,499,497,494
236,491,499,496,494
237,491,498,495,494
268,491,498,496,494
325,495,496,495,494
435,495,497,495,493
556,495,497,495,493
724,495,500,496,493
799,493,498,495,493
781,495,499,497,494
723,493,499,497,493
531,494,498,496,493
345,493,496,495,494
273,496,499,496,493
226,494,497,496,493
254,496,497,494,493
281,496,496,495,494
368,493,497,495,493
489,493,497,494,493
625,495,497,494,494
769,495,499,495,493
801,494,499,497,493
768,495,499,498,493
654,494,499,496,493
432,495,496,494,493
311,494,498,496,493
235,492,498,495,493
237,496,497,494,493
264,495,497,494,493
312,496,499,495,493
424,494,497,495,493
547,493,499,495,493
696,493,497,496,493
801,494,498,497,493
787,494,499,497,493
741,495,496,496,493
558,494,497,495,493
361,494,497,495,493
285,495,498,495,494
236,495,497,495,493
247,494,496,495,494
282,493,499,497,493
350,493,497,495,493
476,493,497,495,494
603,493,497,496,494
760,493,497,497,493
805,492,497,495,493
770,493,500,498,493
668,493,496,495,493
465,495,497,494,493
321,495,498,495,493
249,496,500,495,494
236,493,498,494,493
257,494,499,496,494
308,493,496,495,495
408,494,497,495,493
529,494,497,496,493
671,495,498,494,494
798,494,499,497,493
788,493,496,496,493
760,495,500,495,493
588,495,498,495,493
382,493,498,495,493
290,495,497,497,493
231,496,497,495,493
246,493,499,496,494
269,493,496,495,493
336,493,498,496,494
456,493,497,495,494
584,494,497,496,494
750,492,497,496,493
802,494,498,495,493
782,495,499,496,493
694,495,499,496,493
493,494,497,495,493
329,495,497,495,493
258,493,498,494,493
228,493,496,494,493
253,493,497,496,493
286,492,496,495,493
396,495,497,495,493
514,495,498,495,494
654,492,499,497,494
792,494,499,496,493
798,494,499,496,493
764,495,500,496,493
614,493,496,495,493
402,494,495,496,493
298,494,496,494,494
231,496,497,494,493
237,494,497,495,493
268,495,499,495,494
326,493,497,496,493
444,495,498,495,493
567,493,498,496,494
731,493,499,498,493
808,494,499,495,493
779,493,499,495,493
717,493,496,497,493
522,495,498,495,493
339,495,498,495,493
271,496,498,494,493
235,493,498,497,494
251,494,497,496,493
290,494,496,495,493
376,493,497,495,493
496,494,498,495,493
628,493,498,496,493
776,495,497,494,493
802,495,500,497,493
761,493,496,496,493
648,496,498,496,493
426,494,497,495,494
306,495,497,496,494
237,492,497,495,493
233,494,499,497,494
263,493,496,495,494
318,493,497,496,493
426,494,497,495,493
555,495,498,494,492
708,493,499,494,493
798,494,498,496,494
792,495,499,495,493
742,496,500,496,493
546,494,496,496,493
358,495,498,494,493
278,494,499,498,494
229,493,496,495,493
248,493,496,495,493
277,492,496,496,493
361,493,497,495,493
484,494,497,496,493
611,495,497,495,493
774,494,499,495,493
804,496,499,495,493
772,496,499,495,493
663,492,496,496,493
451,495,497,496,493
314,493,497,495,493
240,494,496,493,493
231,493,496,496,493
260,493,497,494,494
313,492,495,496,494
415,494,496,496,494
538,493,498,496,493
687,494,501,496,493
799,496,501,495,493
787,493,498,494,493
750,497,499,498,494
573,495,497,495,493
375,494,497,494,493
285,494,497,495,493
226,493,497,496,494
251,496,498,494,494
278,493,498,494,494
345,494,498,496,494
468,494,498,495,493
591,495,500,496,493
759,495,497,496,493
804,496,499,494,493
774,494,499,497,493
679,495,497,495,493
478,495,497,495,493
321,494,497,496,493
261,495,499,495,493
232,492,497,494,493
261,493,498,496,493
300,493,499,496,494
401,494,498,496,493
519,493,498,495,493
662,495,500,496,494
786,494,498,494,493
792,495,497,494,494
754,495,498,495,493
599,495,498,496,493
394,493,497,495,493
298,494,496,495,493
237,494,499,495,493
246,492,497,497,494
275,493,498,497,493
336,494,499,496,493
448,495,497,495,493
573,494,498,496,493
732,495,499,494,493
803,496,498,493,493
776,496,497,494,493
700,493,499,497,492
507,495,496,495,493
331,493,498,495,493
263,492,496,495,493
233,493,497,496,493
256,493,498,495,493
288,495,497,497,494
387,494,497,495,493
505,493,498,496,493
643,495,499,495,493
785,496,499,495,493
795,495,498,495,493
764,494,498,494,493
627,495,499,496,493
415,494,497,494,493
302,493,496,495,493
230,493,496,496,494
241,494,496,494,493
272,492,497,497,493
322,494,496,495,493
438,493,496,495,494
558,495,499,495,493
717,496,502,496,493
800,493,498,494,493
780,494,499,497,493
722,495,497,494,493
532,494,497,494,493
348,494,497,495,493
279,495,499,495,493
232,493,497,494,493
254,496,498,498,493
287,493,498,497,494
373,493,499,495,493
485,494,499,495,494
617,493,496,494,494
776,496,498,494,493
799,494,499,494,493
763,495,496,494,493
652,495,496,495,493
437,494,496,495,493
316,494,496,495,494
241,496,498,494,493
241,493,498,497,493
272,493,498,496,493
318,493,499,496,493
416,493,497,495,493
544,494,498,496,493
687,493,499,495,493
796,494,496,495,494
782,494,496,495,493
739,494,499,496,493
565,494,497,495,493
365,496,498,495,493
285,493,497,497,494
236,493,497,496,493
255,494,498,496,493
282,494,500,495,493
351,493,498,495,493
471,494,498,496,493
600,495,497,494,493
761,497,498,494,493
797,494,497,495,493
774,495,500,496,494
671,494,497,495,493
468,494,496,495,493
320,493,495,496,494
253,493,495,497,494
238,492,496,495,493
262,493,498,496,493
298,493,496,495,494
409,494,499,495,493
527,495,499,495,494
666,496,500,495,493
787,494,498,494,493
784,495,500,497,493
754,494,497,496,493
587,493,497,496,493
387,494,497,495,493
291,493,497,497,493
238,495,496,494,493
252,494,499,495,493
272,493,498,496,493
346,495,497,494,493
457,494,498,495,493
576,495,498,497,494
744,496,498,494,493
800,495,500,496,493
769,493,497,496,493
688,494,496,496,493
495,494,497,496,492
331,495,497,496,493
265,493,497,494,493
233,494,499,496,493
267,495,498,495,493
296,495,499,495,494
390,492,498,496,493
510,493,498,495,493
644,492,499,495,493
779,493,497,495,493
787,495,497,496,493
753,494,497,496,493
616,494,497,495,493
409,494,496,496,493
298,494,497,495,493
239,492,498,496,494
251,495,498,495,494
276,495,498,495,494
326,492,496,494,494
440,495,497,495,493
559,493,497,495,494
720,494,497,494,493
796,495,498,496,494
773,497,498,495,493
713,493,497,497,493
521,496,497,497,493
341,493,497,496,493
279,494,499,496,494
244,495,499,496,493
256,492,497,494,494
292,493,497,496,494
375,495,497,495,493
495,493,497,494,493
623,494,497,494,494
766,495,498,496,493
798,495,498,496,493
761,493,497,495,493
644,493,497,497,493
431,494,497,495,493
310,494,498,496,493
246,494,497,495,493
250,496,498,495,493
270,494,498,494,493
324,495,497,494,493
426,495,496,495,493
546,495,497,496,493
702,494,496,494,494
792,496,499,495,493
778,494,498,497,493
736,493,498,497,493
549,494,497,497,493
358,494,497,495,493
286,494,499,495,494
232,493,498,495,493
258,496,497,494,494
287,496,497,494,493
360,495,498,495,493
475,494,497,496,493
604,494,497,494,494
765,495,500,496,493
794,492,497,497,493
767,493,498,497,493
665,493,499,496,493
455,494,496,494,493
320,494,497,495,494
254,495,499,496,494
245,495,498,493,493
271,496,497,493,494
310,493,498,496,493
411,494,497,495,493
529,493,498,495,493
670,493,497,495,494
789,494,499,496,493
781,494,498,494,493
741,493,499,496,493
572,494,497,495,493
377,494,498,497,493
294,494,498,495,494
244,495,498,494,493
252,495,497,497,493
282,493,496,493,493
342,494,499,496,493
459,494,497,495,493
583,493,496,496,494
742,494,497,496,494
795,495,498,495,493
771,494,499,495,493
676,494,500,496,493
486,493,498,495,493
329,494,498,495,493
263,496,496,496,494
239,495,496,494,493
267,493,499,496,493
295,493,497,495,494
397,493,497,494,493
518,495,497,495,494
652,497,499,496,493
781,494,498,495,493
783,494,500,497,493
755,495,500,497,493
610,496,498,496,493
399,495,498,495,493
295,493,496,497,493
242,497,498,497,493
250,494,496,494,493
272,494,495,494,493
331,494,497,495,493
441,494,498,496,493
568,493,497,496,493
730,497,499,494,493
797,495,499,496,493
777,495,499,496,493
705,495,499,496,493
510,494,496,496,493
337,495,497,496,493
269,496,497,495,493
238,494,496,495,493
260,494,495,495,493
288,495,499,495,493
382,493,496,494,494
500,495,498,495,494
631,493,497,498,494
775,493,499,496,493
792,495,500,496,494
759,496,496,496,493
631,496,498,495,493
415,495,497,496,493
305,494,496,495,493
237,495,496,495,494
243,494,496,495,493
278,495,498,496,493
323,493,498,494,493
431,494,497,495,493
551,494,498,496,493
707,493,499,497,493
793,494,498,496,493
780,495,499,495,494
722,494,497,495,493
537,495,497,495,493
355,494,496,495,493
281,494,496,497,493
244,494,496,495,493
259,495,498,494,493
285,493,497,496,493
368,493,497,495,493
483,494,498,495,493
609,494,499,497,494
759,495,497,496,494
796,495,497,496,494
758,496,498,496,493
658,496,497,495,493
446,495,497,495,493
316,494,498,495,493
245,494,496,494,493
246,495,499,496,494
269,492,497,496,493
315,493,497,496,493
416,495,497,496,493
536,495,498,496,494
685,495,497,495,494
792,496,500,496,493
782,496,499,494,493
742,497,499,495,493
563,494,498,497,493
368,494,497,496,493
289,495,496,495,494
233,494,496,496,493
253,493,497,496,493
282,493,497,497,493
350,495,498,495,493
466,494,497,496,493
589,494,497,497,493
755,493,499,496,494
798,494,499,494,493
767,496,499,497,493
670,492,497,494,493
474,494,497,495,493
322,495,498,495,493
255,495,496,494,493
241,493,496,495,494
271,495,498,495,493
301,492,496,494,493
