Sensor0,Sensor1,Sensor2,Sensor3,Sensor4

0,491,494,492,492
375,492,495,492,492
382,490,491,491,491
424,492,0,493,493
492,385,490,494,494
493,370,491,494,492
492,375,492,495,492
492,382,490,491,491
491,424,492,493,491
493,482,5,490,494
494,493,370,491,494
492,492,375,492,495
492,492,382,490,491
491,491,424,492,493
491,493,482,490,493
491,494,547,490,491
490,494,620,491,492
493,493,638,492,495
491,493,630,491,494
493,493,575,492,493
493,493,468,490,494
492,493,406,491,494
493,493,372,493,495
493,493,370,490,493
492,493,377,492,494
492,492,394,490,491
492,493,447,490,492
491,493,509,490,493
492,493,583,492,493
491,493,636,491,494
491,494,634,491,494
491,492,619,493,495
491,492,530,493,494
493,492,433,492,494
491,493,389,491,495
493,492,367,490,492
492,492,374,493,494
491,493,383,490,493
494,492,417,491,494
492,494,474,491,493
490,493,534,490,492
491,492,616,490,494
494,494,638,492,493
492,494,629,491,493
491,495,585,491,493
492,494,484,493,493
493,494,409,490,493
491,492,375,492,495
493,491,370,492,495
492,492,379,492,494
490,492,394,493,492
492,493,439,492,494
491,492,502,490,493
491,493,569,491,492
490,494,630,489,493
492,494,637,490,493
492,493,624,490,494
491,493,544,492,494
493,494,444,491,493
491,493,394,492,494
491,492,370,493,493
491,494,371,492,492
490,493,382,491,495
493,494,405,490,492
492,492,467,491,492
491,493,526,490,493
493,493,607,491,492
494,493,640,492,494
491,494,629,492,493
492,492,595,490,494
493,492,498,492,495
492,492,413,492,492
492,493,378,490,492
490,492,371,492,493
492,493,375,490,492
490,493,387,490,494
492,491,432,491,493
492,492,491,491,493
491,492,559,492,493
490,491,625,491,494
493,493,635,490,490
493,492,627,492,493
491,495,558,491,494
492,493,453,491,494
492,493,398,491,493
491,492,367,490,494
492,492,369,490,492
492,492,380,492,493
491,491,403,492,493
491,493,456,491,492
492,492,518,491,493
492,494,595,490,495
491,493,638,490,494
491,492,634,491,494
492,492,608,491,495
493,493,516,491,493
491,493,423,492,495
490,493,384,491,494
490,491,370,492,492
491,494,372,490,492
492,494,384,490,491
493,495,424,490,494
490,492,484,491,493
493,492,549,491,491
491,491,623,492,495
491,493,639,493,494
491,493,628,492,493
491,494,576,491,494
491,493,468,491,493
492,493,405,491,493
491,494,368,490,492
491,494,370,490,493
494,493,379,491,492
490,492,399,491,495
491,493,448,490,492
490,493,511,491,493
490,492,584,492,493
490,492,633,491,493
493,492,637,492,493
492,492,616,492,495
491,492,528,491,493
493,493,432,491,493
492,492,389,491,495
493,492,370,491,494
492,494,372,490,493
490,492,382,492,493
493,493,416,491,492
491,492,473,491,493
491,493,534,490,490
491,494,613,492,495
490,493,639,491,495
493,494,628,491,493
493,492,588,492,495
491,492,482,492,495
493,492,409,492,493
493,493,375,491,493
490,492,367,491,495
492,492,377,490,492
492,494,391,490,493
492,493,440,490,493
492,493,502,492,492
491,492,572,491,495
491,494,630,490,494
491,492,637,492,493
491,492,622,493,494
491,493,543,492,494
492,493,443,491,494
492,492,393,490,493
492,491,370,492,493
492,493,373,491,494
492,492,382,491,494
493,492,409,491,493
492,492,464,491,490
493,491,525,490,492
493,493,606,492,494
489,494,637,490,493
491,494,629,490,493
492,495,597,492,495
490,493,498,491,494
492,493,413,491,494
492,492,382,491,495
491,491,370,492,494
490,492,376,492,494
494,494,389,493,492
490,493,433,491,494
492,493,494,490,493
492,493,560,490,493
493,495,627,491,495
493,493,638,492,495
492,494,624,491,495
493,491,562,490,493
493,494,455,491,495
490,493,399,492,494
491,492,369,493,493
491,493,372,491,493
492,493,379,490,493
491,491,404,492,493
492,494,457,490,492
491,493,518,491,493
491,492,597,490,492
491,494,636,492,493
491,492,633,490,493
493,493,607,493,493
492,493,513,492,494
492,492,423,492,493
492,492,385,492,493
493,495,369,490,494
489,492,373,490,494
493,492,386,490,495
492,491,426,491,494
491,492,483,491,492
492,491,548,490,493
492,491,620,492,491
492,492,639,491,492
492,494,627,490,492
492,496,574,490,492
492,493,468,491,493
494,492,404,491,494
492,492,367,491,493
491,492,371,491,494
491,492,379,492,492
490,492,398,493,492
490,493,449,490,493
491,493,509,491,493
492,490,585,489,492
493,496,636,491,494
492,493,637,491,495
492,492,619,491,492
491,495,530,492,493
494,492,430,491,493
491,492,388,491,493
490,493,369,491,492
491,494,372,490,493
492,493,382,490,494
491,492,418,490,493
491,493,475,491,493
491,493,539,490,493
491,491,617,491,494
491,492,638,492,493
491,493,630,491,494
490,493,584,492,495
492,492,481,492,493
491,494,408,490,492
492,494,374,490,492
492,492,369,491,492
491,493,379,491,493
492,494,390,490,492
490,492,442,491,494
491,492,503,492,493
490,492,571,491,492
493,493,634,492,492
493,494,636,493,493
490,493,624,490,494
494,493,544,491,494
493,493,442,491,493
492,492,395,491,495
491,494,366,490,493
490,493,372,492,494
492,492,382,491,492
491,493,407,490,491
491,492,466,491,493
491,493,526,491,493
490,492,609,489,492
492,493,638,490,492
491,491,632,492,491
492,492,597,492,495
491,493,498,492,495
492,492,413,490,493
492,493,378,491,495
492,491,366,489,493
492,493,374,489,493
493,493,388,489,493
493,492,431,491,493
490,493,495,490,494
491,493,560,490,493
490,492,628,492,493
491,494,637,491,491
492,495,624,491,492
490,494,559,492,494
491,492,453,491,494
492,492,398,492,492
493,492,369,490,494
492,491,372,492,494
491,492,381,492,493
493,495,402,490,492
490,493,458,490,493
491,491,518,491,493
492,492,595,490,492
492,494,638,490,493
492,494,633,491,492
490,494,607,490,494
491,494,512,491,494
493,492,420,491,494
492,492,385,492,493
490,492,371,492,493
491,493,375,491,492
491,494,387,491,494
491,494,424,490,492
491,493,484,491,492
492,493,550,490,493
492,493,622,490,494
492,493,636,490,494
491,492,629,490,493
492,495,573,493,493
492,493,466,491,493
492,493,403,491,492
492,494,372,491,495
491,494,369,490,493
491,494,379,492,494
493,491,400,490,495
492,492,450,491,494
492,493,511,491,492
492,493,584,491,493
490,493,637,491,493
493,494,632,490,492
493,494,615,490,493
492,495,527,491,493
492,492,431,492,494
493,492,389,490,492
490,493,368,491,494
491,491,374,492,494
491,492,382,492,494
491,492,417,491,493
490,492,474,491,493
492,493,537,490,492
491,492,617,491,493
492,494,638,490,494
493,493,630,490,494
495,493,586,491,492
491,493,480,492,493
492,492,407,490,493
492,492,373,493,493
490,492,367,491,492
492,493,376,490,491
491,491,394,492,495
491,493,440,490,493
491,492,504,490,493
491,492,572,490,494
492,492,633,492,494
494,492,636,490,493
492,494,622,493,494
490,494,542,491,494
493,492,440,492,491
492,491,391,491,493
493,494,366,490,492
493,494,373,490,493
488,492,380,490,495
493,492,407,490,491
491,491,468,490,492
491,493,527,490,494
489,492,609,491,493
490,493,639,491,493
493,493,629,490,494
491,491,596,490,493
493,492,496,491,493
491,493,413,490,493
492,493,381,491,491
490,493,369,491,494
490,494,375,489,493
489,492,389,492,493
490,492,432,491,493
491,492,495,490,492
491,492,561,491,492
491,494,625,491,493
491,493,638,490,494
492,492,626,491,495
493,492,559,491,495
493,493,453,491,492
491,495,396,490,493
491,491,367,492,493
493,492,371,491,492
492,494,377,490,493
491,494,401,490,493
492,494,458,492,493
491,491,518,490,493
493,493,597,491,493
492,493,639,492,494
491,492,633,492,494
490,492,607,493,493
494,493,513,491,493
491,492,419,490,494
491,492,384,490,491
492,494,370,490,493
493,493,374,490,494
492,492,384,491,492
490,491,427,491,494
491,493,484,490,493
490,492,552,491,492
489,492,621,492,491
491,493,637,490,492
492,494,626,492,495
491,491,572,491,494
492,493,467,491,494
491,493,403,491,493
493,491,370,490,494
492,491,370,491,494
492,494,378,490,493
489,491,399,489,493
492,493,449,491,492
492,492,510,491,492
491,493,583,490,492
492,494,635,492,491
490,492,636,491,493
492,493,615,492,494
493,493,528,492,493
492,493,430,492,495
492,491,388,492,493
493,494,369,491,492
490,494,374,491,493
491,494,382,489,492
491,495,417,490,491
492,493,474,491,493
492,493,538,490,493
490,493,615,492,495
492,492,639,491,491
494,494,630,492,492
489,492,585,492,493
490,493,480,492,494
492,493,409,491,494
492,494,373,490,493
491,492,369,492,495
494,494,380,491,493
492,492,395,491,495
492,492,442,491,493
492,493,503,491,493
490,492,572,490,493
493,493,632,491,492
492,494,635,490,492
492,494,622,490,493
493,492,543,492,494
493,494,441,492,494
491,492,392,491,495
494,492,370,491,494
492,492,373,492,494
492,493,380,493,494
491,493,410,490,494
493,493,467,492,493
492,493,528,492,492
494,495,608,491,492
493,494,640,491,495
493,492,632,492,492
492,495,593,492,495
492,493,494,492,493
493,493,414,492,491
495,493,380,494,494
491,492,368,492,493
490,492,377,491,494
492,494,387,490,495
490,492,434,490,492
492,493,495,490,492
492,494,562,490,493
493,493,629,491,493
492,494,639,492,495
491,494,625,490,493
491,492,558,492,494
492,493,453,491,494
491,493,398,491,493
493,493,367,491,495
492,492,372,490,489
492,494,380,492,486
491,493,404,490,489
492,493,460,491,488
491,492,520,491,488
491,494,597,489,488
490,493,638,492,492
492,492,635,490,494
492,494,604,491,498
493,494,513,491,498
491,493,421,492,498
492,494,386,491,497
493,493,370,491,495
491,492,376,492,497
491,493,388,492,496
490,492,427,492,494
492,493,485,490,494
492,492,550,490,494
493,492,621,491,494
494,494,638,490,494
493,494,629,491,494
493,494,575,491,494
493,493,465,492,492
494,493,403,491,491
492,494,367,493,495
491,492,369,492,492
491,494,378,491,489
491,493,398,491,495
492,492,450,491,493
491,493,513,492,495
493,494,587,491,496
494,494,637,492,496
492,492,637,493,497
492,494,614,492,496
493,492,528,492,494
494,493,429,493,496
491,493,387,491,494
491,493,368,490,493
492,494,375,492,494
490,493,383,490,493
490,492,417,492,494
492,492,476,491,493
492,492,541,491,494
491,492,618,492,495
491,493,638,491,495
492,493,628,490,492
490,493,586,492,495
490,494,478,491,495
490,494,407,491,493
492,494,375,491,493
489,493,368,492,495
494,492,379,491,492
495,494,396,494,494
494,492,442,492,493
494,493,503,492,493
491,493,575,491,495
493,493,631,490,493
491,492,636,492,493
493,492,623,490,493
494,493,541,492,493
494,493,441,491,492
491,492,391,492,494
491,492,367,490,493
493,492,371,491,493
491,493,379,490,494
491,494,408,489,493
491,493,467,490,493
491,492,529,492,494
493,494,610,492,494
490,494,640,492,495
492,491,632,492,496
492,492,595,493,496
491,494,494,492,493
493,493,412,492,490
495,493,380,492,491
490,493,367,491,492
493,493,375,490,493
493,493,388,490,493
490,492,433,490,493
492,493,495,490,492
491,492,563,491,495
491,492,630,492,496
492,493,636,492,495
491,493,627,491,496
491,493,554,492,495
493,493,452,493,495
492,494,398,492,496
493,494,368,490,497
494,493,373,491,496
493,492,379,492,495
491,491,405,492,498
492,494,459,491,498
491,492,520,492,496
491,492,597,492,484
491,493,636,491,488
491,492,633,491,491
493,494,606,494,493
490,493,511,492,494
492,493,419,491,494
493,492,385,491,495
492,494,369,491,493
491,492,374,493,494
494,493,386,492,492
491,493,425,492,492
491,493,486,491,493
492,493,550,492,493
491,492,623,491,494
493,494,637,492,489
492,492,630,493,492
494,491,574,495,495
492,492,465,493,494
492,493,402,492,493
493,493,369,494,493
492,492,370,492,494
493,494,377,491,492
492,494,397,490,492
492,493,449,492,492
492,492,512,493,491
492,492,587,491,492
491,495,634,492,492
491,493,634,493,492
491,493,616,495,493
492,493,526,492,494
493,493,430,492,493
491,492,388,492,494
493,495,368,491,493
492,493,374,491,494
492,492,383,491,494
491,494,416,491,493
491,492,477,491,492
491,493,541,492,491
490,492,616,493,491
491,492,637,492,490
494,493,628,491,494
492,493,586,493,494
494,494,479,492,494
491,493,408,491,494
492,492,374,492,494
493,491,369,492,494
492,491,376,490,491
494,493,394,493,492
492,492,442,490,493
492,493,504,491,493
492,493,573,490,493
492,495,633,491,494
491,494,636,492,494
493,492,624,492,492
491,494,541,492,494
493,493,440,492,493
492,492,392,493,493
492,491,368,490,493
494,493,371,492,492
491,491,381,492,492
492,495,409,490,492
492,493,467,491,493
492,492,528,491,493
494,492,609,491,491
492,494,639,492,490
492,493,630,490,493
490,492,593,493,493
492,493,494,493,493
494,493,412,491,493
491,492,379,492,491
491,495,367,493,491
490,492,376,490,494
493,492,389,491,494
493,490,434,491,493
492,492,494,490,492
492,493,562,492,492
494,494,629,491,493
493,494,635,491,492
493,495,625,490,492
492,495,556,491,494
493,492,451,491,492
493,493,397,492,492
492,492,369,491,494
492,492,372,492,494
490,492,380,492,494
490,491,403,492,493
492,494,459,490,491
492,492,519,491,494
492,491,599,490,491
492,494,638,490,492
492,493,633,491,493
493,492,603,492,493
492,492,511,491,494
491,493,417,491,494
492,492,384,492,493
491,492,369,492,492
491,493,373,491,492
494,491,387,490,492
491,494,428,492,493
490,493,487,489,492
492,493,552,489,492
492,492,623,490,493
491,493,636,489,493
490,491,627,492,492
493,494,571,492,493
492,493,463,491,494
492,493,401,490,493
492,494,367,490,493
492,493,369,492,493
491,493,380,490,493
490,493,397,491,494
492,492,452,490,491
492,492,513,491,490
491,492,588,492,490
493,494,636,492,490
493,494,636,492,495
491,494,613,490,493
492,494,525,490,494
492,493,429,491,493
492,491,387,491,493
494,492,371,490,492
491,493,372,492,494
490,491,383,492,493
491,492,418,491,492
490,492,477,490,493
492,492,540,489,490
492,492,619,491,494
492,493,638,490,492
493,492,630,491,494
493,493,584,491,494
491,492,478,491,495
492,493,405,491,493
491,492,372,490,493
493,492,366,490,491
492,493,375,491,492
492,494,393,490,491
492,491,443,491,491
493,492,505,491,489
491,492,574,490,495
493,492,634,492,495
492,493,637,492,494
490,493,622,490,493
494,493,538,492,493
492,493,438,491,494
490,494,391,490,492
491,495,367,490,493
492,493,373,490,493
491,491,380,492,494
494,491,412,490,491
491,492,469,491,492
492,491,530,491,493
491,492,610,491,493
490,494,637,491,492
489,492,631,491,494
491,495,590,490,494
491,492,493,491,493
492,492,411,490,494
492,493,379,490,493
493,493,370,490,492
492,493,376,491,493
491,494,387,489,492
489,492,434,491,493
491,492,496,490,491
491,492,561,490,492
490,491,630,491,493
492,493,637,491,492
491,492,626,490,494
493,492,555,491,495
493,493,450,491,494
492,491,396,490,493
492,492,368,492,493
492,492,372,490,492
491,492,377,490,492
491,494,401,489,492
492,493,459,490,492
491,493,519,491,491
492,492,602,490,495
493,494,637,490,492
490,492,632,492,493
490,492,604,492,494
491,493,509,492,493
493,492,418,491,493
491,493,381,491,494
490,491,368,490,493
492,492,374,490,493
493,492,385,489,494
493,492,425,491,492
491,492,486,490,493
492,493,552,489,492
490,491,622,492,493
491,493,635,489,492
492,494,625,489,495
491,492,573,490,492
495,493,463,491,491
495,493,401,491,494
492,492,369,490,496
491,492,369,492,493
491,492,378,492,491
494,494,399,490,489
493,492,450,490,491
490,493,512,490,492
491,494,586,490,492
492,495,636,490,493
492,493,633,491,492
491,491,616,491,495
493,494,523,491,494
493,492,427,492,494
492,492,387,491,492
491,493,369,491,494
491,492,374,490,492
493,493,384,491,495
491,494,420,489,494
492,493,476,490,494
491,493,542,489,494
491,495,616,490,492
490,492,638,492,492
493,493,631,491,489
490,493,581,493,492
491,493,477,492,493
492,492,407,491,492
492,493,375,493,494
490,492,370,490,494
491,493,376,490,494
491,491,396,491,495
491,492,443,490,494
491,493,505,490,493
491,493,576,490,493
490,493,634,491,494
492,492,634,490,494
493,493,620,489,495
493,494,539,490,495
494,493,439,491,494
492,492,392,491,493
493,494,366,492,493
491,493,371,492,492
490,493,379,491,493
491,493,409,490,492
491,492,467,491,491
492,493,530,491,489
492,495,611,491,486
493,494,639,492,485
493,493,631,492,484
493,493,593,492,486
494,495,492,493,492
493,494,411,490,492
496,493,377,492,498
492,492,367,490,500
492,493,375,488,499
491,491,391,492,498
489,492,435,489,496
490,492,497,490,494
489,491,565,492,496
489,491,630,492,495
489,492,635,490,495
493,492,622,491,492
491,493,555,491,495
493,494,448,492,495
494,493,396,491,494
493,493,366,490,493
491,493,370,491,493
493,491,380,490,491
493,494,407,492,493
490,492,461,491,492
490,492,520,491,494
489,493,600,492,496
491,493,639,492,496
493,493,631,490,495
491,492,604,490,494
493,493,507,491,492
492,493,417,491,489
492,493,384,491,484
492,494,370,492,487
491,493,374,490,487
491,493,385,492,487
491,493,427,491,490
491,493,487,489,490
492,493,554,491,492
492,494,623,492,493
491,493,639,490,495
491,492,628,491,495
492,491,571,492,496
493,493,460,491,494
497,492,401,492,494
496,492,369,491,496
496,493,368,490,495
492,494,379,490,495
490,494,398,489,494
493,492,451,491,493
492,492,513,490,493
492,494,588,490,491
489,492,638,492,492
489,493,634,492,491
491,493,614,493,492
494,493,525,492,492
491,492,427,492,494
492,492,387,490,492
493,495,370,489,494
493,492,375,490,497
492,492,381,489,493
492,491,421,491,493
492,492,477,490,491
491,492,543,490,489
488,493,617,493,491
490,494,638,491,493
490,492,631,490,493
492,494,582,493,498
490,494,476,490,498
491,493,408,492,496
494,492,375,491,498
494,492,370,492,495
495,494,378,490,493
490,493,393,491,495
491,493,443,491,492
491,493,505,492,491
493,493,575,491,490
493,493,632,493,491
491,491,638,493,493
492,492,619,491,494
492,491,538,492,494
493,491,438,491,495
493,492,391,492,494
496,494,369,491,491
498,494,373,493,495
499,493,380,490,492
494,493,411,490,494
494,490,467,491,493
495,491,529,490,495
494,491,613,492,493
495,493,637,491,496
492,494,629,490,494
491,494,589,491,494
492,493,490,493,493
493,491,412,493,495
491,491,377,491,492
492,490,366,494,494
497,489,376,495,494
497,489,390,496,495
494,491,434,493,493
497,496,496,489,490
494,493,564,488,495
490,493,627,490,494
491,492,635,490,495
495,494,624,490,494
498,492,552,492,495
495,492,448,495,496
495,491,394,497,495
494,491,369,498,491
492,495,372,496,490
490,493,379,493,495
487,493,402,490,494
488,493,461,489,494
490,493,519,485,494
495,492,602,486,492
499,490,638,488,497
498,489,632,490,496
498,492,599,492,500
502,492,505,495,500
506,494,416,493,495
497,493,381,493,491
495,491,368,492,493
489,492,375,492,492
488,494,385,491,492
491,492,427,490,494
498,495,488,489,495
502,494,555,490,497
504,493,626,487,497
509,493,638,491,495
506,492,628,491,495
505,491,566,492,494
487,492,460,494,494
481,495,401,490,494
478,493,369,492,493
485,494,371,490,492
486,494,379,489,495
486,491,401,489,493
490,491,452,491,493
499,493,514,492,495
499,494,590,489,494
496,495,634,489,493
497,492,634,488,494
492,493,612,489,494
484,493,523,491,499
496,493,429,494,500
516,494,389,495,502
514,494,368,495,499
498,490,372,498,498
511,492,383,498,495
489,491,417,496,494
484,486,476,496,494
494,491,542,495,498
494,493,618,494,498
494,491,638,492,496
496,489,628,490,495
502,492,578,489,494
499,491,474,491,496
483,491,404,489,495
489,498,370,493,495
495,498,367,492,496
493,498,378,493,497
491,498,396,494,497
486,495,445,496,494
487,493,507,496,492
488,494,579,494,497
487,491,634,494,496
494,492,636,493,494
500,493,621,492,495
492,494,535,495,499
496,493,436,496,498
502,490,388,494,496
498,486,364,490,496
490,486,366,489,494
487,492,379,489,498
494,493,408,490,501
509,494,468,489,503
505,496,530,488,498
505,493,609,488,498
516,491,638,487,500
534,494,632,491,504
520,499,590,493,506
519,499,490,490,502
500,493,409,487,496
476,490,376,488,494
490,492,365,485,495
498,492,374,490,498
500,493,387,496,499
504,495,434,493,498
492,498,496,490,494
487,494,565,493,496
499,498,629,495,496
489,495,635,495,497
460,492,624,496,498
451,487,550,494,503
482,486,445,489,500
502,490,392,486,501
510,493,365,484,500
507,495,367,486,496
503,504,378,495,492
499,501,404,505,493
513,490,463,512,503
511,491,521,513,510
541,489,602,515,514
547,487,636,507,507
559,487,627,493,497
523,486,593,481,493
475,495,498,479,492
460,493,410,485,496
477,497,379,488,496
491,497,364,485,499
496,500,373,487,506
505,497,384,489,505
495,492,422,486,506
483,485,482,483,494
465,476,544,487,499
469,475,612,490,501
504,483,626,488,499
539,486,619,498,505
533,492,558,494,508
518,496,453,498,507
533,498,393,497,500
495,491,360,498,497
489,487,361,495,496
507,494,370,496,496
506,501,395,498,500
485,488,444,501,501
506,479,504,496,506
529,485,578,490,500
491,482,624,495,492
484,486,620,491,491
469,487,598,487,488
474,490,512,490,498
481,493,417,490,502
476,491,377,485,500
483,492,362,489,499
514,502,367,496,502
538,497,383,505,508
553,498,419,516,516
528,492,476,522,518
534,494,542,519,511
547,504,620,513,503
508,499,634,500,496
480,495,621,481,485
466,479,570,479,493
484,474,464,493,506
526,472,398,504,504
493,478,359,511,502
476,477,358,510,501
469,489,368,509,494
484,494,388,507,491
511,493,436,499,489
502,500,497,479,488
496,492,568,474,490
493,494,628,489,493
530,490,629,493,500
562,484,614,493,510
479,496,529,496,510
470,490,429,489,502
485,488,381,477,498
508,498,365,476,492
494,492,366,487,497
499,490,375,491,493
500,490,408,496,497
479,498,465,496,501
499,494,530,501,510
500,491,607,490,512
493,484,632,493,514
497,473,619,498,502
486,470,581,506,504
516,480,478,511,499
536,490,403,505,499
534,505,370,496,497
549,501,363,493,497
526,509,372,491,493
493,503,388,494,487
494,498,434,503,484
484,497,498,493,490
440,490,564,489,500
475,479,627,491,512
557,481,636,493,515
531,491,619,493,508
468,489,546,517,505
500,496,449,535,503
540,483,393,529,487
521,474,362,519,485
450,479,365,499,488
449,499,371,480,493
454,496,404,476,497
481,497,461,486,499
508,498,525,498,504
555,501,609,500,503
566,490,641,502,501
530,483,630,492,504
498,488,598,479,507
456,486,501,485,509
511,485,418,498,518
562,479,380,496,516
530,492,369,497,502
494,497,375,501,494
473,491,382,494,481
441,486,424,491,482
476,491,489,490,494
493,492,552,480,496
459,480,620,485,494
485,478,634,493,499
512,480,623,494,501
519,488,567,510,507
566,491,458,516,497
535,487,397,512,498
464,495,362,514,495
466,500,369,513,498
502,504,380,494,502
544,490,399,483,507
515,474,448,487,510
520,473,504,485,508
474,470,582,503,503
485,488,629,523,496
508,502,629,525,495
521,506,610,510,493
477,511,516,493,488
443,506,421,477,489
484,493,383,473,500
497,492,368,491,498
506,488,372,492,501
485,481,376,493,515
537,468,414,500,519
595,485,474,490,517
565,490,535,486,500
550,497,609,490,486
470,505,632,490,487
444,494,621,496,499
456,481,571,495,498
499,480,463,485,498
495,488,400,496,497
533,497,370,512,495
504,501,365,505,484
477,489,374,492,496
446,491,387,493,497
489,496,441,492,494
532,486,503,482,501
507,488,571,479,504
473,481,625,507,509
527,458,623,513,516
530,459,607,521,522
497,466,520,521,510
579,484,424,511,498
518,514,382,504,498
491,501,361,517,492
509,488,366,516,488
433,495,374,516,487
463,501,409,497,488
506,504,465,480,490
476,499,529,483,502
505,474,604,489,511
546,473,629,500,505
558,480,622,498,494
562,501,581,488,483
459,502,483,481,482
422,510,406,477,483
434,504,375,472,498
464,495,369,475,496
481,498,379,484,493
491,496,394,495,491
491,492,437,497,509
506,490,502,504,519
540,484,568,499,522
549,491,627,492,513
544,485,630,490,495
474,472,614,491,485
474,478,540,492,492
480,491,441,493,499
508,504,395,509,508
552,513,377,525,511
568,509,378,539,511
516,502,387,540,498
465,491,403,502,481
452,483,457,479,481
461,484,518,492,491
462,493,601,491,505
508,496,638,494,512
539,497,632,478,511
567,479,597,507,519
551,477,501,519,502
482,473,409,513,482
457,497,378,514,477
477,525,374,504,482
466,501,373,473,480
458,469,383,490,496
481,469,425,488,502
491,469,483,486,512
552,496,556,487,521
563,519,628,490,521
576,515,641,487,516
473,500,626,492,497
461,496,567,496,495
508,480,457,486,488
498,473,398,499,486
529,477,366,510,493
487,497,369,490,489
447,511,382,496,486
454,505,409,522,504
504,502,463,519,512
547,497,520,506,505
552,468,591,499,496
546,459,628,499,496
467,479,623,484,497
490,483,603,495,501
469,506,518,513,504
448,502,424,512,501
460,506,391,515,495
492,515,379,512,494
498,507,378,479,486
496,491,383,472,479
475,470,418,469,489
475,465,473,476,506
491,470,537,475,508
499,480,612,489,504
519,509,640,521,506
533,528,637,528,501
561,521,589,522,507
593,504,478,491,493
521,488,406,480,491
460,487,368,485,492
440,464,361,481,511
444,462,372,485,514
475,474,388,486,501
506,498,442,488,493
529,513,511,504,503
548,501,584,527,513
548,498,636,515,504
497,493,634,503,487
423,499,616,499,490
472,491,535,495,508
497,479,432,502,511
496,476,385,494,509
525,474,364,510,504
532,492,371,530,506
557,499,381,525,503
534,491,413,510,498
505,504,469,472,493
461,499,529,476,480
436,505,613,490,485
455,503,638,474,504
480,504,632,473,505
481,496,590,487,513
480,485,487,486,507
511,478,408,491,497
521,490,379,504,503
526,494,372,511,500
512,505,378,490,488
495,504,392,472,487
467,489,436,486,506
504,485,502,503,513
503,498,571,506,505
493,499,632,513,502
533,483,636,508,494
519,472,619,510,495
497,481,544,497,496
515,492,439,476,489
497,497,390,486,484
485,505,367,493,487
448,490,367,494,499
446,471,373,499,495
474,473,400,514,505
496,498,464,527,505
530,514,527,509,505
525,527,615,499,507
541,518,645,490,493
514,495,633,473,493
514,490,600,468,496
495,493,503,492,498
449,494,417,501,500
484,495,384,497,496
481,496,375,499,505
500,496,381,494,501
510,495,390,494,502
504,490,435,495,508
528,498,496,523,501
536,497,562,526,493
525,488,624,496,478
488,486,632,479,474
448,476,620,497,479
455,470,557,510,484
463,463,447,502,489
479,482,392,480,496
489,494,365,486,502
492,485,365,497,492
484,494,376,493,506
485,499,397,485,502
474,501,452,470,492
484,510,516,466,513
540,516,601,487,525
589,509,647,499,527
618,504,640,507,502
548,491,615,523,486
459,487,518,523,466
411,480,421,501,482
451,473,378,484,492
474,461,359,488,500
470,460,365,495,510
495,484,378,502,513
543,496,421,511,507
535,504,480,511,503
509,497,541,503,485
548,498,620,488,482
467,514,635,463,479
416,507,627,470,487
453,503,581,489,500
480,498,479,517,503
493,496,411,510,501
491,482,376,510,508
489,493,375,492,510
518,496,384,475,509
555,488,402,485,500
545,492,448,486,494
556,496,510,486,498
454,494,579,497,497
445,499,635,495,493
473,508,638,484,481
478,486,620,488,488
488,484,534,492,502
518,485,435,489,498
476,479,387,488,497
479,474,367,495,500
482,492,371,492,492
475,489,380,493,495
484,500,413,498,481
478,513,476,504,480
526,510,543,532,495
555,503,619,528,502
528,496,644,503,504
535,495,628,475,502
465,486,581,472,500
464,466,479,492,501
481,476,404,490,499
487,481,368,479,492
475,499,367,507,493
486,517,381,521,506
507,514,402,532,504
537,504,446,520,503
538,505,504,481,503
540,501,572,487,499
512,492,628,484,486
436,479,631,477,477
455,473,616,478,489
453,474,539,477,489
471,493,441,484,494
484,494,392,477,497
494,488,368,487,498
512,489,371,500,495
520,494,381,488,496
519,496,407,479,491
509,502,464,488,489
457,494,524,502,503
477,480,602,501,502
475,469,631,493,504
474,470,620,495,500
479,486,589,503,493
509,508,502,508,508
521,514,417,509,505
523,501,384,513,498
540,495,375,515,499
522,491,378,507,496
503,499,390,501,495
500,505,436,506,490
510,504,492,482,489
510,484,556,462,487
462,476,616,469,489
428,479,631,489,508
460,490,623,483,492
476,516,564,483,490
486,510,462,492,486
506,499,405,510,491
519,497,375,510,493
523,499,375,494,496
492,497,383,503,505
481,497,404,501,504
510,495,461,510,500
502,496,519,497,502
503,484,594,487,500
509,476,631,480,492
457,475,624,490,494
474,471,604,505,499
527,495,514,517,504
555,499,425,511,484
574,510,386,491,492
453,507,365,456,483
424,498,374,474,487
478,485,384,489,487
497,481,420,493,492
498,487,480,504,494
491,492,545,515,504
484,503,621,505,507
490,516,640,494,504
496,506,632,482,501
473,490,575,475,499
495,482,467,485,496
486,480,400,479,498
488,483,366,475,503
498,488,369,488,508
506,495,380,500,506
500,500,400,505,492
518,512,451,496,485
533,514,514,489,485
484,490,580,492,495
495,473,632,492,503
488,479,631,485,504
485,464,612,486,499
474,480,524,493,493
461,492,429,501,494
473,501,389,503,496
484,508,369,498,494
495,505,374,494,498
490,494,384,512,501
504,492,415,498,501
520,479,473,514,504
540,460,530,513,507
538,475,608,493,508
504,489,632,498,505
478,525,631,492,499
476,533,592,486,491
517,517,494,504,485
494,503,415,483,481
462,499,378,475,483
464,489,372,480,493
473,465,375,487,496
492,456,385,491,499
493,473,432,508,491
504,504,503,515,489
510,519,574,515,486
485,514,638,508,502
518,510,640,477,499
487,504,629,459,493
464,500,550,470,492
491,496,449,480,488
491,495,401,495,495
492,497,377,507,503
522,500,381,518,499
523,498,389,510,486
502,496,411,486,493
490,494,468,481,493
471,490,526,479,490
467,496,605,478,495
490,498,643,485,489
491,494,632,489,495
495,479,597,487,502
473,479,499,493,504
477,488,415,501,504
495,508,384,494,492
499,502,372,492,486
500,487,377,490,487
513,490,387,486,487
492,486,429,483,492
501,489,492,490,494
486,503,559,492,496
486,489,626,484,504
492,477,632,479,501
494,481,623,491,502
498,483,560,491,501
505,491,454,494,501
504,501,400,504,497
496,498,372,521,501
501,501,374,526,503
509,498,382,522,499
471,464,396,497,486
498,465,442,470,483
491,479,507,480,484
475,511,591,477,489
500,517,635,475,481
454,500,631,485,486
480,500,608,490,497
490,495,516,489,493
488,490,425,489,492
492,489,385,482,494
497,493,372,481,497
487,493,376,483,494
484,496,386,485,493
492,498,424,491,495
490,496,484,496,495
488,497,548,494,491
495,498,621,494,500
514,497,640,494,502
520,496,629,491,499
498,495,578,491,495
500,493,469,492,491
481,497,406,488,494
475,494,373,489,494
487,493,372,496,490
501,500,381,504,488
497,496,404,503,489
487,495,449,500,493
487,496,510,487,493
491,499,585,480,498
493,500,636,492,493
496,494,638,486,492
494,498,622,494,497
524,499,537,509,511
536,504,441,506,508
540,499,396,494,494
491,493,373,496,491
472,492,375,495,492
479,486,383,492,481
485,490,416,492,489
482,493,474,494,488
470,484,533,483,489
473,471,610,479,501
479,473,631,489,503
485,488,624,497,497
485,512,588,506,499
489,509,489,527,501
494,498,414,515,499
500,493,376,511,499
487,497,373,496,498
492,504,380,467,483
508,503,396,470,483
477,501,443,483,487
495,500,506,487,489
501,497,575,484,489
504,492,633,486,490
501,480,634,488,496
485,479,619,480,498
483,482,541,479,497
488,489,440,483,498
494,496,394,493,497
489,489,369,492,496
498,494,373,492,493
500,504,385,496,493
509,510,412,492,495
496,504,468,492,492
486,497,527,491,484
497,496,606,487,485
484,499,639,487,488
478,493,630,490,491
487,487,595,487,497
490,491,496,488,496
487,490,411,488,494
484,489,377,487,496
488,497,367,489,497
493,498,376,489,498
492,506,390,491,499
491,504,431,490,498
491,499,491,490,495
488,496,556,489,490
495,496,624,491,491
500,497,631,487,491
499,495,620,488,490
487,495,555,491,490
486,494,449,489,490
488,495,394,485,491
489,497,366,488,494
488,496,367,488,490
491,495,376,488,491
499,494,402,488,492
497,494,453,492,490
494,494,516,495,492
485,497,593,494,492
488,497,636,486,494
492,497,630,483,493
493,496,605,488,495
491,498,517,495,495
490,497,426,501,495
492,495,390,508,493
488,496,374,503,494
491,494,380,490,491
485,490,388,488,486
499,490,428,487,489
502,493,489,492,494
499,497,552,482,491
476,495,629,488,491
491,491,643,494,495
502,486,633,490,497
500,490,581,484,495
501,493,472,485,493
499,500,410,494,492
501,504,379,496,494
484,502,378,492,491
493,500,386,485,490
490,496,409,489,493
499,498,455,487,492
498,497,518,488,494
480,497,593,489,494
480,495,640,486,492
480,496,641,482,494
485,498,625,486,494
488,498,536,491,494
488,496,438,493,494
491,493,395,490,489
495,489,371,487,487
493,489,378,489,492
489,488,385,489,494
492,493,419,489,492
490,496,479,489,494
490,488,539,490,493
487,486,616,491,492
488,491,640,491,493
491,501,629,492,493
493,497,590,490,489
492,497,485,488,492
491,498,413,488,494
492,501,380,489,494
489,500,376,489,498
491,500,382,488,497
490,497,400,491,499
489,496,445,489,500
491,496,506,489,499
492,496,576,489,497
491,498,633,490,498
492,497,639,489,497
493,499,628,490,503
494,499,548,489,496
492,498,445,487,494
491,499,397,487,499
489,496,372,489,495
490,496,374,487,477
489,496,381,490,471
489,496,406,490,480
491,494,464,489,489
489,494,525,486,491
491,496,605,487,492
491,495,638,489,495
490,495,629,489,495
489,496,594,489,495
488,498,496,488,495
490,496,411,489,494
499,496,375,489,489
490,496,365,489,491
484,496,372,493,491
493,498,385,495,490
485,497,430,491,491
488,496,489,487,490
480,495,557,489,491
494,495,624,490,489
499,497,632,492,490
494,498,621,493,495
493,495,555,489,494
487,496,451,487,493
486,498,396,484,493
487,497,366,480,492
489,495,369,487,493
489,498,378,494,493
487,495,403,492,490
488,497,457,494,491
486,496,518,493,492
486,496,595,489,491
492,497,638,487,491
491,497,633,487,492
491,496,607,491,493
495,496,515,489,492
493,496,423,489,494
492,495,387,490,496
492,499,371,489,501
490,498,378,487,505
493,498,388,489,507
490,500,429,489,509
490,498,489,490,507
491,499,553,487,492
490,497,626,490,488
492,496,644,487,482
491,498,636,489,485
491,496,584,491,492
487,498,477,491,486
489,497,412,489,482
491,498,380,490,487
491,496,383,490,493
493,498,391,488,494
491,498,411,487,486
492,497,461,487,492
490,499,524,487,499
490,496,596,487,500
490,497,647,489,490
489,498,646,490,489
488,498,628,491,496
488,498,541,490,495
490,497,442,490,483
489,495,400,488,485
491,496,379,488,492
492,494,385,489,494
491,494,393,489,495
490,494,423,487,495
491,496,486,489,499
490,500,547,488,502
489,498,623,489,486
491,497,644,488,482
491,497,635,487,488
489,495,594,488,492
491,498,489,490,495
490,498,416,488,496
490,497,384,489,494
491,495,378,490,490
489,497,384,487,493
489,497,400,490,495
490,496,448,488,499
491,497,510,487,498
492,499,577,486,499
492,500,638,487,499
491,499,644,487,502
490,498,627,488,492
491,494,549,490,499
490,498,448,490,499
490,497,400,491,489
490,496,373,490,489
492,496,379,486,482
489,496,387,489,486
488,497,413,487,494
489,496,471,484,487
489,495,531,487,487
491,497,610,487,488
491,497,644,489,495
491,497,637,489,497
490,498,598,489,499
491,497,502,490,492
490,496,418,490,495
491,498,386,487,497
491,497,375,491,487
491,497,383,492,480
491,498,396,494,486
490,496,440,492,494
489,497,498,486,490
491,495,564,482,495
485,496,629,487,507
485,496,640,485,512
488,498,629,486,506
488,500,565,488,508
490,498,458,489,489
495,498,403,487,489
491,498,371,489,497
492,495,376,490,490
490,496,384,489,481
487,495,405,487,483
488,494,459,487,484
488,495,522,488,487
489,496,599,486,486
490,496,640,487,486
490,496,637,488,488
490,499,607,489,492
491,498,518,489,492
491,497,425,490,500
490,497,388,489,502
490,497,374,488,489
490,498,379,488,481
489,497,388,485,494
489,497,431,488,506
491,499,489,488,507
493,498,555,488,503
490,497,628,488,500
489,495,642,487,480
490,494,629,488,466
487,496,578,488,483
490,496,470,489,491
491,496,406,488,489
490,496,373,488,490
489,493,374,488,485
491,494,383,487,491
488,494,405,487,497
490,499,455,487,498
490,498,517,488,502
489,496,590,487,498
492,495,639,488,489
491,491,641,489,489
491,492,618,487,487
492,494,530,488,487
492,493,436,488,493
489,499,393,488,503
491,502,374,487,500
490,497,381,489,509
488,498,389,489,505
489,498,424,488,508
489,498,483,487,503
490,497,545,487,496
491,499,620,488,485
488,495,643,486,487
489,495,635,486,501
492,495,590,487,491
490,494,484,488,468
490,494,412,489,480
490,497,377,488,493
489,495,373,489,486
489,496,380,488,486
490,497,397,488,488
490,495,447,487,484
490,495,508,488,487
489,495,578,487,494
491,496,637,487,493
490,495,640,488,490
491,494,625,488,481
488,493,546,489,494
491,496,445,489,496
489,495,396,488,488
487,497,369,486,487
489,497,376,486,488
490,495,385,488,491
488,494,413,485,487
490,495,470,485,490
488,495,532,487,496
489,493,612,488,503
490,496,642,487,507
490,497,637,488,509
490,499,601,489,514
490,498,499,489,478
489,495,415,488,470
489,496,383,487,485
489,495,372,488,484
491,493,381,488,493
490,497,390,488,496
487,495,437,488,483
489,494,497,488,488
490,494,562,488,489
491,495,629,487,490
491,496,640,489,491
491,497,629,487,485
493,496,561,488,491
491,496,455,488,490
491,496,402,488,497
491,497,370,488,504
489,496,374,487,495
491,496,382,488,497
489,497,404,488,483
490,497,461,488,491
489,495,524,488,472
488,493,599,486,478
487,494,638,485,485
489,492,636,486,487
487,493,608,488,489
491,494,514,490,491
490,495,423,490,494
489,493,385,487,497
489,495,369,487,493
489,495,374,487,492
490,495,385,486,487
489,493,426,488,492
490,496,486,487,500
489,497,554,489,506
491,496,626,490,509
490,497,639,489,499
490,496,626,487,480
488,495,576,489,484
491,494,464,488,482
490,494,403,487,485
488,494,367,487,485
490,493,369,488,491
491,493,378,487,490
489,496,400,489,496
489,495,448,487,494
489,495,510,488,496
488,493,584,488,495
487,495,631,487,497
490,494,635,489,505
492,496,614,490,511
491,497,526,488,515
493,499,430,488,504
491,497,388,488,496
491,494,364,486,466
489,491,370,488,471
488,492,379,486,473
486,493,412,486,481
487,492,471,487,485
488,492,534,486,484
489,495,610,488,487
487,494,636,488,489
491,495,624,487,486
492,493,583,489,492
488,495,477,489,491
490,495,405,487,492
491,495,370,486,496
488,494,365,487,494
489,495,374,485,494
489,497,391,485,490
490,494,441,485,491
490,495,502,487,494
490,495,576,488,502
490,496,633,487,490
489,494,636,487,480
489,493,623,489,482
488,494,542,489,489
490,495,442,489,484
488,494,396,489,487
489,496,370,487,489
490,494,378,487,491
489,494,387,489,495
490,494,415,488,495
490,495,471,488,491
489,494,533,487,488
490,494,613,488,486
487,495,642,486,488
489,496,634,486,493
490,497,600,487,500
489,496,501,486,500
487,494,417,485,488
490,493,385,487,486
490,493,375,490,489
489,492,381,491,488
492,494,393,490,487
488,493,439,488,492
490,493,500,487,491
489,495,565,487,492
490,496,632,488,492
491,494,640,488,487
491,493,631,489,488
489,496,559,490,493
490,495,456,489,493
490,494,403,489,495
489,493,371,489,479
489,494,376,488,487
489,494,383,487,485
487,492,408,489,489
489,493,463,487,488
488,493,523,487,490
489,491,603,488,487
489,494,639,488,488
488,493,636,488,490
491,493,605,489,488
490,494,513,488,490
490,494,425,489,490
490,493,387,489,491
490,495,374,487,489
488,495,376,487,491
490,493,390,487,491
490,492,430,486,491
489,493,489,485,493
490,495,553,487,501
488,495,627,489,500
492,495,639,487,505
490,495,630,489,495
491,494,574,489,469
488,492,465,489,473
490,494,403,488,489
488,493,369,488,489
490,493,371,489,490
488,494,380,488,491
488,494,401,488,490
488,493,453,488,486
489,493,513,487,487
488,493,590,487,488
492,494,638,488,489
491,493,637,489,487
488,493,619,487,490
491,496,527,489,491
490,494,431,487,494
489,493,388,485,494
490,494,369,486,483
489,494,375,488,490
489,492,384,488,493
492,492,421,487,492
488,493,478,488,492
489,492,541,488,483
488,492,618,489,483
487,493,638,489,485
489,492,631,489,488
490,495,582,488,492
489,493,481,488,493
490,494,408,488,493
490,493,375,487,491
490,493,372,487,488
489,494,378,488,483
488,493,394,487,490
488,493,443,487,493
489,492,505,487,493
491,495,574,484,493
488,493,633,485,489
490,494,636,486,482
489,492,624,489,486
493,492,541,494,491
490,493,440,492,490
489,493,393,489,489
490,493,369,489,487
491,492,374,487,488
487,494,379,487,490
491,494,408,485,489
490,493,467,487,489
489,494,529,489,488
488,493,611,486,491
490,494,638,486,489
489,492,630,491,487
488,492,593,491,492
489,493,495,491,491
489,493,413,489,489
490,494,377,489,491
489,492,368,487,490
493,493,376,488,501
490,493,389,486,504
489,493,434,486,506
487,494,497,487,507
492,493,562,488,473
488,491,627,490,480
488,493,634,486,482
488,494,623,485,480
488,491,558,487,485
491,494,451,489,488
490,493,399,490,491
491,492,370,488,492
491,492,372,489,491
489,493,381,489,491
489,494,403,488,489
490,492,460,488,489
488,493,520,489,490
490,494,599,489,492
492,494,638,488,490
493,494,633,490,486
488,492,605,488,493
490,494,510,489,492
491,493,419,489,487
491,491,385,489,492
491,492,371,489,497
490,492,376,488,489
488,492,387,487,490
490,493,425,488,486
488,491,485,489,486
488,491,550,487,488
490,491,622,489,487
489,491,638,488,487
490,494,626,491,492
489,491,572,491,492
490,492,463,489,493
490,492,402,489,492
489,493,371,488,496
489,494,368,487,493
488,493,379,489,485
490,493,400,488,487
490,492,451,488,487
490,493,512,486,488
490,495,585,486,490
489,492,636,486,490
491,494,634,488,489
489,493,613,488,490
491,494,525,489,491
492,493,431,490,494
490,492,389,489,493
488,492,370,489,490
488,491,375,490,489
489,491,384,490,491
489,491,418,488,491
489,493,477,489,491
489,492,541,487,487
488,493,615,487,487
488,493,637,486,487
491,492,628,487,491
491,494,582,488,490
490,493,478,490,490
490,492,405,490,490
490,492,374,491,490
489,491,368,487,488
489,492,375,488,488
489,491,396,489,491
489,493,441,489,489
490,493,505,488,490
489,492,575,488,490
491,492,632,487,488
492,492,635,487,489
490,493,622,490,490
489,494,537,489,490
489,492,438,491,488
492,490,390,491,491
490,492,366,490,491
489,492,373,488,491
489,494,381,486,490
488,492,411,485,490
489,492,469,489,490
489,493,530,490,487
488,491,610,490,492
489,494,638,489,489
490,492,628,490,490
491,492,592,490,490
490,493,492,490,494
491,492,411,487,493
491,493,377,489,490
489,492,369,488,488
489,493,373,488,487
490,492,390,490,489
488,491,435,490,488
489,491,494,490,488
490,492,562,489,487
489,493,626,490,493
490,491,635,488,494
492,493,624,488,493
494,493,553,490,492
491,493,448,489,487
489,492,396,489,489
488,493,364,488,490
489,492,371,489,487
489,492,379,489,491
487,492,403,488,488
490,492,459,487,488
490,493,520,488,490
489,491,602,491,491
492,494,639,490,491
491,493,634,488,491
490,491,604,489,491
491,494,507,490,491
490,492,418,490,491
491,492,383,490,491
489,491,368,490,490
490,493,373,489,488
490,493,387,490,489
489,493,427,488,488
490,491,486,489,490
491,492,553,488,492
491,492,623,489,492
490,491,637,489,492
491,494,625,488,491
491,491,569,487,490
491,492,461,487,485
491,493,402,488,486
490,493,368,488,488
489,493,369,488,489
490,490,380,491,489
492,491,401,491,489
490,492,453,490,489
490,493,514,489,490
488,491,589,490,490
489,490,635,489,490
491,493,632,490,489
491,491,615,491,489
492,494,522,490,491
491,492,430,490,490
491,492,389,489,488
492,491,369,489,492
489,491,372,489,490
491,491,384,491,492
489,491,419,490,489
489,491,478,487,490
490,492,541,488,492
490,494,615,488,491
490,491,638,486,490
492,492,628,484,493
492,493,581,487,493
491,492,477,491,492
491,492,405,492,487
491,491,374,492,489
490,492,368,490,487
488,492,375,491,490
490,492,393,490,489
490,492,442,490,490
490,492,504,489,489
491,492,576,490,488
491,491,632,490,493
490,491,635,490,492
489,491,621,491,491
490,493,535,490,490
492,492,438,490,491
491,491,391,490,489
490,492,365,490,489
491,493,371,488,490
491,492,381,490,491
489,491,411,488,490
491,492,468,489,488
491,491,530,490,491
491,490,610,491,491
490,491,637,490,490
489,492,628,490,492
491,492,590,490,490
490,494,492,490,492
491,493,410,489,491
492,493,377,488,490
492,493,370,489,491
491,492,374,489,489
489,491,391,490,489
491,492,434,490,491
490,491,496,489,490
491,492,561,488,487
491,492,626,489,492
489,491,634,487,490
491,492,624,490,491
492,492,553,491,491
493,492,448,492,491
493,492,398,491,490
492,493,366,487,493
489,491,370,487,493
492,490,378,488,490
489,492,402,487,491
490,493,460,489,491
490,492,521,489,488
491,491,602,491,488
492,491,638,490,488
490,492,630,492,491
492,490,603,492,487
492,492,507,490,494
489,492,418,489,493
490,491,381,489,491
490,491,370,490,492
491,492,374,488,491
492,491,385,486,490
493,491,428,487,493
489,491,486,487,493
491,491,553,487,490
492,493,624,490,490
490,492,635,491,491
489,493,624,491,490
489,493,571,493,493
491,492,460,490,491
491,491,402,489,493
492,492,368,489,493
491,491,370,490,493
491,491,379,490,492
490,489,401,489,488
491,491,451,490,489
490,491,513,489,492
489,492,586,489,491
490,492,633,488,492
492,492,632,488,491
490,491,613,491,493
494,492,522,490,492
491,493,427,491,493
491,490,388,490,493
491,490,370,489,492
490,491,374,489,493
492,491,381,489,488
492,491,421,490,490
490,492,477,490,491
490,492,540,489,491
493,493,616,489,491
491,492,637,491,493
491,491,626,488,491
491,491,581,492,492
490,492,475,491,493
491,491,405,490,491
491,493,371,491,491
493,490,370,490,491
492,491,375,489,490
490,490,395,488,492
491,492,443,490,492
491,491,504,489,492
491,491,574,489,490
490,490,631,491,492
492,492,636,489,491
490,492,619,492,489
492,492,535,490,493
491,492,438,490,494
490,491,392,490,492
492,493,369,492,489
491,491,374,491,492
490,490,381,490,493
491,490,411,489,492
491,492,467,489,493
489,491,529,489,493
491,491,610,490,491
490,492,636,489,492
491,492,628,488,494
493,494,587,489,492
494,492,490,491,492
492,491,410,489,494
491,493,375,489,494
491,490,369,490,493
490,491,375,491,492
490,491,388,490,494
492,491,436,490,492
489,491,495,489,493
490,494,563,489,490
492,493,627,489,491
493,491,635,489,493
493,492,622,489,493
490,491,552,491,494
491,492,446,490,491
491,490,396,492,494
488,490,368,493,492
490,491,368,490,494
491,490,378,490,491
490,490,406,491,493
491,492,460,488,492
490,491,520,488,493
493,490,601,488,490
494,491,636,489,492
490,493,630,491,492
487,491,599,489,490
493,492,503,491,494
491,491,418,491,496
491,492,380,489,494
491,490,369,491,491
491,491,374,489,490
491,492,383,489,493
491,490,428,490,493
493,490,487,490,493
491,490,551,488,492
493,493,622,491,492
490,491,636,491,494
492,493,624,489,491
491,494,566,489,493
491,492,459,490,493
491,491,401,490,493
492,490,369,490,491
491,492,370,491,492
490,491,379,490,491
490,490,400,491,492
489,491,451,490,492
490,492,513,489,493
489,494,587,488,493
489,492,634,488,492
493,490,633,489,491
494,489,612,490,495
494,490,520,489,494
491,492,427,491,494
490,492,385,490,493
490,490,368,491,491
490,492,371,490,492
490,493,382,489,491
491,490,420,490,490
492,492,478,489,492
489,491,543,488,494
491,490,618,488,494
490,490,636,490,494
489,491,626,488,493
492,492,579,492,493
492,491,473,490,493
491,491,404,490,492
491,492,370,489,492
491,492,369,489,493
492,491,377,490,492
491,492,397,488,494
491,492,442,488,489
494,491,506,489,493
489,492,577,491,494
489,492,631,492,491
493,491,635,492,492
491,493,618,491,496
491,490,533,490,494
492,492,435,491,491
493,492,391,491,493
493,491,365,491,493
491,491,373,491,492
493,492,380,489,493
489,492,411,490,493
489,492,469,489,493
491,491,530,489,494
491,491,611,489,492
490,494,638,491,491
489,491,630,490,493
492,491,589,490,494
492,491,488,491,494
491,491,410,490,493
492,493,374,489,493
490,491,368,489,494
492,491,373,489,492
491,492,387,489,492
491,494,435,487,491
489,493,498,489,492
491,492,567,490,491
490,491,628,491,494
492,491,636,493,495
491,491,625,493,495
490,491,551,492,493
494,492,446,490,493
491,491,396,490,494
491,493,364,489,492
492,493,370,488,493
492,492,380,488,492
493,489,404,491,493
491,491,462,489,492
490,492,521,490,492
491,490,603,490,494
490,492,636,491,492
490,491,630,491,492
490,491,600,490,496
492,494,503,491,494
492,491,417,491,494
494,492,381,489,490
494,492,369,490,494
491,490,375,490,493
490,492,383,491,495
489,491,427,489,493
491,490,488,489,493
491,492,552,489,491
491,492,622,489,492
491,490,636,490,494
493,492,627,491,493
491,491,566,492,495
493,492,458,491,494
493,492,401,491,494
491,491,369,489,492
494,492,368,490,489
492,492,380,490,495
489,492,397,490,492
491,491,452,489,492
491,492,514,489,493
492,493,591,490,493
490,492,634,490,494
492,491,632,489,493
491,491,613,492,493
491,492,520,491,494
490,492,426,492,494
491,490,387,490,495
491,492,367,489,495
490,490,374,489,494
492,492,383,488,494
493,492,420,489,493
490,491,479,490,493
491,491,543,490,493
490,493,616,489,494
490,491,636,491,493
491,492,625,490,492
490,493,578,491,493
491,491,474,490,495
492,493,404,489,493
491,492,372,487,494
492,491,369,491,495
491,490,378,491,494
491,490,397,491,494
490,492,442,489,493
491,491,505,490,493
492,491,579,490,493
490,493,631,489,493
493,493,634,489,494
492,493,620,492,493
492,491,533,491,493
495,491,434,491,495
490,491,390,491,495
491,490,369,491,491
491,492,370,491,493
489,491,382,490,493
489,493,409,490,493
491,492,469,490,492
491,492,531,489,493
492,491,610,488,494
492,490,636,489,494
490,490,629,491,496
493,494,586,489,495
491,492,487,491,493
492,491,409,490,493
492,492,374,490,492
490,492,368,491,493
490,491,374,489,494
492,492,390,491,492
492,492,437,489,494
491,492,498,488,494
490,491,565,488,493
490,493,627,488,493
490,492,634,490,494
492,491,622,490,493
491,494,547,489,494
492,493,446,489,494
491,494,396,490,493
489,492,368,489,494
491,492,370,489,494
491,490,381,492,495
490,490,406,492,493
490,491,461,491,493
491,493,522,492,492
491,492,604,490,495
492,493,636,490,494
492,492,630,490,494
493,493,597,490,493
494,492,503,490,495
491,492,415,491,495
491,491,381,489,491
492,494,368,492,492
489,492,373,491,494
491,492,383,490,492
491,492,431,488,494
490,492,489,488,493
490,491,555,490,493
492,491,624,489,495
491,491,637,491,495
491,491,626,490,492
492,494,564,492,495
491,491,456,491,494
492,491,400,490,493
491,492,366,491,493
491,493,368,488,493
493,491,380,491,493
491,492,400,490,493
490,492,453,490,493
490,492,516,491,495
491,491,592,491,495
491,492,635,491,493
490,493,634,491,494
492,493,608,491,493
493,492,520,491,493
491,492,424,491,492
492,492,386,489,495
493,493,368,489,493
490,492,373,491,495
491,490,382,489,492
492,491,422,491,493
490,491,480,490,493
490,492,542,490,492
490,492,619,489,493
491,492,636,489,493
490,491,627,489,494
492,493,578,489,496
492,492,472,489,496
491,493,405,490,493
492,493,374,491,495
493,492,367,489,494
490,491,376,491,493
491,491,395,491,491
491,492,444,490,489
493,491,507,488,493
488,490,579,487,492
492,491,631,491,492
491,491,636,491,496
490,492,621,492,498
491,492,534,491,495
491,494,435,490,495
491,493,390,491,496
494,491,369,491,496
492,492,371,490,496
492,493,381,490,496
492,494,412,491,495
491,492,471,490,493
492,492,533,490,492
492,491,614,491,492
490,492,638,493,490
489,492,628,491,492
492,493,588,488,493
492,492,486,491,492
493,491,408,490,493
492,494,375,488,491
492,492,369,486,494
491,492,376,488,494
492,492,389,490,492
491,491,439,491,492
490,492,498,491,493
490,492,568,492,493
488,490,630,491,495
491,492,634,491,497
492,491,622,489,494
491,491,549,491,494
491,494,445,490,493
492,491,395,490,494
493,491,369,489,495
492,493,369,488,495
491,492,380,490,495
493,493,405,490,495
491,492,463,488,497
491,493,523,490,498
491,493,606,492,500
492,495,638,491,497
490,492,629,492,494
492,492,599,490,490
492,491,502,490,491
491,492,416,490,493
492,491,379,488,490
493,494,368,491,492
489,491,375,491,494
490,493,385,490,491
490,493,430,490,493
490,493,489,490,493
491,491,555,491,493
492,491,627,490,493
491,492,637,491,492
492,491,626,491,494
489,491,565,493,496
490,493,457,491,493
492,493,400,490,492
490,490,369,490,491
494,492,369,490,491
494,491,380,490,496
490,491,401,490,493
490,493,453,489,493
490,492,514,490,493
491,491,593,491,493
491,493,635,490,493
492,493,631,490,493
492,493,609,490,493
491,492,519,491,493
491,493,425,491,493
490,492,386,490,493
492,492,370,490,494
491,491,376,491,494
490,491,383,487,493
493,491,422,490,493
491,492,481,490,493
491,492,544,489,491
492,494,618,490,496
492,493,639,490,494
490,492,626,490,494
493,491,576,491,492
494,492,471,490,495
491,493,406,491,496
490,491,372,491,495
490,492,369,489,494
491,493,376,489,493
491,490,398,490,493
492,493,445,490,492
490,492,507,489,494
491,492,581,489,495
492,491,631,489,493
492,492,636,492,492
492,493,618,490,495
491,492,532,492,495
491,492,435,491,494
490,492,390,491,496
491,491,371,489,493
492,493,373,493,489
492,491,383,491,495
493,491,415,489,496
492,492,472,489,494
491,493,534,491,493
490,493,613,494,493
493,492,639,491,493
492,493,628,489,492
491,495,586,489,493
492,493,487,492,495
491,491,409,490,495
492,492,374,491,493
492,491,370,490,495
490,491,376,491,494
491,491,392,492,494
490,492,437,490,493
492,492,497,490,493
491,492,570,490,495
490,493,628,489,493
492,493,635,490,492
494,492,625,490,494
492,493,544,492,492
493,492,444,490,492
491,492,393,492,494
492,491,368,492,495
491,492,369,490,494
491,493,378,491,496
491,490,403,488,494
492,491,465,491,493
492,492,523,490,494
491,491,604,489,494
492,492,637,491,494
492,493,629,489,494
491,491,596,490,493
493,493,499,491,493
491,492,413,490,494
492,493,378,489,492
491,493,369,489,493
492,491,375,491,494
493,492,388,488,492
489,492,429,490,494
491,491,489,491,495
492,492,557,492,495
490,491,625,489,495
492,492,634,490,493
491,491,627,491,495
491,494,559,490,494
492,492,454,491,494
492,493,399,490,493
490,492,368,492,495
492,491,370,490,492
493,493,380,492,494
490,491,402,493,495
490,491,454,491,492
492,492,515,489,493
491,493,591,489,492
490,491,637,491,492
492,492,632,491,494
492,492,608,489,495
495,492,516,490,495
492,492,425,490,494
491,492,385,491,495
490,494,368,489,493
490,492,372,491,492
491,492,382,490,492
491,493,421,489,492
490,491,482,490,493
491,493,546,491,492
491,493,621,490,495
493,491,639,491,495
490,491,627,491,493
490,492,576,490,494
492,491,470,492,494
493,492,404,491,492
491,492,368,491,493
490,493,367,488,494
492,493,378,489,494
490,490,396,489,495
493,491,445,490,492
490,492,510,490,492
489,490,582,489,492
490,491,632,489,493
492,493,633,490,492
492,492,619,490,494
492,493,529,492,493
494,492,433,492,495
491,492,389,490,495
493,493,368,489,494
493,492,371,490,494
489,492,383,490,497
491,495,413,489,493
490,492,473,491,493
491,491,534,491,493
491,493,611,489,495
491,491,639,487,493
494,492,629,490,494
490,493,587,490,496
492,492,484,491,495
491,492,409,491,494
491,493,374,490,493
490,491,369,492,494
492,492,377,491,492
491,493,390,491,493
491,493,438,488,493
491,492,500,489,493
492,494,570,492,493
489,493,631,491,495
492,493,635,489,495
490,490,624,491,496
490,491,546,492,493
493,492,444,490,495
492,492,394,491,494
490,492,369,489,496
492,493,371,490,495
493,492,380,491,494
493,492,407,489,494
492,492,463,491,493
490,492,525,491,492
491,493,603,491,493
490,492,637,491,492
490,492,629,491,493
491,492,594,490,496
492,492,498,491,493
492,492,415,492,494
493,493,380,490,494
492,493,369,489,495
492,491,375,490,495
492,491,387,491,492
491,494,430,491,494
491,493,491,490,494
493,493,557,492,491
492,492,624,490,492
492,494,635,490,495
491,492,626,491,495
493,493,562,490,494
491,492,454,490,493
493,492,400,491,493
491,491,370,491,496
491,491,370,489,495
492,493,378,491,492
489,492,402,491,494
491,493,456,491,491
491,492,516,490,492
491,493,593,489,492
491,492,636,490,495
491,492,634,490,494
491,494,609,491,496
492,493,516,492,494
492,492,424,492,494
492,492,385,490,495
491,493,370,490,494
493,493,372,488,494
492,492,385,488,493
490,494,424,490,493
491,492,483,491,493
492,491,546,489,492
490,493,622,491,493
491,493,636,489,494
490,492,627,492,493
490,492,575,493,495
491,492,468,492,495
492,492,405,491,494
492,494,370,493,495
490,492,369,490,494
492,492,380,491,495
492,492,399,491,495
491,491,446,490,493
492,493,510,491,494
493,493,582,490,493
490,493,632,490,493
492,494,633,490,493
492,494,616,491,491
493,494,529,492,495
493,493,432,491,492
494,492,389,491,494
493,492,371,491,494
490,492,375,492,496
488,492,382,490,496
492,494,415,489,493
490,492,474,490,494
491,492,535,487,492
491,494,612,489,492
492,493,639,491,495
493,493,628,492,493
490,493,587,491,496
491,493,482,491,493
492,492,410,491,494
491,492,376,492,494
489,492,369,491,495
492,492,377,490,492
491,494,395,492,495
490,493,439,490,493
491,492,501,489,493
491,493,571,490,495
492,493,631,491,496
493,494,635,489,495
489,492,623,489,494
492,494,544,492,494
491,492,443,492,491
490,492,393,491,491
491,493,370,490,495
491,493,371,490,494
491,491,380,491,495
493,493,409,489,493
492,492,465,489,492
492,491,526,491,493
491,493,605,492,494
489,492,638,491,495
491,493,628,490,492
491,494,593,491,492
492,494,499,491,494
491,492,415,491,494
492,493,381,490,493
490,492,368,491,495
491,491,376,491,495
491,492,388,492,494
490,491,432,491,494
490,491,492,490,493
491,493,558,490,492
491,490,628,491,493
492,493,636,489,494
493,493,626,490,494
493,493,561,491,494
493,492,453,492,495
493,492,397,489,494
491,492,368,492,494
491,493,369,492,492
492,493,379,490,492
490,491,404,490,495
491,494,456,489,493
491,492,518,491,494
493,493,596,490,494
493,492,637,490,494
491,492,633,489,492
492,494,607,492,496
491,493,512,491,494
491,491,419,492,494
492,492,384,490,493
491,493,368,490,488
493,493,374,490,494
489,492,384,489,495
492,492,424,491,493
491,491,484,490,494
491,492,549,491,494
490,491,623,491,494
489,492,637,490,495
491,494,625,491,494
493,492,577,490,494
492,493,466,491,494
492,493,404,490,493
492,493,371,492,493
491,493,370,490,494
492,494,377,488,491
492,490,399,491,494
491,492,449,490,494
490,494,511,493,494
492,493,584,492,493
491,494,633,492,494
491,492,634,490,494
492,492,616,491,493
494,493,529,491,494
493,493,431,490,493
492,492,388,490,493
492,491,371,490,493
492,494,372,492,493
490,492,382,491,493
490,493,415,490,493
490,492,474,490,493
491,492,536,489,492
492,492,616,491,493
491,492,639,491,494
492,492,630,493,496
493,492,587,492,497
492,493,481,490,495
492,492,408,490,492
493,492,372,492,492
490,492,367,489,492
491,493,375,489,492
492,494,395,493,493
490,493,439,490,492
490,493,503,491,492
491,491,573,491,495
493,490,631,492,492
494,491,635,493,495
489,493,622,491,496
493,494,541,493,494
492,493,443,492,494
491,493,392,491,494
492,494,367,489,494
493,493,373,490,493
491,493,379,492,494
493,490,410,490,492
489,493,467,491,494
490,492,527,492,494
490,493,607,492,493
491,494,639,492,494
491,493,628,490,492
491,492,597,493,493
494,494,496,492,494
492,492,413,490,495
493,493,381,490,492
490,493,367,492,495
490,491,374,489,493
492,493,388,492,494
489,492,432,491,492
490,492,494,490,493
491,493,558,490,492
490,492,628,492,493
492,493,636,491,491
491,493,627,491,495
492,492,560,491,496
492,493,453,491,492
493,492,398,491,494
491,492,368,493,495
492,492,372,489,492
490,493,377,490,493
490,493,400,489,493
491,493,456,490,493
490,492,519,491,494
492,492,597,491,492
491,492,639,491,494
490,491,633,491,494
490,492,608,491,495
490,493,513,490,494
491,492,421,492,495
492,492,386,491,493
491,494,369,489,493
492,493,374,490,494
492,492,385,490,494
493,493,425,491,492
490,492,485,490,493
491,494,548,489,494
490,491,622,492,492
491,492,636,492,493
491,493,626,489,495
492,491,577,490,494
492,493,467,492,494
491,493,403,490,492
493,492,370,490,494
493,491,370,491,492
492,494,378,490,494
488,491,400,492,494
492,493,449,490,494
490,492,511,490,492
490,493,583,490,492
492,493,633,491,494
490,492,635,489,494
491,494,615,492,494
493,493,528,491,493
494,492,431,492,494
492,491,390,491,495
490,492,371,491,493
492,493,375,491,492
491,493,383,491,495
491,494,415,490,493
490,492,474,490,494
491,493,538,490,495
493,493,614,492,493
491,492,639,491,494
492,494,628,491,493
490,492,585,493,494
490,492,481,491,494
492,492,408,490,494
492,492,372,491,492
491,492,369,491,494
492,493,377,490,493
491,493,393,489,494
491,492,441,490,494
491,493,504,490,492
491,492,573,488,493
490,494,632,488,492
490,493,635,490,492
491,494,621,492,492
491,495,542,491,494
493,493,443,491,494
491,493,393,491,494
490,492,369,490,494
492,492,374,492,496
491,491,381,492,497
491,491,410,489,494
491,493,467,491,493
491,493,528,491,493
492,494,607,491,491
492,494,637,490,493
492,493,631,490,494
490,492,593,493,494
492,493,496,492,494
492,492,414,490,494
492,492,381,493,495
491,491,370,493,494
490,492,375,490,494
492,493,386,492,492
491,491,435,491,493
491,493,494,490,492
492,493,561,489,490
493,493,627,490,495
490,492,637,489,491
493,494,626,492,495
491,494,556,490,493
492,493,453,491,495
489,493,398,492,495
490,493,367,490,494
491,491,372,490,493
491,493,379,491,494
490,491,403,489,492
492,493,459,490,493
490,493,518,491,494
489,492,596,489,492
490,493,637,491,493
492,492,634,490,493
492,492,603,491,493
491,494,512,491,494
491,492,422,491,493
491,492,385,490,493
493,494,369,492,493
491,492,376,491,496
492,493,387,492,495
490,491,427,491,494
491,491,484,491,495
493,493,550,491,492
491,493,621,492,495
491,492,636,490,494
492,494,627,491,493
493,493,573,491,495
492,494,465,491,495
491,494,404,491,494
491,494,367,490,496
491,492,370,491,493
490,493,379,492,493
490,492,398,492,494
493,492,451,491,491
492,493,514,491,494
490,493,585,488,493
491,495,636,486,494
491,493,636,490,494
492,494,614,492,493
492,492,528,494,495
491,493,430,492,495
491,492,388,489,493
491,492,369,490,491
490,493,372,490,493
492,493,384,492,496
491,495,417,489,494
490,492,476,491,493
493,494,540,491,494
492,492,617,491,495
491,491,638,492,494
493,494,628,490,492
490,492,585,492,495
492,493,478,492,494
492,493,407,490,493
492,494,374,490,493
491,492,369,492,493
493,493,379,490,492
491,493,392,491,496
491,491,442,490,494
491,493,504,490,493
490,492,573,489,493
492,493,631,490,492
492,492,637,491,495
492,493,620,489,494
492,495,540,489,494
492,494,441,491,493
493,492,393,491,493
492,493,367,489,492
492,492,371,490,494
490,492,380,492,492
492,491,410,491,493
490,493,467,491,493
489,491,529,491,494
489,494,607,489,494
490,492,638,490,495
493,492,632,490,495
492,493,594,490,495
492,492,495,491,494
491,492,413,491,493
492,494,378,491,493
490,491,367,491,494
490,493,374,490,493
491,493,387,489,492
490,491,435,491,493
491,493,496,491,494
491,494,563,491,494
492,492,629,491,495
492,491,637,491,493
491,492,625,492,495
490,494,556,490,494
492,492,451,490,494
492,492,398,490,492
491,494,366,489,493
490,494,372,489,494
492,493,381,491,493
490,492,405,490,492
492,493,459,491,493
490,492,520,491,494
490,491,600,491,493
490,492,636,491,490
493,490,633,491,493
492,494,602,491,495
490,492,509,491,495
491,492,421,490,495
492,492,385,490,494
492,493,368,491,492
491,491,376,492,494
493,493,385,489,494
490,492,426,490,493
491,492,486,490,493
493,494,550,490,492
491,495,621,492,495
490,492,639,491,495
493,493,626,492,493
492,492,573,491,496
493,493,464,490,493
495,493,404,490,492
493,494,368,489,496
489,493,369,491,495
492,492,378,490,493
491,494,397,489,493
491,494,450,490,493
491,492,513,492,493
490,492,587,489,494
490,492,634,489,494
490,491,635,492,494
490,491,617,492,495
491,493,526,492,494
492,493,430,492,494
491,493,389,492,495
492,493,368,490,493
492,493,373,489,494
492,493,384,489,494
493,493,419,490,494
490,492,476,489,494
490,493,540,489,489
491,494,617,492,493
489,491,636,491,492
493,493,627,491,492
491,495,586,493,497
491,494,478,491,495
492,492,409,492,494
492,492,374,490,494
493,491,370,491,495
491,491,378,491,493
492,493,392,492,494
490,491,441,490,493
491,493,503,492,493
491,494,572,491,493
491,494,631,490,493
492,493,636,491,492
492,492,622,489,491
491,493,538,491,495
492,492,439,491,495
491,492,392,492,495
490,491,370,492,493
489,493,373,491,494
491,493,378,490,491
491,491,412,490,492
491,493,466,489,493
492,493,528,489,494
492,492,608,489,492
491,493,636,492,492
492,492,629,491,495
491,492,593,494,495
490,493,493,492,494
491,492,411,491,493
491,492,380,491,495
490,494,367,490,494
490,492,376,490,493
492,492,389,490,494
492,492,434,490,493
491,493,495,490,492
492,494,563,492,494
490,494,626,490,495
491,493,635,490,491
490,494,622,491,494
489,495,553,491,494
493,493,451,491,494
491,491,398,491,495
492,492,367,492,494
491,492,373,490,494
490,491,380,490,494
491,490,405,491,492
492,491,459,488,493
489,493,518,490,493
490,492,602,491,490
492,494,637,492,493
490,492,632,490,495
492,493,604,492,493
492,493,509,492,495
492,492,419,490,492
491,493,385,491,495
489,491,369,492,494
490,493,373,491,494
491,493,387,490,493
490,494,426,491,496
490,492,488,490,492
490,494,552,490,492
491,492,622,490,493
493,491,637,491,494
492,494,626,489,492
489,492,572,493,495
493,494,463,491,494
491,493,402,491,494
491,494,366,490,494
492,494,370,492,494
491,492,380,490,494
492,492,398,490,492
492,492,453,489,494
491,493,514,491,495
490,491,588,491,494
493,494,635,490,493
490,493,631,491,495
491,491,612,490,492
492,494,523,491,494
491,493,428,491,493
492,493,388,491,493
491,493,370,491,494
491,494,372,490,495
491,491,385,491,494
489,491,420,491,493
490,492,478,490,494
491,492,539,490,494
491,491,615,490,492
491,491,639,491,493
492,494,630,491,493
492,493,583,492,494
492,493,478,490,493
492,493,406,489,494
491,491,374,489,492
494,492,368,491,492
490,493,376,491,494
491,493,393,489,493
490,494,444,490,493
493,493,507,491,492
491,492,575,492,496
492,493,634,490,495
491,492,637,492,495
490,492,621,493,493
494,495,539,492,493
492,492,437,490,494
492,493,391,491,493
490,494,368,490,493
490,493,372,490,493
491,492,382,490,493
490,491,411,490,493
491,492,469,490,493
491,492,531,491,494
490,491,612,492,493
489,492,638,492,492
491,493,632,490,493
494,493,590,491,493
491,492,492,490,493
492,493,411,490,493
493,494,378,489,492
494,494,369,489,493
490,494,374,491,493
491,492,387,490,493
491,492,436,490,495
491,493,498,490,494
490,492,562,491,492
490,492,629,491,494
492,494,636,490,493
490,492,624,490,494
494,494,555,492,495
493,494,450,491,494
492,492,398,491,495
492,492,366,490,493
492,493,373,492,493
492,492,380,490,493
490,493,403,490,492
492,493,461,491,493
491,494,520,492,495
491,492,602,489,493
493,493,638,490,493
491,492,633,491,494
491,491,605,491,495
492,492,509,491,495
492,492,416,489,493
491,492,383,491,494
493,494,370,489,493
491,494,373,487,493
491,494,386,488,493
492,494,428,491,494
491,493,489,490,492
492,493,553,491,492
492,491,626,492,495
491,492,638,492,492
494,492,627,492,493
489,492,570,493,496
492,494,463,490,491
490,493,403,491,493
491,494,368,489,491
494,493,371,490,495
492,493,381,491,497
491,493,397,490,493
492,492,454,491,493
491,493,513,491,493
491,493,589,492,492
491,494,635,491,492
491,494,632,492,495
491,492,613,489,492
493,493,525,492,494
492,493,427,491,493
493,492,389,491,495
494,493,371,491,494
491,494,372,490,494
491,492,384,490,493
492,493,419,491,493
491,492,478,490,493
491,493,541,490,491
490,494,616,490,492
491,491,638,491,493
493,493,630,490,492
490,492,581,490,495
493,492,477,490,494
492,492,408,490,494
492,492,375,489,493
492,493,369,491,491
490,493,379,490,494
491,493,392,490,491
491,494,442,490,492
491,493,505,490,492
491,491,576,492,492
493,494,634,490,492
490,494,637,491,493
491,491,621,491,496
490,491,538,492,494
491,492,436,490,493
492,493,391,491,493
493,493,371,490,492
491,494,370,489,492
493,494,381,488,492
492,496,411,486,492
490,493,468,488,493
491,493,532,488,490
495,495,610,488,493
488,492,639,492,494
490,492,630,491,491
490,494,591,492,491
491,492,493,490,493
491,493,412,492,493
491,493,378,492,491
491,494,369,491,493
492,492,377,493,494
491,492,388,490,494
491,491,437,491,496
491,493,499,491,494
490,492,563,491,493
490,493,626,490,491
493,494,636,490,494
490,492,625,490,494
493,494,553,492,494
491,493,449,491,494
492,492,397,491,495
492,491,370,491,494
491,492,372,492,493
492,493,380,490,493
490,493,403,490,494
491,491,460,491,493
491,494,519,491,494
493,495,602,490,493
493,494,637,492,493
492,492,633,492,495
493,495,600,490,494
491,493,507,492,495
492,492,418,491,493
493,493,383,491,494
493,492,371,490,493
490,494,377,490,494
490,494,386,489,492
493,492,428,490,493
493,493,487,490,494
492,494,553,490,492
491,491,625,491,494
493,493,638,491,492
490,494,625,491,492
491,494,568,491,493
492,494,462,490,492
493,493,404,491,494
490,493,368,489,493
490,493,370,491,494
491,491,381,491,492
493,491,402,492,495
490,493,453,490,493
490,492,512,491,492
490,493,590,490,494
492,494,635,490,493
491,494,632,490,495
492,493,613,490,494
494,494,522,491,493
492,493,427,491,493
492,494,388,492,495
491,492,372,492,493
491,492,373,492,493
491,494,383,490,494
492,492,419,489,493
491,492,479,490,494
492,494,545,490,493
492,493,618,490,492
493,491,639,491,495
492,492,629,491,492
493,495,579,492,492
493,493,475,490,495
489,494,407,491,494
490,494,371,490,493
490,493,368,488,493
492,492,380,491,492
492,493,395,488,492
491,493,444,490,494
491,493,508,490,493
490,491,577,491,493
490,491,633,490,493
491,493,634,491,492
490,491,621,489,495
491,495,535,490,493
493,494,438,493,493
490,493,391,490,493
491,493,369,491,493
491,492,373,489,492
491,493,382,490,493
490,491,413,492,492
490,493,469,491,493
491,493,531,491,491
490,493,612,491,494
492,493,637,490,494
491,493,630,491,496
492,493,590,491,494
493,492,491,491,496
492,493,412,491,495
491,494,379,492,496
490,494,369,489,495
490,494,375,490,492
490,493,388,490,492
490,494,435,490,493
491,493,498,490,493
490,493,566,491,492
489,493,630,490,493
491,492,638,491,494
491,492,625,492,495
491,491,551,491,494
493,493,449,491,494
492,493,396,489,492
491,494,367,488,493
491,494,372,489,493
492,493,380,490,493
493,493,405,490,492
490,493,462,490,493
490,492,520,490,491
490,492,606,493,492
490,493,637,492,492
490,493,630,489,492
492,492,604,491,492
491,494,505,492,496
492,492,417,490,495
492,493,384,490,494
493,493,370,490,494
491,491,373,490,491
491,492,388,492,494
491,494,428,490,493
490,492,489,491,494
491,494,553,492,492
490,494,622,491,492
493,492,639,489,494
492,494,626,492,494
490,494,569,490,494
493,494,462,491,492
492,492,403,491,495
491,492,370,491,496
491,495,371,489,492
490,492,379,491,494
493,491,398,490,491
491,493,453,490,493
490,493,513,490,493
491,493,591,491,493
490,493,638,490,494
490,493,631,490,495
491,492,616,492,495
491,493,523,492,493
492,492,428,491,493
491,493,388,490,492
490,494,371,491,495
490,494,373,489,493
493,493,385,489,492
493,494,421,490,493
490,493,479,490,494
493,494,545,491,491
493,495,616,492,494
490,493,638,491,492
491,493,627,491,493
489,493,579,491,493
490,493,476,490,493
491,494,406,490,493
490,492,372,492,492
492,493,370,489,494
492,492,379,490,494
491,491,397,490,491
492,494,443,491,492
490,493,505,490,494
491,493,576,491,492
489,493,632,489,492
491,493,634,488,493
492,492,620,492,497
492,495,537,492,495
491,493,437,492,494
492,492,392,491,493
491,492,371,490,493
490,493,372,489,494
493,492,381,490,492
490,492,414,490,494
491,493,468,489,493
491,494,531,488,492
492,494,610,489,492
491,492,638,491,492
490,494,628,491,495
491,493,587,491,493
492,492,489,493,494
492,493,412,492,493
491,493,377,492,493
491,492,370,491,496
492,495,375,490,495
489,492,391,489,493
492,494,437,489,492
489,494,498,490,491
492,493,567,491,492
492,494,632,492,494
491,494,637,490,493
491,493,622,491,491
489,495,550,491,494
491,494,449,492,495
491,493,397,492,494
492,495,368,493,493
490,493,372,491,494
492,492,381,491,494
492,493,408,491,494
490,492,461,491,493
492,493,519,490,493
489,493,602,492,494
492,492,638,490,493
491,494,630,489,493
493,495,599,490,493
492,494,506,492,494
492,492,417,491,492
494,493,382,490,493
491,492,370,491,494
490,493,376,492,493
490,493,386,492,493
493,492,430,489,493
491,493,489,490,494
491,493,554,491,493
492,495,624,491,494
493,493,638,492,491
495,491,625,491,492
490,492,569,490,494
493,494,459,490,493
492,492,401,491,494
489,493,368,492,493
490,494,370,489,493
491,494,379,490,495
490,492,400,489,493
493,494,455,490,494
490,493,515,489,494
491,493,592,489,494
492,493,638,492,493
492,494,633,490,493
491,493,613,490,494
494,493,519,491,493
491,493,424,491,493
491,494,387,490,494
491,495,372,492,493
491,493,374,490,494
491,494,383,490,495
491,492,422,491,494
491,492,480,490,493
492,493,544,492,494
491,493,618,492,493
490,493,640,491,493
491,494,627,491,492
491,495,578,489,493
492,495,474,489,493
494,494,407,490,492
491,493,371,491,497
491,493,371,489,494
492,494,379,493,494
491,491,396,493,494
491,493,445,492,495
493,493,508,491,494
491,494,577,489,491
491,492,635,492,493
491,493,636,490,494
492,492,621,491,495
494,494,537,491,495
492,493,435,492,495
494,492,390,490,493
492,492,371,491,496
490,492,373,492,494
491,492,382,491,494
493,494,411,491,491
492,492,470,490,489
492,492,533,491,495
489,492,613,490,496
490,491,639,490,494
491,492,631,491,494
492,493,587,491,494
492,492,488,491,495
491,492,411,491,493
490,492,377,493,494
490,492,368,491,492
490,493,376,491,494
492,491,392,490,492
490,494,438,490,492
491,494,499,492,492
490,493,566,488,493
491,494,628,489,493
492,494,635,491,491
491,492,625,489,493
490,493,548,490,493
491,492,447,491,493
492,491,395,492,493
491,491,369,488,491
494,491,370,490,492
490,492,380,491,495
490,494,406,490,491
492,492,462,490,493
489,493,522,489,494
490,491,604,489,492
490,494,636,491,493
490,492,631,490,492
493,491,601,493,494
490,493,503,492,494
491,493,416,490,493
490,494,382,489,492
489,491,369,492,493
492,493,375,491,492
490,493,386,492,494
489,492,429,490,494
490,493,487,489,492
491,493,555,490,492
489,493,625,489,494
490,494,636,491,491
490,494,625,489,492
490,493,565,491,493
492,494,461,491,494
490,493,401,491,494
491,491,368,488,492
491,494,373,490,493
493,493,380,490,493
492,494,400,488,492
492,493,455,491,493
489,492,515,490,492
491,494,590,491,493
489,493,636,491,491
489,493,632,492,491
490,493,615,489,494
493,493,519,492,495
491,492,424,489,493
491,492,387,490,492
490,491,370,490,491
491,493,373,491,492
492,492,386,490,491
490,494,420,490,493
491,493,480,489,492
491,493,545,488,492
492,493,618,489,494
492,492,638,489,492
491,492,630,491,494
491,494,576,488,494
491,493,474,490,494
491,492,407,491,493
489,491,372,493,493
490,492,368,490,491
492,493,377,491,491
490,493,396,490,493
492,492,447,491,494
491,492,508,491,495
488,493,577,492,492
492,494,635,491,491
490,494,633,491,494
492,491,618,492,492
490,494,533,491,493
491,492,434,491,493
491,492,392,490,491
495,493,368,491,492
490,492,373,490,493
491,493,381,490,492
490,494,413,490,492
491,493,470,491,493
491,493,535,490,493
491,494,613,492,493
490,493,640,490,495
492,492,633,491,495
492,492,590,493,496
492,492,488,491,495
492,494,410,491,493
491,493,375,491,494
493,492,368,489,492
489,494,377,489,493
493,493,390,490,493
493,493,437,490,493
490,493,501,490,492
491,493,566,488,494
491,492,633,491,494
490,493,637,491,493
489,494,623,493,495
493,493,552,492,493
492,492,446,491,494
492,494,395,490,491
494,496,368,491,493
491,494,374,491,495
491,493,379,490,492
493,492,410,490,492
490,493,462,491,495
492,493,525,491,494
491,492,606,492,494
490,493,637,491,493
491,493,633,490,494
492,494,597,490,492
491,492,503,491,490
492,493,416,490,493
492,493,383,490,495
493,492,370,490,492
491,494,374,491,493
489,492,386,489,492
491,492,430,491,492
490,493,490,491,492
490,493,555,490,491
490,492,626,491,493
491,494,637,490,491
490,493,626,490,494
494,494,566,489,495
492,494,459,489,493
492,492,401,489,493
491,495,371,491,494
490,493,372,491,494
490,493,378,492,493
491,495,400,489,492
491,493,455,491,493
491,493,514,490,492
490,492,593,489,492
492,492,635,490,492
491,492,634,490,493
491,492,614,493,494
491,492,520,492,494
492,493,424,489,493
491,493,388,492,494
493,493,370,492,492
491,494,373,490,492
492,494,385,489,491
491,494,422,492,493
491,492,482,490,493
492,493,546,491,491
491,491,621,490,493
491,492,639,492,493
490,492,628,492,493
493,493,578,490,492
493,493,472,491,493
491,493,404,490,493
492,494,370,489,492
492,494,371,490,493
492,493,380,490,495
492,493,395,490,492
490,493,448,491,493
491,492,508,492,492
492,491,580,491,492
489,493,633,491,492
490,494,634,492,494
490,492,618,489,493
492,492,534,491,494
492,494,434,490,494
492,493,392,490,495
492,492,371,491,494
492,493,371,491,493
490,492,383,491,491
491,493,413,492,491
490,492,471,490,493
491,494,534,490,492
491,495,614,492,494
490,494,638,490,493
491,493,629,491,494
492,491,588,491,495
492,492,487,491,493
492,493,411,492,493
491,492,377,490,494
493,492,367,491,494
491,492,378,491,494
490,495,388,489,491
495,493,438,490,489
493,492,501,490,492
489,493,566,490,496
491,493,632,490,491
493,494,636,492,492
490,493,623,492,495
489,493,548,491,494
491,493,446,490,494
491,493,394,490,493
491,492,371,492,493
492,492,372,490,494
492,492,381,490,494
493,492,409,490,492
491,493,461,491,494
492,493,524,490,493
493,493,605,492,493
490,494,636,488,493
492,494,631,488,493
492,495,597,490,492
490,492,502,492,493
492,493,416,491,493
491,493,382,491,495
492,491,369,491,494
490,492,376,492,492
490,493,387,487,493
493,493,429,488,491
492,493,492,490,493
489,493,556,490,493
492,494,624,490,493
493,493,638,491,490
493,493,624,491,494
493,492,562,491,495
490,493,458,492,494
491,492,399,491,494
491,493,368,491,492
491,491,373,492,494
491,493,378,490,494
490,492,403,490,493
491,493,455,489,493
490,493,515,490,493
491,492,595,490,494
491,492,635,490,493
492,493,632,491,492
493,493,611,490,493
490,494,516,490,493
493,494,424,490,493
