Sensor0,Sensor1,Sensor2,Sensor3,Sensor4

494,506,491,496,491
492,417,491,495,493
492,385,491,543,490
492,491,494,612,490
493,491,492,633,490
494,493,493,622,491
492,490,493,575,492
493,492,493,2,543
490,492,491,494,612
490,493,491,492,633
490,494,493,493,622
491,492,490,493,575
492,493,492,493,473
492,494,492,493,408
490,493,492,492,378
492,492,492,493,374
492,493,491,493,383
490,494,492,492,401
490,495,491,492,447
491,492,492,492,504
489,493,492,493,577
491,492,493,492,629
491,492,493,494,629
490,491,494,495,615
490,493,493,495,532
491,494,492,493,436
491,493,493,493,394
491,493,492,492,375
491,495,492,493,377
492,493,490,492,386
492,494,490,493,416
490,492,492,493,472
491,493,492,493,534
490,493,491,494,607
490,492,492,494,634
490,494,492,493,626
490,493,493,492,581
491,493,492,493,488
490,494,492,493,412
490,494,491,492,380
492,494,491,492,374
492,492,491,493,379
491,494,492,491,396
489,491,491,494,441
491,493,491,493,499
490,491,493,493,566
489,492,493,493,626
491,493,493,493,629
489,491,490,492,620
492,494,493,494,545
492,494,493,492,446
491,494,492,493,397
490,492,492,494,372
491,494,491,492,375
490,494,493,493,384
491,492,493,492,411
490,494,492,492,464
490,493,492,493,525
491,494,491,492,602
492,493,493,493,632
491,493,491,494,628
492,494,491,494,590
490,493,493,495,500
491,493,492,492,418
490,493,492,492,383
492,493,494,493,375
490,492,491,493,377
491,494,491,492,390
492,494,491,492,433
491,492,491,492,490
490,493,492,492,554
490,491,491,492,623
491,493,492,493,631
490,492,494,494,622
490,491,494,494,561
490,496,490,493,455
491,494,492,493,403
490,493,493,494,373
492,493,493,491,372
491,492,492,493,381
491,493,490,493,404
490,493,490,492,456
490,493,491,493,515
490,492,490,492,592
490,493,493,492,632
490,494,492,492,629
491,494,490,492,607
490,492,494,493,513
492,492,494,493,424
491,493,491,492,387
490,493,491,493,371
489,492,493,494,378
489,493,490,492,388
493,493,494,493,426
490,492,491,493,483
491,494,493,492,547
491,493,493,492,617
491,493,490,493,632
490,494,493,493,620
490,492,493,492,575
491,493,492,493,467
491,494,492,493,406
490,493,494,494,375
489,492,492,492,375
491,492,491,493,383
491,494,492,495,400
489,492,490,492,448
490,493,492,493,509
491,491,491,493,579
490,491,493,491,630
491,492,493,493,628
491,492,490,493,614
490,494,494,493,528
490,494,493,493,434
490,493,493,492,393
490,493,492,491,375
491,493,493,493,378
490,492,490,493,385
491,492,491,494,416
489,492,492,494,474
491,493,491,492,537
490,493,494,494,610
491,492,491,492,635
491,494,492,491,625
491,491,492,492,583
492,495,491,493,484
491,494,492,493,410
490,492,493,493,376
490,495,493,491,371
490,493,492,493,379
489,493,493,493,394
489,493,492,493,441
491,492,491,492,500
489,493,492,493,567
489,494,490,491,627
491,493,491,493,630
491,492,491,494,616
492,494,493,492,543
491,492,493,493,443
490,493,492,493,397
490,493,494,493,373
489,494,494,492,377
490,494,492,494,384
490,492,492,491,412
491,492,493,493,466
491,492,491,492,526
490,492,490,493,602
490,492,490,494,631
490,492,492,494,627
492,494,490,494,589
489,494,491,493,496
491,494,492,492,417
490,494,492,492,383
491,493,495,491,374
492,493,493,493,379
491,492,492,492,391
489,493,493,493,434
490,493,490,493,493
491,494,492,494,558
489,493,492,492,623
491,493,492,492,632
491,490,495,493,620
492,495,491,491,557
492,495,491,492,453
491,493,491,492,401
490,494,492,492,371
491,492,492,491,376
491,494,492,493,383
489,493,492,494,405
489,493,493,492,458
489,493,492,493,517
490,491,490,493,592
491,494,492,492,631
489,493,492,493,627
492,492,490,492,601
492,493,491,493,509
491,493,492,492,426
491,494,492,493,387
489,494,491,492,374
490,493,493,492,380
491,494,493,492,388
491,495,493,491,428
490,493,491,494,486
491,494,491,493,548
490,494,491,493,617
491,492,492,493,632
490,493,493,494,621
489,492,492,492,572
492,493,492,493,464
491,494,492,492,406
490,494,493,492,375
490,495,492,491,374
492,494,491,491,382
491,493,492,494,402
489,493,491,492,450
491,494,492,492,511
491,493,491,494,582
490,492,491,493,628
489,493,493,493,629
491,492,491,494,613
490,496,494,494,522
491,494,493,493,431
491,494,491,492,393
492,494,491,491,375
492,493,493,492,378
490,492,491,493,385
491,495,492,491,419
489,492,492,493,476
490,492,492,492,539
490,492,494,492,610
490,492,491,492,634
492,494,492,493,623
489,493,491,492,580
493,493,491,492,479
492,494,492,492,409
491,493,492,493,376
490,494,493,492,373
489,493,492,492,380
491,493,492,492,398
489,493,492,491,444
490,494,491,493,503
491,494,493,494,571
489,494,490,492,627
490,493,493,492,629
490,491,492,494,616
490,492,492,494,536
490,494,492,493,441
490,494,491,492,397
490,494,491,492,372
491,494,492,492,378
491,494,491,492,386
492,494,490,491,413
491,493,492,493,468
490,491,492,492,530
491,491,494,493,604
489,491,493,494,632
490,494,492,493,626
490,495,492,494,587
490,495,491,493,492
491,494,491,492,415
490,493,492,494,382
492,494,491,491,373
492,492,491,493,378
492,492,492,493,393
490,495,492,493,436
490,493,491,493,496
491,493,493,493,562
490,493,493,493,624
491,494,492,491,631
491,493,493,494,619
492,495,490,492,550
490,493,492,492,449
491,493,492,493,400
490,493,491,493,371
491,493,491,491,376
491,494,493,493,384
490,493,490,492,406
490,494,492,492,461
489,493,491,492,521
491,493,490,491,599
491,494,491,492,632
490,493,493,493,626
491,490,493,491,599
491,493,492,494,505
491,494,491,493,422
490,493,492,492,386
489,491,491,492,372
490,493,490,492,377
490,493,491,491,390
491,494,491,492,430
491,493,492,491,487
490,493,491,493,550
490,494,490,494,617
489,494,490,491,632
489,494,493,493,622
490,493,493,493,567
490,494,493,493,462
491,494,492,493,404
491,495,491,494,372
490,493,491,492,373
491,492,491,493,382
491,492,491,493,402
491,492,491,493,453
491,494,493,493,514
490,493,492,494,588
492,493,491,492,632
490,494,492,491,631
491,493,492,491,612
492,495,492,494,519
490,494,492,493,429
491,493,492,492,391
491,492,491,492,372
490,492,491,494,378
489,492,492,493,387
492,494,490,492,422
490,493,492,492,480
490,493,492,491,542
490,495,491,492,614
491,493,491,492,633
491,491,494,493,623
490,493,490,493,575
490,495,492,492,473
491,494,492,493,407
490,493,492,494,376
489,492,495,493,375
490,494,492,493,379
490,492,493,492,401
491,492,491,493,445
491,495,493,493,505
491,493,491,493,575
491,492,490,493,627
491,494,492,491,629
489,492,493,491,617
493,494,493,493,532
490,494,493,493,436
490,492,494,493,396
491,492,494,493,370
491,495,490,492,377
489,494,491,493,384
492,494,490,492,414
490,493,490,492,470
491,493,490,493,532
491,494,490,494,606
489,492,490,493,633
491,494,492,492,626
491,494,493,492,586
491,495,492,493,489
491,495,492,492,414
491,494,492,493,379
492,493,490,492,374
490,495,491,493,377
490,493,492,494,390
489,492,492,493,438
490,492,491,492,498
491,492,493,492,565
490,491,490,493,626
491,495,490,492,630
492,493,491,493,619
493,494,491,493,548
490,494,492,493,447
490,492,492,493,400
491,494,491,494,370
490,493,493,493,375
490,492,494,492,384
491,491,492,492,406
490,493,493,491,462
491,494,489,492,523
491,494,490,491,600
492,493,490,493,631
491,492,491,494,625
490,490,493,491,597
491,493,493,494,501
492,495,491,492,417
490,493,492,492,384
489,494,493,492,374
490,494,492,491,377
490,493,492,492,390
492,494,493,494,431
490,493,490,491,489
490,492,491,492,551
490,489,491,493,619
490,494,491,491,632
489,494,494,493,620
491,493,490,493,563
491,494,493,492,457
490,493,493,492,404
490,494,491,494,372
490,493,490,492,374
491,494,493,493,384
491,492,491,492,402
490,492,491,493,454
491,494,493,494,515
490,493,492,494,591
492,494,490,492,632
490,494,491,494,627
490,493,490,491,608
492,495,492,492,517
491,494,492,492,426
491,492,493,492,390
492,493,491,492,374
490,494,492,493,377
489,492,492,493,386
488,492,493,494,423
489,493,492,492,482
491,493,492,491,545
490,490,492,493,613
491,493,491,492,633
491,493,490,492,621
491,493,491,492,574
490,494,492,492,470
491,494,492,492,408
491,493,492,494,374
489,492,492,493,374
490,494,493,492,382
490,492,493,491,401
490,492,491,493,446
491,494,491,492,507
489,492,492,492,578
491,491,492,491,626
491,492,491,493,628
489,492,492,492,617
493,495,493,494,528
491,494,492,492,435
490,493,492,492,394
491,495,493,491,374
491,494,492,492,377
490,492,492,494,385
492,494,490,493,417
489,493,491,492,472
491,493,491,493,533
490,492,492,494,607
489,492,491,492,634
491,493,492,492,626
491,491,491,493,584
491,495,493,492,485
491,494,492,492,412
491,494,492,492,379
492,493,491,493,374
490,493,491,493,378
490,495,492,491,396
490,492,491,493,440
490,493,491,492,500
490,493,492,492,567
490,491,490,492,627
491,495,491,494,629
489,493,491,492,619
492,494,490,492,543
492,494,492,492,444
490,493,493,492,399
491,492,492,494,370
491,494,492,492,376
490,494,493,494,385
491,495,493,492,410
490,494,493,492,464
490,493,492,493,525
492,494,493,494,601
490,494,491,494,632
491,492,490,494,624
490,490,491,494,590
490,493,492,494,499
491,494,493,492,417
490,493,492,492,384
492,493,494,494,374
491,492,495,490,381
490,494,491,491,390
491,495,491,494,433
490,493,491,491,491
490,493,492,492,556
490,492,490,493,620
490,492,491,494,630
489,493,493,494,621
491,493,492,494,559
491,492,494,492,454
490,494,491,493,403
491,495,491,491,374
491,495,490,491,374
491,493,493,493,383
491,492,491,492,406
490,494,491,493,456
490,493,490,493,516
490,492,491,493,592
489,493,493,492,631
490,494,491,494,626
490,494,490,491,605
490,492,493,494,512
491,494,492,493,424
492,493,492,492,388
492,492,491,493,375
490,494,491,494,378
490,493,491,492,388
492,491,493,494,427
490,494,492,494,485
490,493,492,492,548
490,492,491,495,615
491,494,491,491,632
490,494,493,493,622
491,492,491,493,571
491,493,491,493,468
491,493,492,492,407
491,493,492,494,374
490,493,491,492,374
490,494,493,492,384
490,494,493,491,404
490,495,491,491,450
490,494,491,492,509
489,493,492,492,581
491,492,493,492,629
490,492,492,494,629
489,493,492,494,612
490,493,493,494,526
490,493,492,492,434
490,493,492,492,391
490,493,492,491,376
491,494,491,492,378
492,493,489,492,386
492,493,490,492,419
489,494,492,494,475
491,493,492,492,538
490,492,493,494,610
489,492,492,493,634
490,493,493,491,625
489,492,491,494,582
491,495,492,493,479
491,494,492,492,411
491,493,492,493,377
492,493,491,493,373
490,493,491,493,378
489,494,491,492,398
488,492,492,493,443
491,493,491,493,501
490,492,493,492,572
490,493,492,491,628
491,494,489,493,629
489,494,490,493,617
492,494,494,492,539
491,493,493,493,441
491,494,492,492,395
490,494,493,494,370
492,493,491,493,377
490,494,493,493,382
490,491,493,491,413
490,492,493,492,468
490,493,490,492,526
491,493,492,492,603
489,492,492,493,631
491,493,492,491,623
489,493,493,495,587
490,493,493,494,494
491,493,492,492,415
490,494,493,493,381
490,492,493,492,374
492,490,494,493,378
491,492,491,493,391
491,493,490,493,435
491,494,491,493,494
490,495,492,492,559
489,492,492,491,625
492,493,493,493,632
490,494,493,492,621
490,494,493,492,556
492,495,492,493,450
491,493,493,492,401
490,493,494,493,372
492,493,491,493,372
490,492,491,494,382
489,492,491,494,408
492,493,492,493,459
489,493,491,492,519
491,493,492,492,596
490,494,493,492,633
491,493,491,492,627
492,493,490,491,601
490,494,495,493,507
491,493,491,492,422
490,494,492,493,385
489,493,492,494,373
489,492,494,493,379
491,494,491,493,387
491,494,492,492,430
490,492,491,494,487
491,493,493,493,551
492,492,491,493,619
492,495,491,494,634
491,501,492,495,621
488,499,492,493,571
493,501,493,494,464
491,498,493,494,405
490,497,493,492,375
490,483,490,491,372
491,486,491,491,381
489,489,492,490,403
492,491,490,491,451
491,491,492,492,511
491,490,491,493,583
490,490,490,491,630
492,492,493,493,630
491,490,491,493,611
490,497,493,491,522
491,497,494,492,431
491,496,492,491,390
490,495,493,491,374
491,495,493,491,379
491,495,492,493,384
489,492,492,494,419
490,489,492,493,477
490,491,490,492,539
490,492,493,493,612
491,492,491,492,633
492,495,491,492,624
491,495,491,493,579
492,495,492,494,477
491,496,492,493,409
490,498,493,492,379
490,493,493,494,373
490,498,495,494,382
490,502,492,493,400
489,506,492,492,444
490,500,492,493,504
490,496,492,494,573
489,488,489,492,626
491,484,491,492,628
490,490,491,494,616
490,496,491,492,537
490,493,493,494,440
491,490,492,493,396
490,490,493,493,373
489,492,492,492,378
491,495,491,495,385
490,494,490,492,414
491,493,493,494,470
490,485,492,492,529
490,480,491,493,604
490,479,493,494,632
492,486,490,493,626
490,491,493,494,586
491,494,492,492,491
491,499,491,491,415
490,505,493,490,383
492,508,491,491,374
491,508,495,489,380
491,515,493,491,395
490,520,491,493,436
490,488,492,492,495
490,475,492,495,561
489,483,493,494,623
491,482,492,491,631
491,488,492,494,619
492,498,491,492,550
492,500,493,492,448
491,501,493,492,400
491,494,493,491,370
491,496,491,491,376
491,505,493,494,384
490,503,493,495,408
490,501,493,495,462
489,492,491,496,522
490,490,490,494,601
489,495,492,496,635
491,496,491,493,626
492,488,492,492,595
491,498,493,494,506
491,506,493,493,423
492,507,493,492,386
490,507,491,492,373
490,496,492,492,380
491,474,491,492,390
490,480,491,493,431
490,488,492,494,489
490,491,493,493,553
489,487,490,494,618
491,487,493,494,631
489,488,492,495,621
489,492,491,493,566
493,494,493,494,460
491,494,492,494,405
490,493,491,492,375
491,493,490,492,374
492,492,491,493,383
490,492,493,492,403
491,492,493,493,455
491,492,491,494,514
491,492,492,495,588
490,492,492,493,631
490,493,492,492,630
490,491,491,494,610
492,494,492,495,517
490,492,493,493,428
491,494,491,493,390
492,496,490,493,374
490,494,491,495,380
491,492,492,495,387
492,490,490,493,425
489,487,492,493,481
490,494,490,493,544
489,495,491,493,613
490,494,492,492,634
492,491,493,493,625
490,492,491,493,575
492,494,492,493,474
491,490,492,493,408
490,491,491,493,378
490,490,492,494,373
491,492,490,493,384
491,494,492,493,402
491,494,489,493,448
490,493,491,495,506
492,491,493,494,578
490,489,492,494,628
491,494,492,493,630
490,492,493,494,616
490,495,494,495,532
491,497,494,495,436
491,490,490,493,396
491,493,491,494,371
490,493,490,492,379
492,493,490,493,386
493,494,490,493,415
491,492,492,494,473
491,491,490,493,534
491,493,492,495,608
489,491,494,495,634
490,491,494,493,626
491,493,494,493,583
492,492,493,493,488
491,492,494,493,412
491,493,492,493,381
492,493,490,494,374
492,491,491,494,380
490,491,492,494,397
491,492,491,494,440
491,486,492,492,500
490,490,494,494,567
490,493,495,493,627
491,494,494,492,632
491,492,494,495,619
492,493,493,493,545
491,494,491,494,446
491,493,490,494,399
491,492,489,494,372
490,493,490,493,377
491,494,491,495,387
490,493,489,493,409
490,493,492,494,466
491,493,491,493,525
491,493,490,492,602
490,489,493,493,634
491,488,490,492,629
492,491,492,495,591
490,490,492,496,501
491,492,492,494,418
491,489,495,493,385
490,491,490,493,373
491,494,490,492,378
490,492,493,492,392
492,493,492,493,434
491,492,492,493,492
491,492,492,493,556
490,492,491,495,621
490,495,490,492,633
489,495,492,493,623
490,493,493,493,562
491,496,492,493,457
491,492,492,494,403
491,490,491,494,371
490,494,491,493,374
491,494,491,494,383
490,494,492,493,404
490,486,492,491,457
491,487,493,494,516
492,489,491,493,593
490,491,495,494,633
491,492,496,493,631
492,490,497,493,607
493,495,494,495,515
491,493,492,494,426
492,493,494,493,389
491,493,493,495,373
489,490,493,494,379
489,489,492,494,389
492,492,491,494,428
490,492,493,494,484
490,492,494,493,548
490,493,492,492,618
492,491,491,493,633
492,491,491,494,625
491,491,489,496,572
492,493,490,493,468
491,493,487,495,407
490,491,486,495,376
490,491,489,494,374
490,491,492,493,384
491,493,493,495,400
489,494,494,493,451
491,493,494,494,510
491,491,493,494,581
491,489,493,494,629
491,493,492,493,631
489,491,492,494,616
494,491,492,493,529
491,491,492,494,435
491,492,492,493,395
493,493,492,495,372
490,491,492,494,378
491,493,490,493,384
491,495,489,495,417
490,495,491,494,475
491,497,491,495,538
492,499,491,495,612
489,496,492,494,634
490,484,494,493,627
492,485,495,493,585
492,489,492,494,485
492,489,494,493,411
491,489,492,493,380
491,492,493,494,372
490,492,493,494,380
489,492,492,495,395
489,491,493,493,443
490,492,493,494,502
491,492,494,493,571
490,490,495,494,629
492,490,496,493,631
492,491,492,494,619
493,491,492,493,544
492,493,496,493,443
491,489,495,492,399
492,494,491,494,372
490,494,492,492,377
491,494,491,493,386
492,493,489,495,408
491,493,492,493,467
491,493,495,494,527
492,492,493,494,602
491,489,492,496,633
490,492,491,494,628
493,491,490,496,591
489,491,490,494,498
491,492,491,494,416
491,492,492,492,385
491,495,492,492,375
492,493,491,492,379
490,492,495,493,391
491,491,497,493,436
491,490,494,492,493
490,490,490,494,557
489,489,489,495,622
490,491,490,493,632
490,491,493,493,620
490,489,493,493,558
492,492,496,493,455
491,493,495,494,402
491,493,493,494,374
490,494,494,494,374
491,494,494,493,386
490,492,494,495,406
489,492,495,495,459
490,491,494,494,519
490,491,488,494,597
491,493,488,495,632
490,491,486,493,629
492,492,490,493,603
493,494,491,494,511
491,495,491,495,425
492,496,490,493,390
490,492,494,495,376
492,493,496,494,381
491,491,499,492,389
490,491,498,492,429
491,490,496,494,485
491,490,492,493,549
492,491,494,494,618
492,491,489,493,631
491,492,491,494,622
489,492,491,496,570
493,491,492,493,466
491,487,496,493,406
491,492,491,493,376
491,495,491,492,375
491,493,493,492,383
492,492,495,495,402
490,492,490,493,450
490,490,491,494,511
492,487,492,494,583
490,489,493,495,630
490,490,494,494,631
490,491,493,494,612
492,494,492,492,525
491,493,490,493,433
492,494,490,492,392
492,495,491,492,374
491,492,492,494,377
490,493,491,492,385
490,491,492,493,422
492,492,493,495,477
492,493,495,493,539
491,493,496,493,613
490,493,494,495,633
490,492,494,493,624
489,490,495,495,580
493,493,488,494,479
492,494,491,493,411
490,492,492,494,380
492,494,491,494,373
490,493,491,493,381
491,493,492,492,399
490,494,492,492,445
491,493,494,493,502
490,492,493,492,572
490,491,493,494,627
491,492,492,493,632
491,494,495,495,617
491,492,496,495,537
491,493,498,495,441
492,493,497,494,398
493,494,498,493,374
492,492,493,495,379
492,493,493,492,387
492,494,492,492,413
492,493,491,493,469
490,493,492,493,529
491,492,495,492,607
491,492,497,495,634
490,494,497,494,627
490,493,498,495,589
491,491,496,495,493
492,491,491,493,413
491,491,491,493,383
492,494,487,493,374
492,491,488,494,379
491,493,489,494,391
490,492,492,493,439
491,493,495,494,496
491,493,493,494,563
489,491,493,494,626
491,493,489,492,633
491,493,490,493,620
489,490,494,492,554
493,493,493,493,450
491,493,492,492,400
492,490,493,493,372
491,491,491,494,374
490,493,492,493,386
490,492,495,494,407
491,491,493,493,462
490,490,494,493,522
491,492,495,492,599
492,493,494,494,633
490,492,492,494,627
491,494,489,493,600
491,492,493,495,508
491,492,490,494,423
491,492,490,494,387
490,493,492,495,374
491,491,493,493,382
491,494,496,495,388
489,493,494,492,432
491,492,493,493,489
492,494,493,494,551
490,493,495,493,622
491,491,492,494,633
491,492,490,494,624
490,491,495,495,568
491,493,497,493,463
491,493,497,493,405
490,492,494,492,376
492,491,494,494,374
491,490,492,493,382
491,490,493,493,403
492,491,492,493,452
490,489,493,492,513
490,488,491,491,588
492,489,494,493,632
491,489,495,493,630
491,492,495,492,612
492,497,492,493,520
491,497,493,495,431
491,497,492,493,390
490,497,494,494,372
490,493,491,495,378
489,494,491,494,387
490,493,492,492,422
491,491,494,493,479
491,490,494,493,540
491,491,495,492,616
492,491,492,493,633
492,493,494,492,622
491,495,497,492,575
491,493,494,492,476
492,493,492,493,408
490,493,493,493,376
490,493,493,493,375
491,494,492,494,380
490,493,491,492,401
490,492,491,494,446
490,494,492,495,506
490,493,490,494,574
492,492,491,494,628
490,493,493,492,631
492,494,497,494,617
491,493,492,492,534
491,491,495,494,438
491,490,493,494,397
491,496,490,492,375
490,493,495,494,378
492,492,492,493,387
490,493,494,494,413
490,491,496,493,471
491,492,497,493,531
490,492,495,492,608
492,493,497,493,635
491,492,494,494,627
491,494,496,492,587
492,493,495,493,491
492,494,489,493,412
490,494,489,493,379
491,492,490,492,375
492,493,490,494,379
490,493,491,493,393
490,492,493,493,439
491,492,494,493,498
492,492,496,494,566
492,492,497,496,624
491,491,496,494,631
492,491,497,494,619
492,491,496,495,549
491,494,492,493,448
491,494,489,494,400
492,493,490,492,373
489,494,487,493,377
490,495,487,492,386
491,495,490,491,407
489,493,492,492,464
491,493,491,493,523
490,490,490,493,598
490,491,490,494,632
489,493,493,493,627
490,493,494,492,596
491,495,499,493,503
492,494,497,493,420
491,494,495,492,386
492,494,496,492,374
492,492,494,493,379
492,491,497,492,390
490,489,493,494,431
491,494,489,492,489
490,493,493,494,554
489,493,496,494,620
490,494,492,492,630
490,493,492,492,622
491,495,493,495,562
490,495,492,493,458
491,494,489,493,402
491,491,492,493,372
492,495,493,491,376
490,495,497,493,384
491,493,498,492,405
490,494,499,493,455
491,493,494,494,515
491,493,491,494,589
490,494,487,494,630
491,494,489,495,631
491,492,491,495,606
491,492,494,494,515
491,494,493,494,428
491,495,493,494,390
492,495,493,494,374
490,494,495,493,377
490,495,494,491,388
491,495,494,492,425
491,493,492,492,481
491,492,491,493,543
490,490,489,494,617
490,492,491,494,631
490,493,493,493,623
489,493,495,495,575
490,494,495,493,471
491,494,494,492,408
491,493,493,494,374
493,494,492,492,372
492,492,492,493,380
492,492,494,494,398
492,493,493,492,447
491,494,495,494,508
492,494,495,493,579
490,494,496,492,630
490,494,494,492,630
491,493,492,492,616
492,493,494,494,529
492,495,494,493,433
491,494,497,492,392
492,492,493,493,371
491,492,497,494,377
489,492,494,492,386
492,494,493,493,417
490,493,490,493,473
491,493,493,493,535
491,494,492,492,610
491,493,491,493,632
490,493,493,493,621
490,491,491,493,585
491,495,493,494,484
491,493,491,494,411
490,492,494,494,380
490,492,492,494,372
491,495,496,491,382
490,493,498,494,398
493,495,496,492,440
492,494,493,492,500
491,493,488,493,565
491,491,487,491,627
492,495,490,493,630
490,493,490,493,618
490,495,495,492,545
491,495,497,493,445
491,494,494,493,399
490,493,494,495,375
492,493,495,494,376
491,493,495,493,383
491,493,495,493,408
490,492,495,493,464
491,493,494,492,525
492,491,493,493,601
493,493,491,493,635
492,494,493,490,628
492,495,493,491,593
493,495,493,493,499
492,494,490,494,416
492,494,491,493,384
490,492,493,495,373
490,493,494,494,378
490,493,496,493,391
490,493,498,493,434
491,492,492,492,491
491,493,488,493,556
490,491,490,491,623
492,492,491,493,631
492,492,493,494,620
491,493,494,492,562
493,494,492,493,455
491,494,492,492,403
491,493,496,493,373
490,494,497,491,375
490,495,492,492,382
490,493,493,491,407
492,493,494,493,457
491,494,494,493,517
492,492,493,494,591
491,492,492,494,630
490,492,492,493,629
490,494,494,493,603
492,493,493,493,514
491,493,495,493,425
492,494,492,492,389
493,495,493,492,375
491,495,493,492,380
490,493,492,493,386
490,495,495,492,426
490,493,492,493,484
491,493,493,493,546
490,492,496,494,616
492,492,496,493,634
492,495,496,494,622
490,494,489,492,574
493,494,489,492,468
492,493,492,492,407
491,494,492,491,376
491,492,490,493,374
492,494,491,493,383
490,494,492,493,401
490,495,492,491,449
490,494,494,492,509
491,492,494,493,583
492,493,497,495,630
492,493,496,494,628
492,493,498,494,612
493,495,493,494,526
492,495,496,495,434
493,495,499,493,394
493,494,495,493,373
494,493,490,492,380
495,495,491,491,387
494,495,492,491,418
491,493,496,493,474
491,494,493,493,537
490,494,494,494,610
489,490,492,494,633
491,495,489,493,624
492,494,494,493,581
494,492,495,492,481
494,495,491,493,409
493,495,490,492,379
493,494,490,492,372
492,493,494,490,379
489,495,492,489,393
490,492,492,491,442
490,494,493,493,501
490,493,494,492,570
489,493,493,495,627
490,495,494,495,631
490,492,493,496,617
492,495,492,492,539
491,493,496,492,442
491,494,492,492,395
491,494,491,493,371
491,494,491,492,377
491,494,490,492,385
491,494,491,492,410
489,493,496,492,467
491,495,495,494,528
492,495,497,492,605
491,493,497,494,634
493,493,494,492,628
492,496,498,495,588
491,493,496,495,496
492,495,491,494,416
491,494,490,493,383
491,494,493,494,375
491,492,490,493,381
491,495,491,492,394
492,494,490,492,436
491,492,491,493,493
491,495,493,492,560
490,494,491,492,622
491,495,493,492,633
491,494,496,494,621
490,494,495,494,555
492,495,491,493,453
492,495,488,492,402
491,495,491,493,371
490,494,498,491,376
491,495,506,492,384
491,494,515,491,406
490,495,511,492,460
490,495,500,493,518
492,495,490,492,596
490,493,487,494,632
491,492,478,493,629
492,495,490,492,598
491,494,491,493,509
492,495,489,492,423
491,495,490,493,386
492,493,489,494,373
491,493,491,496,380
491,493,491,494,388
491,494,491,494,431
490,494,493,493,487
491,493,493,492,552
491,494,493,492,621
493,495,491,493,632
494,493,494,492,623
494,492,492,493,567
493,496,492,493,462
492,494,492,494,404
491,494,492,494,373
489,494,491,493,373
490,493,492,492,384
491,494,494,493,400
490,494,495,491,453
492,493,499,491,512
491,492,488,491,583
492,494,490,491,631
492,494,492,492,630
494,495,487,490,609
492,495,493,492,522
491,496,492,493,432
490,497,494,491,392
493,498,499,490,370
493,497,499,486,376
493,494,495,491,384
493,491,494,493,418
493,494,498,494,477
493,495,487,496,539
491,494,492,497,612
488,493,495,494,632
489,495,490,492,625
490,495,492,493,581
491,496,489,495,479
491,495,491,493,409
490,494,493,493,378
489,495,497,492,371
488,493,500,493,380
487,493,501,494,397
489,492,499,492,444
492,493,493,492,504
491,494,490,497,572
492,498,491,491,628
493,496,497,490,629
492,492,488,490,615
491,492,492,489,535
488,496,497,488,438
490,495,495,488,393
491,495,499,493,370
489,496,498,495,377
491,493,495,499,387
493,491,493,498,411
493,492,495,495,469
491,493,494,490,530
491,495,507,490,604
490,495,506,492,632
491,496,500,491,626
494,497,497,496,586
493,494,495,495,492
495,494,486,494,414
492,494,486,493,383
491,494,489,491,374
487,493,494,491,378
489,494,495,490,393
488,499,492,490,435
489,498,492,494,495
489,497,495,493,561
490,496,494,496,623
492,494,489,496,631
492,495,503,494,620
494,493,510,495,553
493,494,503,496,451
490,494,477,495,401
490,493,473,494,372
489,494,486,493,375
493,497,495,490,386
495,494,498,489,406
494,494,491,490,460
493,495,490,491,520
492,494,495,491,599
490,494,493,494,631
492,494,500,492,628
497,497,505,491,598
498,496,517,493,505
495,494,515,489,420
492,494,510,488,382
491,500,494,490,371
487,499,497,490,376
488,501,501,488,387
491,498,512,494,431
494,498,513,500,489
498,498,510,496,553
496,493,479,496,618
491,492,475,495,630
490,491,479,496,620
488,491,484,495,564
491,495,488,489,459
491,495,493,491,405
490,497,497,494,372
489,499,496,494,375
489,499,494,497,385
488,495,490,496,402
490,494,477,490,455
492,492,480,490,514
493,494,480,487,585
493,496,496,484,627
489,497,503,486,627
491,495,506,490,606
489,493,509,488,516
493,494,496,489,426
496,497,485,489,388
494,496,489,486,371
492,495,494,493,376
490,493,509,497,385
491,494,499,496,423
492,497,501,490,478
494,499,507,486,539
498,499,511,488,611
497,504,506,486,629
492,504,505,489,620
484,494,485,498,577
488,500,482,503,474
486,494,489,500,409
492,490,502,493,377
495,496,493,488,370
497,496,483,486,383
507,503,524,492,400
507,505,528,489,446
500,502,513,490,504
493,497,505,493,573
488,500,505,490,624
483,496,467,494,628
487,492,477,499,614
494,492,474,498,532
501,493,504,498,440
504,495,532,493,398
503,496,528,491,373
500,496,497,491,377
495,497,481,488,384
489,500,465,492,414
481,501,471,490,469
491,497,487,492,531
494,493,513,495,609
492,490,528,496,633
492,495,528,496,624
490,498,493,499,583
486,496,470,499,490
485,498,486,499,414
489,499,500,500,384
489,498,496,492,376
492,496,490,490,381
495,495,504,489,394
493,497,509,485,437
492,500,513,489,498
490,499,488,498,565
492,503,490,497,626
497,502,491,496,633
499,497,502,497,620
496,495,505,497,550
497,494,484,499,448
493,493,499,495,400
491,488,500,494,375
493,493,519,495,376
491,497,514,490,386
491,498,498,490,410
491,496,487,487,462
489,494,492,486,520
491,494,474,489,599
492,500,490,492,629
492,500,495,485,624
494,500,505,488,591
493,503,497,494,498
488,500,489,492,416
485,500,501,485,379
498,500,536,485,372
506,508,546,489,377
508,505,537,493,391
512,499,553,497,433
511,489,493,494,488
504,494,494,496,552
488,490,470,498,618
490,490,494,493,631
487,496,513,497,619
479,495,465,496,558
480,501,477,496,457
487,501,500,492,402
488,503,532,488,374
488,510,547,491,373
489,513,527,495,383
488,503,490,491,404
497,495,465,493,455
498,498,465,503,517
504,493,483,493,593
504,493,474,485,629
494,497,475,489,627
487,495,483,486,603
486,496,485,488,510
486,499,490,498,425
488,499,496,505,391
493,499,501,498,378
498,503,516,483,377
505,502,528,476,384
503,504,570,478,424
500,511,588,478,478
497,504,561,493,542
499,502,551,504,615
489,499,466,503,630
484,483,421,488,618
488,484,436,479,569
497,499,467,475,462
505,499,504,463,397
506,501,498,474,363
505,498,472,483,362
502,498,474,499,377
503,501,490,521,402
496,496,477,512,450
495,496,502,507,512
488,496,505,492,580
489,498,501,469,625
491,500,535,474,625
498,501,528,476,609
502,502,513,489,522
502,496,519,505,432
502,496,516,513,394
496,494,507,501,372
490,500,509,491,379
484,509,516,489,384
480,509,508,480,416
489,509,490,473,470
503,512,496,479,531
509,507,479,493,604
508,494,452,500,632
513,491,502,508,625
498,484,490,513,584
482,491,538,503,488
483,493,540,497,415
494,491,493,495,382
501,497,485,497,376
501,502,515,495,386
496,505,507,491,400
493,501,516,492,442
488,499,518,488,502
490,496,477,493,570
498,492,470,486,623
503,494,479,483,629
505,501,491,482,617
504,508,535,473,538
496,511,551,480,437
490,512,552,488,391
486,499,490,498,366
482,491,458,488,366
484,488,452,491,378
490,495,473,500,411
495,502,486,498,463
490,504,509,494,527
494,500,530,481,601
499,502,523,472,630
508,509,506,487,623
502,501,493,498,585
501,495,516,488,495
505,507,546,497,415
509,508,513,508,383
508,503,474,501,373
492,496,524,511,385
493,495,501,507,394
490,488,496,498,438
490,493,512,487,494
490,486,427,480,555
496,483,462,476,620
494,492,484,480,628
496,501,498,481,615
490,501,508,489,555
484,496,507,496,450
489,498,528,494,399
491,500,523,506,375
497,506,519,491,374
503,511,537,486,382
503,504,519,489,406
503,502,503,490,455
504,498,501,476,512
504,499,483,480,590
507,506,469,486,624
505,502,484,479,621
492,493,500,495,597
500,492,471,499,507
495,493,493,499,422
490,504,513,501,389
500,512,552,490,373
501,510,562,487,380
511,506,565,502,387
505,485,508,497,425
496,485,472,502,484
487,492,440,501,549
490,494,447,495,617
481,488,455,481,631
482,492,497,481,621
484,501,509,477,569
493,500,494,497,466
506,505,501,500,407
513,504,514,495,376
516,506,536,495,374
504,501,566,497,382
488,493,548,496,402
491,495,528,505,453
487,487,490,510,513
488,494,448,500,586
485,491,432,487,630
492,491,478,492,630
491,492,512,484,616
491,506,533,482,522
491,509,484,491,429
496,504,470,470,386
500,507,500,467,365
504,509,541,471,371
504,502,504,481,376
499,495,470,488,412
499,498,500,500,473
514,500,537,506,539
509,497,537,504,612
503,494,560,493,630
498,496,495,467,614
490,498,467,475,574
492,502,475,491,472
487,491,483,495,406
497,496,508,521,384
509,507,554,520,381
507,511,515,505,388
500,502,460,504,402
489,492,493,496,446
483,483,446,492,504
486,483,461,494,575
494,489,474,489,630
495,493,511,475,627
492,492,496,467,614
488,507,508,489,537
493,507,528,499,440
501,507,550,504,400
514,508,533,501,377
518,500,505,493,377
506,491,483,491,382
498,496,466,497,410
481,501,499,498,465
482,506,497,487,530
498,504,546,484,605
498,492,512,486,631
495,491,483,489,624
492,488,465,493,585
477,489,452,481,486
481,495,483,475,409
498,500,509,486,378
502,503,522,492,370
509,504,517,505,379
515,500,483,497,390
515,497,494,498,435
502,492,496,500,494
483,493,511,496,562
475,501,520,487,624
477,510,533,493,632
491,519,575,494,621
504,512,530,489,554
502,498,460,487,448
502,495,494,511,401
491,484,498,497,372
480,481,484,491,374
489,492,445,492,382
499,495,458,492,411
500,506,486,489,460
502,511,517,492,521
500,502,524,483,594
491,489,520,491,628
495,495,511,499,630
506,493,529,500,601
501,497,509,494,506
499,492,463,486,419
509,499,466,480,385
513,506,506,491,371
508,496,502,481,376
507,498,517,493,387
494,492,527,493,425
485,491,501,494,484
482,489,502,501,551
494,498,493,512,623
495,496,432,506,636
480,492,467,502,623
477,489,485,494,573
505,499,503,497,471
509,510,532,498,413
520,518,570,500,381
520,510,538,496,381
507,502,538,483,380
489,487,508,483,399
475,487,477,484,448
475,493,454,489,507
483,494,437,498,587
487,499,460,491,628
494,502,478,495,629
496,503,490,500,613
498,500,497,498,523
501,499,507,480,426
495,494,488,475,386
490,493,476,459,360
488,501,489,466,368
493,517,535,482,382
506,521,610,495,421
515,506,597,518,479
518,490,517,512,541
496,472,417,506,612
480,473,408,503,632
482,478,448,498,624
482,487,475,490,581
479,497,469,495,477
483,499,487,492,413
491,501,525,500,380
496,498,542,496,380
495,504,551,488,386
498,502,468,489,399
492,507,471,498,448
492,511,551,497,511
510,510,590,496,578
505,503,551,492,630
511,484,483,487,628
505,482,459,496,616
493,485,448,500,535
509,489,450,492,437
498,488,469,494,395
478,498,479,494,376
491,508,488,481,374
489,519,490,475,381
498,527,510,473,412
507,514,534,485,465
503,499,544,503,530
501,483,534,505,607
498,482,499,499,631
477,488,442,505,624
482,500,475,505,591
497,501,514,503,493
489,492,507,500,417
484,491,490,503,386
490,500,503,503,377
493,500,480,496,384
493,498,487,487,393
493,493,466,487,438
494,488,494,485,498
492,492,508,475,561
484,499,500,473,618
495,504,514,463,624
516,503,502,480,613
529,507,511,513,551
540,514,514,519,453
522,497,517,510,399
474,476,543,505,376
469,478,483,498,376
480,487,450,496,385
483,496,461,497,412
482,494,480,500,464
484,495,486,495,526
487,496,490,489,602
490,496,488,481,632
495,507,493,487,626
495,507,504,488,598
499,508,512,496,504
498,507,522,510,422
491,504,524,497,389
488,504,571,497,377
490,496,468,504,382
492,488,455,502,392
494,493,488,488,432
488,494,507,471,487
493,501,505,470,548
503,494,494,482,614
504,493,496,496,631
506,495,495,504,622
491,496,502,514,567
488,493,510,500,464
494,502,518,497,407
493,504,520,499,379
502,503,486,499,380
500,494,483,495,383
494,488,488,479,405
492,486,457,481,452
491,495,495,487,512
504,501,506,498,589
499,497,481,506,633
494,494,500,498,629
488,493,495,493,612
480,498,496,497,519
489,500,480,499,430
498,499,464,499,393
491,496,484,491,373
488,494,480,492,381
487,498,507,499,392
490,499,534,497,430
498,498,541,495,484
497,493,492,494,546
495,484,469,492,618
492,480,480,494,634
489,487,471,495,625
507,495,482,493,577
519,498,490,496,476
513,497,488,494,411
499,492,491,497,376
484,498,504,495,376
476,498,502,494,385
487,498,498,492,401
487,502,495,484,445
486,498,492,483,504
487,494,496,484,575
492,498,498,492,627
491,500,496,493,627
489,499,507,489,612
491,502,515,492,530
495,503,542,503,437
499,503,544,499,395
496,499,469,483,371
491,494,465,483,373
486,487,461,491,382
489,490,481,497,415
489,492,480,486,469
489,497,486,482,530
489,495,492,485,604
490,491,492,493,631
490,496,498,510,626
492,492,499,499,587
492,494,494,494,484
491,495,480,497,415
490,495,486,497,381
490,493,495,499,375
487,493,503,499,383
487,494,504,502,400
491,500,502,502,445
493,498,472,499,506
494,499,498,498,572
494,501,516,497,630
491,499,503,495,636
493,494,486,495,621
500,490,495,495,548
499,490,489,496,449
500,491,489,494,400
491,491,494,494,377
484,494,480,498,379
492,496,488,496,387
491,497,496,496,415
489,496,496,495,468
488,493,493,495,526
487,492,494,497,607
489,496,496,495,636
491,494,495,496,628
490,495,492,496,595
488,496,495,497,502
489,497,495,496,421
492,495,494,497,388
502,497,491,494,377
506,495,493,495,385
519,494,491,494,396
515,496,489,494,433
489,493,495,494,494
473,493,501,495,558
480,490,496,496,621
486,493,492,497,634
488,493,493,496,623
488,494,496,496,562
491,497,494,495,459
491,494,494,493,403
496,497,489,495,378
499,498,491,495,378
496,495,491,495,385
493,494,495,494,409
494,491,498,496,459
491,498,494,495,518
489,499,494,495,595
487,500,494,495,635
489,502,494,494,628
488,497,494,492,608
492,497,496,496,515
491,499,496,496,426
491,493,497,495,390
490,495,489,496,376
489,497,492,494,382
488,489,497,493,392
492,486,489,495,429
489,485,493,498,486
489,491,495,496,552
490,495,493,495,620
491,497,490,497,636
489,499,491,497,625
491,504,494,495,572
491,510,494,492,471
492,508,495,491,407
491,492,496,494,375
493,493,495,496,377
490,496,497,502,384
490,496,496,501,406
491,491,487,500,454
492,493,489,496,512
492,493,488,495,584
489,493,491,497,634
489,496,489,496,632
488,495,492,497,616
489,492,494,497,531
493,492,495,496,435
492,490,495,496,396
490,493,491,498,375
490,496,489,496,379
490,497,491,497,388
489,495,490,497,421
488,497,490,496,478
486,499,493,497,540
487,488,488,495,615
493,487,492,496,638
494,493,493,496,630
492,496,492,496,588
494,497,494,497,484
491,495,494,495,414
488,491,496,495,379
487,492,493,496,374
488,490,496,497,384
490,491,492,496,401
496,493,493,496,446
491,493,487,496,505
487,495,486,495,574
484,494,490,495,631
487,498,490,497,634
488,504,493,497,619
490,504,491,497,546
489,502,492,498,445
491,488,491,497,398
492,488,492,498,376
492,486,491,496,382
494,484,490,496,386
490,492,488,495,414
486,494,490,496,471
492,494,495,496,530
495,498,491,496,607
496,500,491,494,638
497,497,492,497,628
491,492,491,495,594
485,496,492,497,497
486,495,491,496,419
488,495,493,496,388
489,491,491,496,376
491,494,491,497,383
488,495,490,496,395
492,495,490,496,437
489,480,490,496,498
488,491,489,496,565
490,495,492,497,625
490,495,491,497,638
490,495,492,496,625
490,497,493,496,560
491,489,493,497,457
490,489,493,498,403
490,494,491,496,376
491,500,492,496,380
488,502,491,496,385
488,507,491,498,409
488,503,491,497,463
491,495,491,496,522
489,498,492,498,598
489,497,491,495,637
490,493,490,494,630
490,478,489,494,604
491,483,492,495,514
490,496,490,496,424
489,503,490,496,391
488,502,491,499,378
488,502,494,498,383
489,504,494,497,393
490,498,491,495,433
489,499,492,495,488
488,492,491,495,554
490,482,487,494,620
489,485,489,493,633
488,483,491,496,624
490,490,491,495,570
488,490,493,497,469
490,488,490,497,408
489,486,491,497,377
488,492,491,496,379
489,496,491,497,385
488,498,489,496,406
487,505,492,499,457
489,504,490,498,515
489,500,490,499,587
486,499,490,499,635
489,502,489,497,634
488,499,490,497,613
489,481,491,496,528
490,486,491,497,434
489,482,490,496,395
490,479,491,498,377
490,490,490,496,382
488,497,492,497,389
487,490,491,498,425
488,504,489,498,480
489,500,491,496,543
487,496,488,495,615
489,496,489,494,636
487,472,490,496,628
488,486,488,496,583
491,498,492,497,482
491,503,493,497,415
488,504,492,498,379
486,501,491,496,378
488,489,492,496,386
488,493,491,494,401
488,489,489,493,447
487,485,489,495,507
488,493,488,495,575
487,487,493,495,631
488,492,489,498,633
489,499,490,497,620
488,496,492,495,541
489,494,490,496,443
488,494,490,495,397
487,493,492,495,378
485,493,488,495,380
489,490,487,495,388
490,495,489,496,418
489,499,492,498,472
490,498,491,497,533
490,499,490,499,609
488,492,491,496,637
489,492,490,495,629
489,476,489,496,589
490,482,490,495,492
489,490,491,495,418
488,494,489,495,385
490,496,489,494,375
490,497,490,494,384
488,496,490,495,393
487,492,488,494,440
487,490,489,495,501
487,495,489,495,565
488,491,491,494,627
488,490,491,496,635
489,487,489,496,622
487,493,490,496,552
489,485,492,495,451
488,473,489,494,400
488,482,488,496,373
487,494,487,494,379
487,497,488,494,385
487,491,487,494,412
487,493,489,495,464
487,491,489,494,522
488,489,488,495,598
486,489,489,494,635
489,494,490,495,630
488,497,490,497,599
488,499,490,498,509
490,504,491,498,422
488,498,491,497,390
487,499,491,495,377
489,490,491,495,383
487,485,489,494,394
487,485,488,493,433
488,487,489,495,489
487,486,489,493,555
487,487,489,495,620
488,488,487,495,633
487,487,489,496,624
486,488,489,497,567
488,491,491,496,466
488,491,490,496,407
488,490,488,494,374
486,485,489,493,378
488,495,489,494,386
488,505,489,493,408
486,509,491,496,457
488,516,490,496,516
487,521,490,497,590
487,516,489,497,632
486,476,490,495,630
486,471,488,494,612
489,473,491,495,522
489,476,490,493,428
487,480,491,493,392
488,485,488,493,377
488,485,487,493,379
487,490,491,495,388
488,492,491,495,426
488,494,490,496,481
488,493,490,496,544
487,487,488,496,615
487,483,488,495,635
488,488,488,496,629
488,494,489,496,577
488,494,490,494,477
488,492,491,495,413
489,489,489,494,379
489,483,490,495,375
486,480,489,493,382
487,491,489,493,397
487,494,491,495,448
487,495,491,494,507
487,498,487,495,578
488,487,486,495,631
487,486,487,495,630
487,489,488,493,619
489,494,489,495,536
489,496,490,494,439
489,499,490,494,395
488,500,489,494,376
488,497,489,495,376
487,490,489,495,386
487,492,489,497,417
487,496,490,494,472
488,496,489,493,532
488,492,490,494,612
488,491,489,495,635
488,500,488,494,627
488,489,488,494,588
489,475,487,493,488
487,471,489,492,414
488,488,489,492,383
489,489,488,494,373
488,490,491,495,382
487,488,491,495,395
487,486,490,494,439
488,493,492,496,501
489,493,489,494,568
489,495,489,492,628
489,498,488,494,632
489,488,487,494,621
487,493,488,496,546
488,496,489,495,449
489,497,489,495,398
488,484,490,495,373
486,492,490,495,379
487,492,489,493,383
487,496,488,494,414
489,499,490,496,465
489,495,490,494,524
489,475,488,494,601
489,479,488,495,634
488,481,488,493,629
486,493,489,496,598
489,495,487,493,503
487,489,490,492,419
487,487,490,493,388
488,491,489,495,373
487,494,487,494,380
488,493,490,494,393
489,491,487,494,431
488,489,490,494,491
488,487,490,495,555
490,486,486,493,620
487,487,491,495,632
488,485,492,492,623
489,491,489,493,564
489,492,490,494,460
488,492,489,494,404
489,492,490,494,372
488,490,488,495,376
487,491,488,494,381
487,488,490,495,403
484,488,490,494,455
487,494,488,494,515
489,496,489,493,591
488,496,488,496,630
489,494,488,493,627
489,480,488,494,606
490,489,489,495,516
489,496,490,495,427
489,499,490,494,391
489,499,492,496,373
488,499,492,494,379
487,496,491,494,389
486,490,486,495,423
485,493,487,492,482
485,496,489,493,546
487,491,487,492,615
489,479,489,494,631
487,486,490,495,623
487,481,489,493,576
492,487,491,495,471
489,495,491,494,410
490,500,490,494,377
488,505,490,493,377
489,498,488,493,383
487,472,489,494,400
490,480,488,492,449
489,475,489,493,508
490,482,488,494,578
487,495,489,495,629
487,499,487,494,630
488,500,490,492,617
488,498,488,495,531
489,486,490,493,434
489,478,489,492,394
489,485,488,492,374
488,489,490,493,376
488,489,489,493,388
489,488,488,495,417
488,489,489,493,473
488,491,490,494,535
487,488,494,494,611
488,493,488,495,634
487,499,487,496,625
484,497,487,493,584
487,492,487,493,484
489,482,488,493,412
491,484,489,492,382
491,487,488,494,372
490,488,490,493,383
488,488,490,493,396
488,490,490,492,442
489,489,493,494,502
488,490,489,493,569
490,496,490,495,627
488,496,488,495,630
489,496,488,495,617
489,500,489,496,543
488,493,490,493,445
489,478,488,493,397
489,484,489,494,375
487,488,490,491,378
487,489,489,491,385
487,491,489,491,412
489,490,489,494,465
488,489,487,493,524
488,487,489,492,601
488,486,489,494,632
488,487,489,494,626
488,491,491,495,593
490,493,489,493,499
489,498,491,494,417
489,497,490,493,387
490,494,489,491,374
490,484,488,493,379
489,492,491,492,394
487,497,489,494,435
487,497,489,493,495
488,498,490,493,559
488,493,491,493,621
489,480,490,493,630
488,481,486,492,622
491,490,491,495,556
488,485,494,492,455
489,476,492,492,401
490,490,486,492,371
489,493,487,492,376
490,493,487,493,383
488,494,486,491,405
488,495,489,493,458
488,486,489,494,518
488,489,489,492,594
489,487,489,494,631
489,488,488,493,629
488,491,490,494,601
488,493,489,495,512
489,498,490,493,424
489,503,492,493,390
491,511,490,495,377
489,504,488,494,377
489,497,488,493,391
489,492,488,492,428
489,481,487,490,481
485,463,489,492,547
486,479,488,491,618
488,487,490,493,631
486,484,490,494,623
487,482,491,493,571
490,490,490,493,467
491,492,490,493,406
490,492,490,491,371
489,488,491,492,374
491,488,488,493,381
491,489,488,492,400
490,491,489,492,452
490,493,489,494,510
489,491,489,492,583
487,491,491,494,632
488,492,489,492,630
490,492,489,491,614
487,489,491,495,526
490,490,490,493,431
488,488,490,493,391
488,491,489,493,373
487,489,489,493,377
486,488,489,491,386
489,489,490,493,420
489,489,489,492,476
489,490,490,492,538
490,490,489,491,612
490,490,489,492,631
490,487,490,492,625
489,490,488,493,579
490,492,490,491,480
490,490,491,492,410
489,490,490,493,378
487,491,491,492,374
488,489,490,493,383
490,492,488,493,394
488,490,488,492,443
488,490,489,492,504
488,488,488,492,568
487,487,489,491,628
488,488,489,493,630
490,488,487,493,618
489,491,492,493,540
490,494,491,493,442
490,495,490,492,395
489,494,492,491,375
491,495,493,491,376
489,493,488,493,382
488,480,489,494,409
488,485,491,493,467
489,488,491,494,526
489,488,490,492,605
486,487,491,493,631
489,490,488,491,626
491,490,488,491,590
492,492,489,493,494
491,491,489,493,414
489,489,489,493,382
490,491,489,491,370
488,490,490,493,379
488,489,490,492,392
488,491,490,492,434
489,490,489,492,495
488,489,491,493,559
488,487,491,490,623
490,490,488,492,631
490,491,489,493,619
489,495,492,491,555
488,495,491,494,453
489,497,489,493,400
489,497,491,492,373
488,485,490,492,376
489,483,489,491,384
490,489,490,494,404
489,490,491,493,460
490,491,490,493,518
489,489,490,493,594
486,487,490,494,631
488,489,490,493,627
490,487,488,493,599
489,489,490,493,507
492,493,491,493,420
490,494,491,492,388
491,491,490,491,374
491,492,491,492,378
491,489,490,493,390
489,489,490,493,427
488,489,492,492,484
489,487,493,492,550
488,493,490,491,617
491,489,493,491,631
490,487,489,493,620
491,494,488,491,567
491,493,490,492,463
489,491,490,492,404
491,488,489,493,372
487,487,491,493,371
487,488,490,491,382
490,490,493,492,400
487,493,491,493,451
489,494,489,492,510
489,492,488,492,581
489,493,490,492,628
489,488,491,493,626
491,488,491,493,608
491,490,489,494,520
489,491,490,492,430
489,491,490,493,389
487,489,488,491,373
488,491,490,491,378
489,494,490,491,386
488,494,491,491,421
488,489,491,493,476
490,487,489,492,539
491,492,488,492,610
491,493,490,492,629
489,492,492,493,621
489,493,492,494,576
489,490,490,491,474
490,487,491,492,408
490,488,490,491,376
490,491,490,491,372
490,489,490,491,379
490,489,489,491,397
489,491,490,492,442
489,490,490,492,504
489,489,490,492,571
488,489,491,492,626
489,491,491,491,629
489,489,491,493,615
490,493,491,494,532
489,490,490,492,437
491,491,490,491,392
490,490,490,491,370
489,486,491,490,376
490,491,493,492,382
490,492,489,491,413
488,492,491,492,468
490,492,491,492,528
489,493,491,491,606
490,493,489,492,631
490,492,490,492,621
491,488,492,492,586
490,487,490,492,487
490,490,491,492,412
489,490,492,493,381
491,490,489,491,372
488,491,491,493,377
488,488,489,491,394
488,492,489,490,436
490,491,490,491,496
490,489,491,491,562
490,487,490,492,621
491,488,491,491,630
490,492,489,493,618
489,490,493,492,548
490,492,492,492,448
490,491,491,491,399
491,493,490,493,370
488,492,488,492,375
491,490,488,492,382
490,490,489,492,406
489,489,490,493,461
489,488,490,491,519
488,489,491,490,598
490,490,492,491,633
490,490,491,490,627
490,492,490,491,597
490,492,492,493,503
490,492,491,492,419
489,491,492,492,384
489,489,489,493,372
488,490,491,493,377
486,489,493,492,390
487,488,491,491,431
489,492,490,493,488
492,492,490,491,554
492,491,488,490,620
492,490,489,491,630
491,493,492,491,623
489,490,490,493,565
490,493,491,493,459
488,492,491,493,404
490,492,492,492,372
490,490,492,491,375
490,490,492,492,381
489,492,488,490,404
488,491,490,492,455
491,493,490,492,513
490,492,490,492,586
490,492,490,493,631
491,490,489,492,628
489,488,489,493,607
491,490,492,492,518
491,490,491,492,428
490,492,490,491,390
491,491,494,494,373
490,491,489,492,378
490,493,492,493,385
489,490,491,493,422
488,490,494,493,479
489,492,491,492,542
490,491,489,491,616
489,492,490,493,630
490,492,490,491,623
491,492,489,492,575
493,492,490,491,472
491,492,492,492,408
490,491,493,493,373
490,491,490,491,373
490,492,490,493,382
489,492,491,492,399
489,492,491,491,447
489,490,490,492,505
490,491,489,490,575
488,490,492,490,627
490,490,490,493,628
489,489,491,493,613
489,491,491,491,532
491,492,491,492,437
490,491,491,491,392
490,492,494,491,374
490,493,490,490,377
491,493,488,491,384
489,491,492,493,415
490,490,489,491,471
489,491,491,492,532
488,490,490,493,607
488,489,490,493,633
489,491,491,491,624
490,491,490,493,582
490,494,490,491,483
490,494,491,491,413
490,492,491,491,379
491,492,489,492,371
490,491,491,490,381
490,492,492,493,392
488,492,490,490,438
488,491,493,493,500
490,492,490,492,566
491,493,491,490,626
489,491,492,493,630
490,491,490,491,618
489,491,493,492,542
490,490,494,492,446
490,494,489,493,397
489,492,489,490,374
490,492,491,493,376
489,491,489,492,383
489,494,491,490,411
490,493,490,491,464
490,491,490,491,522
490,491,489,492,599
488,492,489,493,630
490,493,490,491,625
489,492,492,494,591
489,492,493,492,500
490,493,491,491,417
491,492,492,492,385
490,493,493,492,371
489,492,490,491,378
491,490,491,491,389
492,488,488,492,431
491,493,492,492,491
489,489,494,492,555
491,493,488,491,620
489,494,491,492,632
490,494,491,491,622
490,494,491,491,556
489,492,491,492,457
490,492,491,492,401
490,491,489,491,371
492,493,491,492,373
489,493,489,493,382
490,490,490,493,403
492,490,490,491,456
489,492,490,491,515
490,492,491,490,592
489,495,491,491,631
491,492,490,492,627
491,491,493,491,604
489,490,491,493,512
492,492,491,491,425
490,492,491,492,387
489,494,491,493,373
489,493,494,491,376
490,490,492,490,388
490,496,489,492,424
489,494,489,491,481
490,492,490,492,545
490,490,488,492,615
491,493,491,490,631
489,492,492,493,623
491,493,490,493,571
489,493,492,492,468
491,493,492,492,407
490,494,491,491,375
491,495,491,492,371
489,493,490,492,380
488,494,491,492,397
490,492,491,493,448
490,493,491,493,507
491,493,491,493,580
491,493,490,493,629
489,493,490,492,627
490,494,490,490,615
491,495,491,491,527
491,493,491,492,433
491,493,491,492,392
491,492,490,491,374
490,494,491,492,374
489,493,491,492,384
488,492,492,493,417
488,491,492,491,474
489,492,492,491,536
489,492,490,493,608
490,494,489,491,631
491,493,490,492,622
490,491,490,492,580
491,492,491,492,482
490,493,491,492,410
490,491,491,491,379
492,493,492,491,372
490,492,492,490,380
490,493,492,490,396
491,493,493,493,439
492,495,492,491,501
490,495,490,492,566
490,493,489,492,624
489,491,492,494,629
489,490,493,492,616
492,492,493,493,542
490,493,491,492,442
491,493,492,491,397
491,494,491,491,373
491,492,491,491,375
489,492,491,491,381
490,491,490,491,411
490,498,489,492,464
491,495,490,492,524
489,494,491,493,601
488,493,492,492,633
490,492,490,493,622
491,493,491,491,587
489,491,493,492,495
491,493,494,493,415
491,494,490,491,382
491,492,489,490,374
491,494,491,492,377
489,493,489,491,391
489,493,492,491,434
490,492,492,491,492
490,493,491,490,558
489,492,490,493,622
491,493,490,491,631
490,494,490,493,618
491,492,489,494,552
491,493,492,493,453
489,492,490,492,402
490,494,492,493,372
491,492,490,493,376
490,495,491,490,383
491,495,492,490,407
491,494,491,492,457
491,492,492,492,516
491,492,490,492,591
489,492,491,492,632
488,493,491,492,626
489,495,492,492,600
489,494,493,492,511
492,495,492,492,421
490,495,492,493,386
489,492,491,490,374
491,494,490,491,377
491,493,490,492,387
491,492,492,490,429
491,493,490,492,483
490,493,490,492,549
488,492,492,492,617
488,492,492,491,632
491,494,491,491,621
488,494,492,491,570
492,495,493,492,464
490,494,492,491,405
491,493,491,492,371
490,492,491,492,372
489,493,492,493,382
491,492,489,491,401
489,493,492,493,451
491,493,490,492,511
491,494,490,491,584
492,494,489,491,628
491,491,493,492,629
490,492,491,493,609
491,498,491,491,522
491,492,492,492,430
491,492,492,492,391
490,496,492,493,372
491,492,490,490,378
491,494,492,493,385
489,494,489,491,419
491,493,491,491,476
490,492,491,491,536
490,494,491,490,613
490,493,491,493,632
491,492,492,492,625
491,492,494,491,580
491,497,491,491,477
491,495,491,492,410
490,495,491,493,376
489,494,489,492,370
490,494,491,490,379
490,492,491,492,394
489,492,491,492,442
490,492,491,491,504
491,492,490,492,572
490,495,489,493,626
489,494,490,491,630
492,493,489,492,616
493,494,490,492,536
491,494,492,492,441
491,493,491,493,396
492,496,492,494,371
490,495,493,493,377
491,494,491,491,385
490,493,492,493,410
490,491,490,492,469
491,495,491,493,528
490,494,489,492,605
491,493,490,493,631
490,493,491,493,623
490,493,492,494,590
492,495,491,492,492
491,494,493,491,414
492,494,492,492,383
490,494,491,491,373
491,494,490,491,379
490,493,494,492,391
491,492,490,491,435
489,493,493,492,495
489,490,491,493,559
489,492,490,493,621
489,492,493,492,629
490,494,491,491,621
490,494,490,493,548
492,495,492,492,451
491,494,490,492,399
492,494,490,492,372
489,494,492,491,374
489,492,491,491,383
492,495,492,493,407
490,495,492,493,460
490,494,491,492,519
491,495,491,491,596
491,492,491,493,631
492,492,490,492,627
490,494,492,493,596
490,491,490,493,506
492,494,491,492,420
491,493,492,491,387
492,493,493,493,374
491,492,491,492,376
490,492,492,491,390
490,494,490,491,430
491,495,490,491,485
491,494,492,492,550
489,493,489,491,618
490,494,492,493,629
489,492,492,493,621
489,492,493,493,565
491,493,491,492,461
491,494,492,491,405
490,494,491,493,372
491,496,491,491,373
491,494,490,492,381
491,494,490,492,400
491,493,491,491,453
490,493,491,491,511
490,492,490,491,584
488,494,492,492,631
490,495,491,490,628
492,495,490,491,610
489,494,493,493,520
492,495,492,491,428
490,493,493,492,389
490,492,491,493,372
490,494,491,493,378
490,493,491,492,385
491,493,493,491,423
491,493,491,493,479
490,493,494,492,541
491,492,489,491,613
492,494,488,492,633
491,496,490,493,622
489,493,490,490,579
492,495,492,493,473
490,494,491,493,409
490,494,492,492,377
490,493,494,491,374
489,494,491,493,382
491,494,489,492,397
489,495,490,491,444
490,493,491,492,505
489,492,490,493,572
489,492,490,491,628
491,494,492,492,631
490,492,490,493,617
491,496,492,491,534
491,495,492,492,438
491,493,491,491,394
490,493,494,491,372
492,493,491,490,377
493,493,491,492,383
490,493,492,494,413
489,494,492,493,469
489,494,491,492,530
488,495,491,491,605
488,492,492,491,632
491,494,490,492,623
491,492,490,492,585
493,493,492,492,489
490,494,491,492,413
490,493,492,493,380
492,494,490,491,372
489,494,492,491,379
489,494,492,491,394
490,496,491,491,436
489,493,491,492,497
491,493,491,491,564
495,492,490,491,622
501,492,492,493,630
504,492,492,493,619
503,495,490,491,548
495,494,492,493,447
487,494,491,492,397
485,495,491,491,373
488,495,490,492,374
491,492,489,492,383
489,493,490,492,406
488,494,491,492,463
489,493,491,492,520
489,493,492,492,598
489,493,493,492,632
490,494,492,491,624
489,493,494,491,596
492,496,494,493,501
492,496,494,491,417
491,494,492,492,383
490,492,492,493,372
490,493,491,491,379
489,493,492,493,389
492,493,489,490,432
491,496,493,492,488
490,494,493,492,555
491,489,492,494,618
489,493,490,493,630
491,497,491,491,623
490,493,491,494,560
490,492,492,493,459
490,496,490,494,405
491,494,490,492,372
490,493,492,493,374
489,491,491,491,384
491,494,490,491,406
492,494,490,492,455
490,493,491,492,514
490,492,491,492,589
489,492,489,494,632
491,494,489,492,628
490,494,493,491,607
489,495,494,492,517
490,494,493,492,427
491,494,492,491,390
492,494,492,494,373
492,494,490,492,376
491,493,492,492,385
490,492,491,494,423
492,495,492,492,480
491,494,493,493,544
491,491,492,492,616
490,494,491,491,632
491,494,491,491,623
491,493,493,494,573
490,493,492,492,470
490,494,493,493,407
490,494,492,493,373
490,493,491,493,372
489,493,493,493,382
489,494,492,492,397
492,493,492,491,448
490,493,491,492,506
491,494,491,491,578
491,492,493,491,627
491,493,490,493,628
490,496,491,491,612
490,493,492,492,532
490,495,491,493,434
491,493,492,493,394
490,494,494,492,373
489,494,491,493,375
489,497,491,491,385
489,492,492,494,417
492,492,488,491,472
490,492,491,491,532
489,493,490,493,610
491,495,490,493,632
489,494,491,492,623
491,492,495,492,583
491,497,491,492,485
492,495,491,492,412
491,495,492,492,381
489,493,492,492,372
492,493,491,491,381
490,494,491,493,392
489,492,491,493,439
491,494,492,493,500
490,493,491,492,565
491,494,492,491,626
489,491,492,493,632
491,494,490,492,618
493,494,490,492,543
491,493,491,492,446
490,494,492,492,396
490,494,491,491,375
491,493,492,493,376
490,493,492,492,384
490,494,493,491,410
490,492,491,493,463
490,493,491,491,522
489,493,492,491,601
491,492,490,493,630
491,492,491,493,624
489,493,492,494,590
489,492,491,492,500
491,494,492,492,417
491,495,491,493,386
491,496,493,491,374
492,496,490,491,378
491,494,491,492,391
488,493,493,492,432
490,493,493,493,492
490,493,492,494,556
489,493,491,493,620
490,494,493,492,632
490,492,491,493,620
491,496,492,491,556
491,494,493,492,457
491,494,492,491,403
492,493,491,492,372
493,491,492,491,376
491,490,491,493,382
490,493,490,491,405
489,493,492,493,458
488,493,490,492,516
489,494,491,491,592
489,494,493,491,630
489,493,493,492,626
492,495,492,493,605
490,493,490,494,511
491,494,490,492,426
490,492,492,493,388
490,493,489,491,375
489,494,491,491,376
491,492,492,491,389
492,493,489,491,426
492,494,490,491,482
490,494,490,492,546
490,494,490,493,614
491,494,491,492,632
489,494,492,493,623
490,493,493,493,572
491,493,494,492,467
491,493,491,493,408
492,495,490,494,372
490,494,490,492,373
491,493,491,492,381
491,493,490,493,399
491,494,492,494,449
491,495,491,492,511
490,494,491,492,580
491,493,490,492,631
490,494,491,491,630
492,494,490,491,614
493,495,491,494,527
490,493,490,492,432
492,494,492,491,393
490,492,492,494,372
490,492,491,493,377
490,495,492,492,386
491,495,491,492,419
490,493,494,492,473
490,495,490,492,537
490,493,489,492,611
491,491,491,492,631
490,492,492,492,625
491,491,490,494,579
492,496,491,491,480
490,494,491,493,411
490,494,492,492,380
490,495,492,490,374
491,495,490,493,379
489,493,489,491,396
492,494,492,492,441
491,493,492,493,503
492,492,493,494,567
489,495,490,494,625
490,495,491,493,632
491,496,492,493,615
491,493,491,491,541
491,493,492,492,443
490,493,491,492,397
491,493,493,493,373
488,493,490,494,375
490,495,491,491,383
489,493,492,494,411
490,493,491,493,466
490,493,490,492,526
491,492,490,491,605
492,494,491,493,631
489,494,490,492,625
490,493,490,492,589
492,493,491,492,495
491,494,491,492,415
489,494,491,492,383
489,493,493,490,373
491,491,494,491,380
491,493,493,492,393
491,497,489,492,435
491,494,490,492,493
490,494,490,492,558
490,493,491,492,620
490,492,491,494,630
489,493,492,494,620
490,493,492,494,554
492,494,491,493,453
490,493,490,492,399
490,494,491,491,374
491,494,492,491,375
491,490,491,492,382
491,493,493,491,407
490,491,491,494,461
491,495,489,493,516
490,493,492,493,594
489,494,493,492,632
490,495,491,491,628
491,495,492,493,598
490,494,493,492,510
491,493,491,492,421
491,494,490,493,387
490,493,490,493,373
490,493,493,492,379
491,494,491,493,388
489,492,491,491,427
490,494,491,492,485
490,494,490,492,550
490,494,490,491,618
491,494,492,492,631
491,492,491,493,624
491,495,493,493,566
490,494,491,492,464
490,494,491,494,406
490,493,492,492,373
492,494,492,491,375
490,492,491,493,381
492,494,490,490,402
492,494,491,493,451
491,493,493,492,511
491,494,489,493,584
490,497,492,493,629
489,494,490,492,628
491,494,493,491,611
489,493,493,492,524
490,493,492,492,430
490,494,491,493,390
491,495,491,491,373
490,493,493,492,375
491,493,492,492,385
490,492,491,494,420
490,492,491,491,477
491,494,492,493,539
489,492,490,492,611
490,494,491,491,633
491,494,491,492,624
492,492,492,492,580
490,492,494,492,477
491,496,491,493,410
489,495,491,493,375
486,493,491,493,372
488,494,493,493,382
490,494,492,491,398
491,492,490,492,442
491,493,491,492,505
491,493,492,491,572
492,492,490,492,626
491,488,493,493,629
490,491,491,491,617
492,497,491,494,536
491,496,491,492,441
491,495,492,492,395
490,495,493,492,374
489,494,491,492,377
490,492,493,493,384
492,493,490,493,415
491,495,490,493,467
492,493,491,493,528
490,493,492,494,603
489,492,489,492,632
492,494,492,491,626
490,492,491,493,588
492,495,491,492,491
491,495,492,492,414
491,493,490,493,381
492,493,490,493,373
490,495,491,493,377
490,494,490,492,394
490,492,492,493,436
490,493,491,493,496
490,492,491,493,562
491,491,490,493,624
491,493,492,494,630
490,494,489,492,618
492,494,490,492,549
492,493,492,493,450
491,493,492,492,400
492,493,492,494,370
493,491,490,493,377
491,493,492,492,384
491,495,492,491,409
491,494,491,494,461
491,495,492,492,519
491,492,495,492,598
489,491,491,493,630
491,494,492,493,625
490,494,495,494,596
490,495,493,494,507
493,495,493,492,419
490,495,491,493,385
490,493,491,491,374
492,495,490,492,379
492,494,490,493,388
492,492,492,492,431
490,493,491,492,485
490,494,491,492,551
490,492,491,493,618
490,494,493,493,632
491,494,493,491,620
490,490,493,491,567
492,496,491,494,460
491,494,491,491,404
491,493,491,492,371
492,492,492,493,373
489,495,490,491,384
490,494,492,493,403
492,492,491,492,454
490,491,488,492,512
490,493,490,491,586
491,495,491,492,629
492,493,492,493,628
490,492,490,493,607
488,494,493,492,518
490,493,492,492,429
491,493,492,493,391
491,493,493,493,375
492,491,491,491,378
491,493,492,493,386
489,494,490,491,423
492,494,490,493,478
490,494,491,493,540
490,494,492,493,615
489,493,492,493,632
490,494,490,493,624
490,493,492,494,576
492,494,492,492,474
492,495,493,493,409
491,492,491,491,377
492,492,492,493,372
492,492,491,492,381
491,492,491,492,397
491,492,491,493,445
490,493,492,493,507
491,493,490,493,574
490,493,490,493,627
490,494,492,491,631
492,494,492,491,616
492,493,494,491,534
492,494,491,494,439
491,494,490,492,394
490,495,492,494,372
490,492,491,493,377
490,493,492,492,386
490,493,493,493,414
490,492,492,493,471
490,494,492,493,531
490,493,490,492,609
492,493,490,493,631
492,492,492,493,623
492,494,491,491,583
491,493,492,492,488
492,494,492,493,414
490,493,492,492,382
491,494,493,491,374
491,494,491,491,381
492,492,492,493,392
493,493,490,491,438
490,493,492,493,498
491,493,491,493,562
490,491,490,494,622
490,493,492,493,631
491,491,493,492,620
490,491,491,493,545
491,497,492,493,448
491,496,491,492,399
492,494,490,492,374
490,493,492,492,375
491,491,491,491,384
491,492,493,495,408
490,491,491,492,463
490,493,490,492,521
490,494,491,492,598
490,494,491,492,633
490,491,493,493,626
492,491,492,492,594
493,493,490,493,502
493,495,492,492,418
489,492,492,493,387
492,495,492,495,374
490,493,491,492,378
490,494,491,491,391
491,496,491,492,432
492,495,491,493,488
490,493,492,493,554
491,492,490,492,619
490,494,491,494,630
490,493,492,494,620
490,493,492,494,562
490,494,492,492,459
492,494,493,492,404
491,493,491,493,373
490,496,490,492,375
491,493,490,492,383
491,493,489,492,404
489,493,494,493,455
489,491,491,492,514
490,494,490,493,588
488,492,492,493,631
490,494,491,491,628
491,495,491,491,607
490,493,491,494,517
491,495,491,493,426
490,493,491,493,389
491,491,491,492,373
491,492,490,494,377
489,494,490,492,388
491,493,492,494,425
491,494,491,493,481
491,494,493,493,545
491,494,491,491,616
492,493,492,492,631
490,493,493,493,621
491,493,492,492,575
492,494,492,493,470
491,494,492,493,407
490,493,492,493,375
490,494,490,492,373
490,494,492,492,381
490,492,492,490,402
491,494,491,492,449
491,492,491,492,508
491,490,490,492,576
491,488,495,491,629
491,493,491,493,629
491,497,488,492,613
489,495,494,494,530
490,496,493,492,436
491,496,492,492,392
490,492,492,492,376
491,491,493,492,377
491,491,491,493,384
491,491,490,494,416
490,492,490,493,472
491,494,491,491,534
489,494,492,493,609
492,493,490,491,632
491,494,492,491,625
492,494,491,491,584
493,494,490,492,483
491,494,494,492,412
491,494,491,492,381
490,493,491,493,372
489,494,492,494,381
489,493,493,493,395
489,492,494,491,439
491,494,491,493,501
490,495,490,494,565
490,494,490,492,626
491,493,490,493,629
490,492,491,493,617
491,496,492,491,545
489,493,492,494,446
490,494,491,492,398
490,495,493,492,375
489,494,492,491,378
491,494,490,492,383
490,493,490,492,411
492,493,492,492,465
491,493,491,492,523
490,492,491,494,600
489,492,491,493,631
491,493,490,492,627
490,494,493,494,591
491,492,492,492,498
491,495,492,492,418
491,493,492,492,385
492,493,490,492,373
491,495,492,491,381
489,492,491,494,392
492,494,491,493,433
490,491,493,493,492
490,494,491,493,557
491,495,492,493,619
490,493,492,492,631
491,494,493,493,622
491,494,489,493,557
491,493,492,493,456
491,491,492,493,403
493,495,491,491,372
490,493,492,492,375
490,492,492,491,385
490,494,492,491,407
491,494,491,492,458
491,492,491,493,515
490,493,490,492,590
490,493,492,492,630
489,490,493,493,625
489,494,491,494,603
490,493,493,493,513
492,494,492,491,426
491,494,492,492,391
491,493,491,494,374
492,494,490,492,377
491,493,491,493,388
492,492,490,493,425
491,494,491,492,483
490,493,491,492,548
491,492,492,492,615
490,494,492,492,632
491,494,492,492,623
492,494,491,494,569
490,494,492,493,468
491,493,492,493,406
491,493,492,493,372
491,493,491,493,373
489,493,492,493,384
491,493,489,493,402
489,495,490,493,450
491,494,492,493,510
491,494,492,492,581
492,494,492,492,628
491,490,492,494,628
491,496,489,492,610
490,494,491,493,528
492,495,491,493,432
490,492,493,492,393
490,494,494,493,375
490,495,491,493,376
490,493,491,491,387
488,490,492,494,420
491,492,491,492,474
490,493,491,492,535
490,492,490,493,612
491,496,489,493,631
490,494,490,492,623
491,494,493,493,581
491,495,492,491,481
490,495,492,492,412
491,493,492,493,378
493,495,490,492,374
490,495,492,494,380
490,492,491,494,394
490,492,491,493,442
491,493,492,493,503
490,493,491,493,569
491,493,494,493,627
490,490,494,493,631
492,494,489,492,617
492,495,491,493,539
492,494,493,493,444
490,496,492,493,396
489,492,494,490,376
491,490,494,492,377
490,496,489,492,384
491,494,492,492,413
490,493,491,493,465
491,493,491,492,526
489,493,492,493,604
492,492,490,493,630
490,492,491,493,623
489,494,492,492,592
493,495,492,493,494
491,495,492,493,416
490,494,492,492,384
491,495,493,491,373
492,493,492,491,380
491,492,491,493,391
489,493,491,492,434
490,493,491,492,494
490,492,490,493,557
489,492,491,493,619
489,494,492,493,630
490,492,490,493,618
490,495,493,492,551
490,493,492,492,453
491,493,491,492,401
492,495,491,492,372
492,493,491,492,377
491,494,491,493,382
490,494,491,492,408
489,493,493,494,460
489,494,492,493,517
491,495,493,492,594
490,492,491,494,632
492,493,490,493,626
490,492,490,493,599
492,494,490,493,508
491,494,491,492,421
491,493,491,494,388
489,494,491,492,376
490,494,493,492,378
491,492,492,492,392
491,495,491,492,429
492,494,491,492,484
489,494,491,493,549
489,492,490,492,616
492,490,496,491,633
490,494,490,495,621
488,494,492,494,567
489,495,493,493,465
491,494,492,492,407
492,494,492,494,372
491,491,492,492,376
492,493,490,492,383
493,493,489,492,402
493,493,492,493,454
491,493,491,492,511
491,494,490,491,584
490,493,492,495,631
490,493,493,491,629
491,492,494,491,611
491,493,496,495,522
491,492,494,492,430
491,495,489,493,391
492,497,489,491,376
491,495,489,492,376
492,493,490,492,386
490,496,492,491,419
491,492,491,491,475
491,491,491,492,538
489,490,491,493,610
490,493,492,493,631
490,493,490,493,622
490,495,492,491,579
491,493,491,492,478
490,494,492,492,412
491,494,490,491,380
492,495,491,491,373
489,493,492,492,383
491,494,491,493,396
489,494,491,491,445
490,493,491,492,503
490,493,491,491,572
491,494,490,491,625
489,491,492,493,628
491,493,489,493,615
489,492,490,492,535
491,492,492,490,439
490,494,491,492,395
491,492,494,492,375
489,491,491,493,376
492,495,488,492,385
489,494,492,494,416
490,494,491,493,468
489,493,491,491,527
489,492,492,492,605
491,491,492,491,631
491,493,491,494,622
488,491,491,493,585
490,491,492,492,491
491,494,491,492,415
491,492,491,493,383
492,495,492,493,372
490,492,493,494,380
490,492,491,494,393
489,492,492,492,437
489,491,493,492,495
490,491,492,491,561
490,491,489,492,624
490,495,490,492,631
491,494,490,491,619
490,495,492,491,548
491,494,491,492,450
492,495,492,492,399
489,493,490,490,375
490,492,489,491,376
491,492,489,492,383
490,493,493,492,409
491,492,491,493,462
491,493,490,493,519
489,493,491,493,597
487,493,492,491,631
491,492,489,492,624
490,494,490,493,596
491,494,491,492,504
490,493,491,492,418
490,493,491,492,388
488,493,491,493,374
489,494,491,491,377
489,491,491,491,392
492,493,492,492,430
489,492,490,491,487
489,492,490,492,550
488,491,490,493,615
489,492,490,492,629
490,493,490,490,618
488,491,491,490,565
491,493,491,492,463
490,493,490,491,405
490,492,490,490,374
490,496,492,493,375
489,492,491,492,382
489,492,492,492,405
490,495,490,492,454
490,494,491,492,512
489,493,493,493,585
491,490,491,492,629
490,491,494,493,625
488,492,492,496,606
489,489,494,495,519
490,491,492,492,428
490,498,490,492,392
490,493,493,493,375
492,492,490,491,380
491,496,490,492,389
492,495,491,492,424
492,492,492,493,477
490,493,490,493,541
490,494,490,492,613
491,493,491,493,630
489,492,492,494,623
489,493,492,494,574
493,496,491,492,474
490,494,491,492,411
491,494,492,493,374
489,490,493,493,375
490,495,491,493,383
491,495,490,493,396
490,492,492,491,448
490,492,490,492,504
491,494,490,492,573
491,491,490,493,626
491,492,491,494,627
490,492,491,490,616
490,495,491,494,532
490,494,492,494,436
491,492,493,493,395
490,492,492,495,373
489,494,491,494,378
491,494,490,493,387
487,493,493,494,415
487,492,493,491,471
490,492,491,492,532
493,494,490,491,608
493,494,492,493,631
491,492,491,494,623
491,495,492,492,581
491,492,492,493,487
492,494,493,493,415
491,495,491,494,383
493,495,491,494,373
490,494,491,493,381
492,494,492,491,395
491,496,491,492,440
490,494,491,492,497
490,494,490,492,562
489,493,492,493,623
491,493,491,492,630
492,494,492,494,616
490,493,492,495,547
491,494,493,494,448
491,494,491,492,400
492,493,494,494,373
493,491,491,493,378
491,495,491,492,385
490,494,494,494,410
490,492,493,493,463
492,490,491,494,521
491,491,490,494,597
492,494,493,491,632
491,493,492,491,626
492,492,491,491,596
493,495,490,494,501
491,496,490,493,418
490,493,491,492,386
492,494,489,491,374
492,494,491,493,380
491,493,490,492,392
492,495,493,494,431
491,494,492,492,489
490,493,491,493,554
492,493,490,492,619
491,491,491,493,630
491,492,490,493,621
491,494,494,493,561
492,495,493,494,460
491,495,491,493,404
492,493,492,494,374
493,492,492,494,376
491,495,493,492,386
490,495,492,494,409
492,495,491,493,456
491,492,491,493,513
490,493,492,493,589
490,494,493,493,628
490,492,491,491,628
492,493,493,494,605
493,495,491,492,516
492,494,492,493,427
491,493,492,493,390
490,492,491,492,377
490,496,490,494,378
489,492,491,492,391
490,492,490,494,424
489,493,490,492,480
488,491,491,493,544
489,493,491,491,614
490,492,492,493,632
491,492,489,493,623
491,494,492,492,574
491,495,492,492,472
492,494,492,493,408
490,494,490,492,375
492,493,492,491,377
490,493,491,493,381
489,493,491,493,397
489,493,491,492,448
490,493,491,492,505
489,493,491,492,577
491,493,492,494,628
490,492,492,491,627
492,492,496,489,613
491,495,491,491,530
491,496,490,493,433
490,495,491,492,394
489,494,491,492,374
491,492,490,492,375
490,489,492,493,384
491,492,489,491,419
492,495,490,491,471
490,494,491,492,534
490,492,490,493,606
491,492,492,493,630
490,493,491,494,622
492,494,490,490,580
489,494,492,492,484
491,494,490,493,413
490,493,492,492,380
490,495,494,492,374
491,494,492,494,380
490,494,491,490,396
490,492,492,495,442
491,491,491,492,499
490,493,489,491,565
490,494,489,491,625
491,493,490,492,628
490,494,490,491,615
492,493,493,494,542
492,494,492,491,443
491,495,491,491,398
491,494,491,492,375
489,492,492,493,376
491,493,490,493,385
489,493,489,491,412
492,493,490,492,464
490,491,492,492,523
491,493,492,494,599
490,493,491,492,629
490,493,493,493,625
491,493,490,491,591
493,496,492,492,498
491,496,492,492,417
490,494,492,492,385
493,495,493,495,374
489,492,490,492,381
492,491,491,492,391
491,495,492,491,433
490,493,491,492,491
490,493,490,493,555
491,494,490,495,619
490,494,491,493,629
491,492,490,493,617
490,494,491,493,558
490,493,492,492,457
490,494,491,493,402
491,494,491,491,373
490,492,491,493,378
490,493,492,493,383
488,493,493,494,408
490,493,491,492,456
490,493,491,492,516
491,491,493,492,592
489,491,492,492,629
491,494,493,492,626
489,493,489,493,603
490,495,492,493,510
491,495,491,493,424
491,494,492,492,390
491,495,493,491,374
490,494,492,491,380
490,494,491,493,388
492,495,492,491,427
490,492,491,492,483
489,491,494,492,547
490,494,490,491,614
491,496,490,492,630
490,493,491,491,621
492,495,491,493,568
491,494,491,493,469
490,493,491,491,407
490,493,492,491,376
491,492,491,494,375
492,493,489,491,382
490,494,492,492,401
491,493,491,493,450
491,493,490,492,506
490,493,492,492,581
493,494,492,495,628
491,492,491,494,625
491,494,491,491,613
491,496,491,492,526
491,495,492,491,431
492,493,492,492,393
489,492,492,491,375
492,494,493,493,378
490,492,493,492,387
493,494,490,491,419
492,496,490,492,474
490,492,491,493,536
491,491,489,491,608
490,494,492,493,630
491,492,491,493,621
490,493,490,494,578
491,493,492,493,483
491,494,491,493,412
490,494,491,492,381
489,492,492,494,375
490,493,491,494,382
490,493,492,494,395
492,494,492,493,444
492,491,491,492,501
489,493,491,493,568
489,492,491,494,626
490,493,491,492,629
491,493,493,491,617
490,493,491,494,539
492,493,492,492,439
490,491,492,493,397
491,494,490,492,374
492,493,490,493,375
490,492,492,492,387
491,495,490,493,411
490,494,490,492,467
491,493,492,493,527
489,492,491,493,601
490,492,492,493,630
490,493,491,492,625
489,494,493,491,588
493,495,493,493,495
491,494,492,493,416
490,493,493,492,384
490,494,490,492,374
491,495,491,492,382
491,492,491,493,393
490,495,493,492,437
489,493,490,491,493
490,493,491,491,557
491,492,491,494,619
491,494,490,493,628
490,495,491,491,618
490,492,493,495,554
490,492,494,492,453
490,493,493,493,402
490,494,491,494,377
492,494,492,492,376
490,493,491,492,383
491,493,489,493,406
491,492,492,493,458
491,491,490,492,518
491,493,490,493,595
492,493,489,493,630
491,494,491,492,627
492,494,490,491,601
491,496,492,492,507
492,494,492,493,423
491,495,491,494,387
491,496,492,492,375
492,494,490,492,381
492,494,489,492,390
492,495,490,491,428
489,493,491,493,485
491,494,490,493,547
491,492,492,492,617
492,491,492,495,630
491,492,489,494,620
491,493,493,493,571
492,494,491,493,465
492,494,493,491,405
490,495,494,493,376
489,495,492,492,377
491,495,492,491,382
489,493,493,491,404
492,494,493,492,452
491,493,491,493,510
491,492,491,494,582
490,492,491,494,629
490,493,491,493,625
491,495,491,491,608
491,492,492,492,523
491,494,492,492,431
491,493,491,493,394
491,492,490,493,374
490,492,492,492,381
490,491,491,493,389
492,495,490,492,422
491,493,493,492,477
489,495,492,492,540
490,495,492,492,609
489,493,493,492,633
490,494,492,493,622
488,494,490,492,578
490,494,491,493,480
492,494,491,491,412
493,495,493,491,380
492,493,491,493,376
493,493,490,493,382
490,493,492,492,398
489,493,494,492,445
491,491,494,492,501
492,494,489,492,572
491,493,490,494,626
492,493,491,494,626
491,490,493,493,614
492,493,490,493,536
491,495,490,493,440
490,494,491,493,397
490,492,490,491,375
493,494,493,491,378
492,493,492,492,387
492,494,492,492,414
492,494,492,492,467
491,494,491,493,530
491,494,490,495,602
489,493,492,493,631
491,494,492,494,625
492,495,491,495,583
491,493,491,493,492
491,494,491,493,415
492,494,491,493,380
491,493,491,493,374
489,493,492,494,381
492,494,490,491,391
490,493,492,492,438
491,493,491,493,496
490,493,492,493,561
489,492,492,495,622
490,494,492,492,631
491,492,491,493,616
490,493,494,494,550
492,492,494,493,449
491,493,494,493,402
490,494,491,493,377
490,493,491,494,376
489,492,490,492,386
491,494,491,493,408
493,494,492,492,461
491,493,491,493,519
489,491,490,493,595
490,495,490,492,630
490,495,492,493,624
489,492,491,491,598
492,496,492,492,505
492,495,492,493,422
492,494,492,492,388
491,493,491,494,373
492,494,491,492,380
490,495,492,493,390
489,494,493,492,431
490,493,492,492,487
490,492,492,493,549
