Sensor0,Sensor1,Sensor2,Sensor3,Sensor4

493,399,489,491,490
491,452,491,493,490
492,510,490,292,493
492,492,377,491,492
492,493,384,489,491
491,494,430,490,492
491,493,488,490,493
490,492,555,489,492
492,493,623,492,492
491,491,636,491,494
491,492,625,492,495
492,491,568,493,494
492,492,461,492,494
492,493,401,490,492
491,493,369,490,494
492,491,369,490,493
492,493,380,490,493
492,494,402,490,493
492,493,454,491,493
491,493,515,491,494
490,493,589,491,495
492,492,635,492,494
491,492,632,492,493
491,493,612,494,494
494,493,520,492,494
493,494,427,492,494
493,494,387,491,493
493,495,370,490,493
493,492,377,491,493
493,492,383,491,493
492,492,423,491,490
493,493,480,491,494
491,492,544,492,491
489,493,617,492,492
491,493,635,491,492
493,494,627,492,495
491,495,577,490,494
491,492,473,492,494
492,492,406,491,494
493,492,375,491,494
492,491,372,492,492
493,494,378,492,493
490,492,398,490,494
492,492,445,491,492
491,493,506,491,492
491,494,577,489,492
491,492,631,491,493
493,493,634,491,491
491,494,617,491,495
492,492,534,492,494
492,493,436,491,494
492,492,393,491,494
493,493,369,491,492
491,492,375,492,495
493,494,382,491,492
492,495,413,490,493
493,495,471,491,493
492,493,535,491,492
490,493,608,491,494
491,492,637,490,493
493,492,628,492,492
491,492,586,492,492
492,492,489,493,494
493,493,411,492,493
492,494,377,490,493
492,492,371,491,494
493,492,378,491,494
493,493,393,490,495
491,493,439,491,492
491,492,498,491,493
491,494,567,490,492
489,492,628,491,492
491,493,632,490,492
493,494,621,490,492
491,491,550,493,493
493,493,446,491,493
491,492,397,491,494
492,491,371,491,494
492,491,374,492,494
491,492,382,493,492
490,494,406,490,492
492,492,462,491,493
490,492,524,491,491
493,494,601,490,491
494,494,635,491,495
492,493,632,491,493
490,493,598,491,496
492,494,501,492,494
492,493,417,492,494
492,493,382,493,494
491,493,371,491,492
491,491,378,492,492
492,493,386,492,494
491,491,431,490,492
492,492,489,490,493
492,493,556,489,493
492,492,622,491,492
491,491,635,492,493
493,493,625,490,493
490,492,563,492,493
491,493,456,491,493
492,493,401,491,493
491,494,369,492,495
491,491,372,490,494
493,492,381,491,492
492,492,404,491,494
491,492,455,490,493
491,493,515,491,490
492,494,591,490,493
490,493,633,490,494
492,492,630,490,492
493,493,607,490,492
494,493,517,491,493
492,493,427,492,494
490,492,388,490,495
491,493,369,490,494
491,490,376,492,492
493,492,385,492,493
490,492,422,491,493
491,492,482,491,492
491,492,547,491,493
490,494,617,490,492
493,492,637,491,494
493,492,626,491,494
494,492,578,491,494
492,493,470,492,494
492,493,406,491,494
493,494,372,493,491
491,493,369,491,493
491,494,378,490,493
492,495,401,493,493
491,492,446,490,491
492,492,508,491,494
492,491,582,491,494
492,490,632,492,494
491,492,632,492,494
492,493,617,494,492
491,493,530,492,494
494,492,434,492,492
492,493,390,491,493
493,494,369,490,493
493,493,373,492,490
492,491,385,491,492
491,493,414,492,494
491,492,473,491,493
490,492,534,491,493
490,493,610,491,491
492,494,637,492,494
490,494,626,490,494
491,492,587,493,494
493,493,485,492,494
493,493,410,492,495
493,492,378,492,493
492,494,370,493,494
491,492,377,490,494
494,493,392,492,493
491,493,438,491,493
492,493,499,491,493
492,493,570,492,493
491,494,628,490,493
491,493,633,491,494
493,491,623,491,495
493,491,546,493,495
493,492,444,491,492
493,493,396,492,493
491,493,369,490,494
491,493,371,491,492
492,493,380,491,493
492,494,406,490,493
492,493,463,490,491
491,492,525,491,494
493,491,602,491,492
492,492,638,492,493
491,492,630,493,492
491,492,595,493,493
491,493,501,491,494
492,492,416,492,494
492,492,383,490,492
492,494,371,491,494
493,493,377,491,495
493,492,389,491,492
492,494,434,492,493
491,493,490,490,492
491,493,559,491,491
490,493,625,490,492
490,494,634,490,493
492,492,626,492,491
493,494,560,493,495
494,493,455,491,494
495,494,402,492,493
493,492,372,491,494
492,491,374,491,495
491,494,380,490,493
490,491,404,493,493
492,493,456,491,493
492,492,516,491,491
492,492,592,491,494
491,493,632,491,493
491,492,631,490,493
492,492,608,493,492
496,493,514,491,493
492,492,423,491,493
491,491,387,490,494
491,493,370,490,494
492,491,377,490,493
492,493,386,493,493
490,492,425,491,492
491,492,482,491,493
490,492,547,490,493
492,493,617,490,491
490,491,635,492,493
492,493,626,490,492
494,493,575,492,494
493,492,468,491,493
490,492,405,490,492
492,494,373,492,495
491,492,369,490,492
493,491,378,491,492
490,492,397,491,492
490,493,447,491,493
492,493,509,490,492
491,493,580,491,494
490,491,632,489,493
492,493,634,490,494
492,492,617,491,495
493,492,526,491,493
492,493,433,491,494
491,493,390,490,493
491,492,371,491,492
491,494,373,491,492
491,493,383,490,495
491,491,417,489,492
492,493,475,491,492
491,492,538,490,494
492,492,614,491,494
491,492,637,492,494
490,491,627,492,493
493,495,583,490,493
491,493,482,491,494
491,492,408,491,492
493,493,375,490,490
493,493,371,490,495
492,492,376,491,493
491,492,396,491,495
491,493,439,491,494
492,493,501,491,492
490,492,572,492,493
489,492,629,491,494
493,492,635,490,492
492,493,622,492,495
491,495,540,490,493
492,494,442,491,493
493,493,395,491,493
493,493,368,491,493
492,491,375,492,493
492,493,381,492,493
490,492,409,491,492
491,493,465,491,492
490,492,526,490,492
491,494,607,491,494
491,494,636,490,494
490,493,627,491,493
494,492,594,491,495
493,492,498,491,495
492,492,415,491,494
492,493,380,492,493
490,492,371,491,495
491,493,374,489,493
491,494,387,490,492
493,493,433,490,493
491,492,493,490,492
493,492,561,490,492
490,493,623,492,494
491,492,634,491,493
491,493,623,492,492
492,492,558,491,495
493,493,453,492,494
492,493,401,492,494
493,494,369,490,493
493,492,373,490,494
493,492,382,491,494
492,492,405,492,491
493,493,456,490,493
491,492,517,490,494
491,492,594,491,492
490,494,633,490,492
492,494,630,490,493
492,491,606,493,494
494,493,512,491,494
492,492,420,490,494
492,492,386,491,495
492,492,372,492,494
490,492,376,490,494
493,492,385,492,492
490,492,427,490,494
491,493,484,490,492
492,494,548,489,490
495,494,619,489,494
490,493,634,490,495
492,491,627,489,492
492,494,573,493,495
491,493,466,491,494
492,493,405,491,493
491,493,371,492,492
491,491,372,492,494
493,495,380,490,493
491,493,400,490,494
493,492,450,490,493
492,493,511,490,493
491,492,585,490,492
493,494,633,492,492
491,493,633,491,494
491,494,612,491,491
492,495,525,491,493
493,494,431,492,494
492,493,391,493,494
493,495,372,492,490
490,494,376,491,494
492,491,385,491,495
491,491,419,492,492
491,492,475,491,493
492,492,538,491,493
491,492,615,491,492
491,494,635,490,493
493,493,627,490,494
495,494,582,490,495
493,493,481,492,494
492,493,409,491,494
492,494,374,490,492
490,491,370,492,493
491,493,377,491,492
492,493,393,491,492
491,491,443,491,493
492,493,504,491,492
491,492,574,490,494
493,493,631,491,494
492,492,634,491,494
491,492,620,490,492
493,492,539,492,493
494,494,442,492,495
492,493,393,491,493
493,494,368,490,493
492,493,374,489,493
489,492,382,491,494
494,492,410,490,492
491,492,469,491,492
491,492,529,491,493
491,492,608,492,493
491,493,636,491,492
492,491,631,491,492
492,494,589,493,495
492,492,494,492,494
492,492,413,490,494
492,493,381,491,494
493,492,369,490,493
492,491,378,492,493
493,493,389,489,493
489,492,433,491,493
491,492,494,491,492
492,493,560,489,494
490,491,628,490,494
492,493,634,491,492
491,492,625,491,494
494,491,557,492,492
495,492,451,491,495
492,493,399,491,495
490,493,369,492,494
492,492,374,490,492
491,493,380,490,493
492,495,403,489,492
493,493,459,490,493
491,493,519,491,492
490,491,600,490,494
491,494,635,490,493
490,492,630,492,493
491,492,603,492,492
491,493,510,492,494
493,493,421,491,492
493,493,386,492,495
491,493,371,490,494
492,491,377,491,492
493,491,387,490,494
492,494,425,490,493
492,491,485,490,492
492,492,551,491,492
489,493,619,491,493
491,493,634,489,493
493,493,625,492,493
490,491,570,491,493
493,492,463,491,493
492,492,404,491,494
491,491,371,492,495
491,492,370,492,493
491,492,379,491,493
493,492,401,491,492
490,493,452,490,494
491,493,511,490,492
491,493,585,489,493
493,493,634,490,494
493,493,630,490,492
492,492,615,493,493
493,495,523,493,494
494,493,428,493,494
492,493,388,492,494
492,493,368,491,495
491,492,374,490,492
493,491,383,492,492
493,492,420,490,493
492,493,476,490,493
492,492,541,490,493
492,494,614,489,493
491,492,636,490,494
494,492,626,491,491
491,494,579,492,493
493,493,478,492,494
492,493,408,490,492
492,492,377,492,493
493,492,372,490,492
492,493,377,491,494
491,491,397,492,495
491,491,442,491,494
492,493,504,490,492
492,492,573,491,492
490,492,631,492,494
492,493,633,490,493
492,493,619,490,493
494,494,538,491,494
492,492,440,491,494
493,492,393,491,492
492,494,372,492,493
491,492,373,492,493
490,492,381,492,492
491,493,413,490,493
492,493,467,491,492
491,492,530,491,492
493,492,608,490,491
492,491,636,491,494
492,491,629,492,494
492,493,590,490,492
492,494,492,492,495
493,494,412,491,493
492,493,378,492,493
491,492,369,490,493
492,494,376,490,491
494,493,392,492,492
492,493,436,491,493
489,493,497,490,493
491,492,564,491,492
493,491,627,492,489
493,492,634,490,494
492,494,621,491,493
491,492,554,491,493
491,493,448,491,493
491,493,397,491,493
492,493,368,489,493
491,493,372,491,494
492,491,379,490,491
491,492,408,492,493
490,492,462,491,492
491,492,520,492,492
491,492,598,491,492
494,492,637,492,493
492,493,629,493,494
491,492,600,490,493
494,493,507,492,494
493,493,419,491,495
493,492,383,491,493
492,491,372,492,492
494,492,376,490,493
492,492,386,492,491
491,493,427,491,492
491,492,486,491,494
492,492,553,489,492
492,493,622,492,492
490,492,637,491,494
492,491,626,492,495
492,491,570,493,495
492,493,460,491,493
492,492,402,491,494
492,492,370,491,492
491,494,369,490,492
492,494,380,490,493
492,494,400,490,493
492,493,452,491,493
491,493,514,491,493
491,493,586,489,494
491,492,634,491,493
491,492,632,492,492
491,493,612,492,495
494,492,523,491,493
491,492,429,491,494
493,492,388,490,493
494,494,372,490,493
492,493,377,490,493
493,493,383,490,492
492,490,422,492,494
492,492,478,491,494
491,493,543,490,491
490,494,616,490,492
491,493,636,491,494
491,492,627,489,494
493,492,579,493,494
495,493,475,491,495
493,493,409,491,494
492,492,376,492,495
491,492,371,492,493
493,493,379,491,493
492,492,398,490,493
493,493,443,490,493
491,492,505,490,493
491,493,576,489,493
492,492,630,490,492
493,492,635,491,492
492,493,617,492,494
492,492,535,492,493
492,492,438,491,494
491,492,392,491,494
494,492,369,490,492
491,491,375,492,494
492,493,382,490,493
493,493,414,490,493
492,492,469,491,493
491,492,530,490,494
491,491,612,490,491
493,493,635,492,491
492,493,627,491,493
491,493,587,491,492
493,494,490,492,495
492,493,414,491,495
493,494,379,491,494
490,492,369,491,494
492,491,379,491,494
491,492,393,492,495
490,491,437,490,493
492,493,497,491,493
491,492,566,490,494
491,493,625,489,492
492,494,633,489,493
493,493,623,490,493
490,492,550,492,494
493,493,447,491,492
492,493,396,491,494
491,491,371,491,494
491,491,372,492,490
493,492,381,491,495
493,493,404,491,492
491,492,463,491,493
492,493,521,489,493
492,494,601,489,493
492,492,637,491,494
492,492,630,490,492
493,495,600,492,494
491,494,503,491,493
491,492,417,491,493
492,493,382,491,492
490,493,369,491,493
491,491,377,492,494
494,494,388,492,493
490,492,430,490,494
493,492,489,490,494
492,492,556,491,493
490,492,621,490,492
492,494,635,491,490
492,492,626,492,491
492,493,563,491,491
494,493,459,492,494
493,494,403,491,495
491,492,371,490,494
493,491,371,490,492
492,491,382,491,492
491,491,403,491,495
490,492,454,491,494
490,493,515,491,493
492,493,590,489,492
490,494,633,491,494
490,491,630,489,493
493,493,609,489,493
494,493,520,491,494
493,492,426,492,493
491,492,389,491,494
491,494,370,490,494
490,493,375,492,493
491,493,384,491,492
490,493,421,491,492
492,492,480,491,492
492,493,547,491,493
490,493,617,490,494
493,493,636,490,494
493,492,628,491,495
493,494,576,491,493
492,493,474,492,494
492,494,407,492,494
491,493,371,492,492
490,493,369,490,493
492,494,379,489,493
491,494,399,492,494
490,493,446,490,493
491,493,507,491,494
492,491,580,490,495
492,491,631,492,494
491,492,633,492,492
493,492,618,493,491
491,493,533,491,494
493,493,434,491,492
493,492,390,490,492
493,495,369,490,493
491,493,374,491,492
491,492,384,491,492
491,494,413,491,493
491,492,471,491,493
491,492,533,491,493
490,492,610,490,494
491,492,634,490,493
494,491,629,492,491
495,494,585,491,497
493,492,486,492,497
492,493,412,490,495
492,493,380,491,492
491,494,369,492,493
491,493,378,490,491
492,493,390,492,489
490,493,437,491,493
491,493,499,490,497
492,492,568,492,500
492,494,628,490,500
492,495,633,492,496
493,492,622,491,488
492,492,549,493,490
490,492,446,492,487
491,494,395,492,490
492,492,371,490,493
491,493,371,490,492
491,492,380,490,493
493,493,406,489,494
490,492,463,491,494
491,492,522,490,495
491,493,605,491,497
491,492,636,491,493
491,493,628,492,492
491,493,596,492,493
492,493,503,491,492
493,493,415,491,492
492,492,384,490,493
493,494,370,491,494
492,491,377,491,494
492,492,389,490,491
491,494,431,492,494
491,493,491,490,493
490,493,555,491,491
490,493,622,490,493
492,494,634,489,493
490,492,625,493,493
494,493,564,492,494
493,494,459,492,495
493,493,403,492,495
492,492,372,492,495
491,492,372,490,493
493,492,380,491,492
492,492,405,490,492
491,494,456,491,493
491,493,515,490,493
492,494,592,490,493
493,493,636,491,492
490,494,632,492,495
491,495,607,490,492
491,492,518,492,495
492,492,424,492,493
491,493,387,491,492
493,493,373,491,493
490,494,374,492,494
491,492,386,490,493
493,493,424,490,493
493,493,480,491,493
492,492,545,490,491
491,491,620,492,492
494,493,636,490,492
491,493,625,491,489
490,494,574,492,490
494,493,471,492,492
494,492,408,491,495
491,493,371,493,495
490,493,372,491,494
491,492,380,492,494
491,491,399,492,491
492,492,446,490,493
491,493,507,490,493
489,492,578,490,494
492,492,631,490,493
492,494,633,490,494
492,493,617,490,494
494,494,529,493,495
493,493,434,492,496
492,494,390,491,496
490,492,373,492,494
488,493,374,492,493
490,493,383,491,494
494,491,417,490,490
491,491,472,490,492
492,493,535,489,494
492,494,612,489,496
492,493,636,491,499
492,494,626,489,497
491,491,587,493,497
493,493,482,492,494
492,492,411,492,490
491,493,374,491,489
490,493,368,490,489
492,494,379,492,492
489,494,392,490,492
490,492,439,491,492
492,493,502,490,494
490,492,569,490,495
491,492,630,491,494
493,493,635,491,494
492,493,622,490,496
493,494,543,491,493
492,494,444,492,491
492,493,395,490,492
493,493,369,492,491
492,491,375,491,491
492,493,380,491,493
491,492,410,491,488
490,492,465,491,489
492,492,523,490,492
493,491,603,490,495
491,491,637,491,495
492,492,629,490,494
493,493,595,489,494
493,492,499,491,494
493,492,415,490,494
492,493,381,492,494
490,491,368,490,492
492,494,375,490,491
491,494,387,491,488
493,493,431,490,493
491,492,493,490,493
493,492,559,490,493
490,491,623,491,496
491,492,636,491,496
489,492,623,492,494
490,491,561,491,493
493,493,455,491,493
490,492,399,491,494
492,494,368,490,491
492,494,372,489,492
493,494,381,490,494
491,492,402,491,496
492,493,458,491,497
491,493,518,491,498
491,492,596,491,494
490,493,634,491,491
490,493,629,491,491
491,491,609,491,495
492,495,513,491,498
492,493,423,490,494
493,492,388,490,496
493,493,373,491,499
491,491,377,489,495
493,494,387,492,491
490,493,424,490,490
492,492,483,490,491
491,493,548,490,490
491,494,617,491,493
491,492,637,491,496
493,492,628,491,491
491,492,575,491,493
493,493,470,490,494
493,492,407,491,495
494,491,370,490,498
492,493,371,491,494
491,492,381,491,497
491,494,397,489,496
492,494,449,490,498
492,493,510,490,498
492,492,583,491,486
492,493,634,491,482
491,493,632,489,484
490,492,618,493,490
491,493,529,492,494
492,494,434,492,494
493,492,392,492,490
494,494,369,492,492
491,491,374,490,492
492,492,384,490,493
493,492,419,490,493
492,492,472,490,492
493,493,538,490,496
491,494,613,490,497
492,493,635,491,492
492,494,627,490,491
489,494,582,491,495
493,492,484,491,491
492,493,412,492,493
490,493,376,490,493
493,493,372,490,495
491,492,380,491,496
491,491,395,493,498
493,493,440,490,498
491,493,503,490,498
491,492,568,489,496
490,495,629,489,490
492,494,634,491,497
494,491,620,493,500
493,493,544,491,501
492,494,442,491,497
493,493,395,491,494
491,493,371,492,489
490,494,372,491,485
492,493,382,491,481
491,494,412,492,488
491,493,465,490,492
492,494,526,490,492
493,493,607,490,492
492,494,635,490,490
493,492,630,491,494
493,496,592,493,498
491,493,496,492,491
493,493,415,492,491
492,494,381,492,493
491,493,371,492,497
491,494,377,490,497
490,493,390,493,497
493,492,433,490,492
493,492,493,489,487
492,492,560,491,489
491,495,623,491,490
493,493,636,491,494
492,494,621,491,492
492,493,556,491,493
493,493,453,491,491
492,492,399,492,490
494,493,369,489,490
491,494,371,491,492
492,491,381,491,494
491,491,406,492,495
490,492,457,490,492
492,492,517,490,492
491,492,598,490,492
490,494,633,491,492
492,494,630,490,492
493,494,605,490,493
494,494,514,491,496
492,494,422,491,496
492,493,386,490,490
493,491,372,492,493
491,493,376,491,493
493,493,387,491,498
490,491,428,491,501
491,493,484,490,503
491,493,551,489,502
493,494,620,489,504
493,493,637,491,494
493,492,627,489,485
492,495,573,493,489
492,494,466,491,487
491,491,404,491,489
490,492,369,491,489
492,494,371,490,491
490,492,381,492,489
493,493,400,492,490
491,492,451,490,487
490,492,510,490,492
492,491,585,490,495
492,492,633,491,497
491,493,633,490,497
492,494,613,491,493
493,492,527,492,488
493,493,431,491,487
491,494,389,490,489
492,495,370,492,490
490,493,375,490,492
493,494,383,490,490
491,490,419,492,494
491,492,475,490,494
491,493,538,490,493
492,492,615,490,492
493,493,634,491,493
491,492,628,490,493
493,495,582,490,490
494,494,480,491,492
493,494,410,491,492
491,492,376,491,494
492,494,370,490,491
490,493,378,491,492
491,494,393,491,491
491,494,442,490,491
491,494,504,491,493
490,492,572,489,492
493,493,631,491,489
492,492,635,491,492
491,492,622,491,494
492,493,542,491,486
491,494,441,491,491
491,492,393,490,493
493,493,369,492,491
491,494,372,490,491
492,494,382,489,492
493,495,411,492,494
492,493,467,490,500
492,494,529,489,499
493,492,610,492,504
490,493,637,491,502
490,494,629,491,485
492,493,592,492,474
491,493,494,491,486
493,494,414,492,491
493,494,381,491,493
493,494,371,491,494
494,492,379,491,493
492,494,388,490,493
491,492,435,490,490
493,493,497,492,491
492,493,561,492,493
491,493,625,490,493
492,494,638,492,496
490,494,623,490,497
491,493,557,493,494
494,493,452,492,488
493,492,399,491,491
492,492,372,491,490
492,494,372,492,489
491,493,381,490,492
494,494,404,491,487
491,493,458,491,486
492,493,518,490,487
492,492,599,492,489
493,492,636,491,490
491,493,629,492,493
491,492,605,492,495
492,491,510,492,497
491,492,422,491,496
491,492,385,490,495
494,491,369,490,493
492,491,376,492,489
493,494,386,489,492
492,493,427,490,491
493,493,485,491,492
493,493,550,491,491
492,491,618,489,495
494,494,636,491,494
492,494,625,491,493
493,494,569,492,486
496,494,467,492,487
493,494,403,491,491
490,493,371,489,490
489,493,375,490,492
491,493,382,491,490
491,492,403,488,488
491,494,453,491,491
489,493,511,490,496
489,493,587,490,495
491,493,633,491,497
493,493,632,490,490
493,494,613,490,484
489,494,526,491,486
492,494,431,491,489
492,493,392,491,491
492,492,374,491,492
491,492,375,492,493
492,493,386,490,491
491,493,418,491,489
492,492,477,490,491
491,494,542,489,492
491,494,615,490,493
493,493,637,490,493
491,494,630,491,493
492,495,579,490,491
494,494,479,492,491
493,493,411,492,491
493,494,374,492,489
495,492,373,491,492
492,494,379,492,493
487,493,394,489,492
493,494,445,490,489
491,493,504,490,490
491,492,575,491,491
491,495,631,489,490
490,493,633,492,492
493,492,621,491,490
491,494,538,491,491
491,494,440,491,488
491,493,393,492,487
491,492,371,490,487
492,493,372,490,487
493,492,385,491,491
492,492,414,492,493
490,492,468,490,495
491,494,530,489,495
489,494,608,490,497
491,492,635,489,494
493,494,628,490,494
495,494,590,490,498
497,493,492,492,496
496,493,414,491,493
494,493,377,490,496
492,492,371,492,490
491,492,378,492,492
490,492,389,492,495
490,491,433,491,492
493,490,497,491,493
491,489,562,492,487
492,492,626,490,480
491,492,635,491,485
490,493,622,492,492
491,496,552,490,491
492,494,451,492,493
491,495,396,491,492
491,495,370,491,489
491,494,372,490,490
492,494,383,491,492
491,495,407,489,489
494,493,460,491,490
495,493,522,490,491
494,492,602,491,491
493,492,635,492,492
493,494,631,491,489
492,494,602,491,492
491,494,504,491,493
488,495,421,491,490
491,495,384,490,489
491,496,371,490,491
490,494,375,491,492
491,492,390,490,491
491,494,430,491,494
491,492,488,490,491
492,492,553,492,488
492,491,622,490,492
492,494,635,490,491
491,492,626,492,492
494,495,568,491,493
494,495,464,492,493
493,493,403,492,492
492,494,369,491,493
492,492,373,490,487
494,492,379,492,484
493,492,401,491,490
491,493,453,491,491
491,493,514,491,492
492,495,589,489,491
490,492,634,490,491
492,492,634,491,492
493,493,615,491,493
492,493,523,492,493
493,493,427,490,491
493,494,389,492,490
493,493,371,491,490
493,494,373,489,489
493,494,384,490,490
492,494,420,490,492
490,492,478,490,491
491,493,543,490,489
490,491,619,490,492
492,492,637,492,491
490,493,628,492,490
491,494,579,490,493
492,494,475,492,491
492,493,409,491,491
493,495,372,490,488
495,495,372,490,493
493,492,381,493,493
493,494,398,491,492
493,495,446,490,489
492,493,507,491,492
491,493,577,492,492
491,494,632,491,495
492,494,633,490,500
493,492,622,490,498
492,496,538,493,497
490,494,436,493,491
493,493,394,491,491
493,493,373,491,487
493,494,372,490,485
493,493,384,492,489
496,495,414,492,489
495,492,469,490,490
496,493,532,491,492
492,493,609,491,494
491,491,636,490,493
491,493,629,492,490
487,493,588,490,492
490,493,491,490,492
492,493,414,490,491
491,494,377,490,493
491,492,370,489,491
494,491,377,491,492
491,492,389,491,492
491,494,436,490,491
491,493,500,490,492
492,492,564,492,493
495,493,629,490,491
493,493,634,491,497
489,492,623,492,498
491,492,553,492,492
492,494,449,492,493
493,494,395,492,489
492,492,372,491,487
492,494,371,490,487
495,494,381,490,489
495,494,407,490,491
491,493,460,491,491
492,493,522,489,491
492,495,604,492,492
491,493,634,492,488
493,492,629,491,489
492,494,601,491,492
494,494,502,491,492
491,494,419,491,490
492,494,383,491,492
494,494,370,490,492
492,492,377,491,492
491,492,389,490,490
492,493,429,491,491
492,493,489,490,491
491,493,553,491,490
491,494,620,490,491
492,494,635,490,491
491,493,624,492,492
495,494,567,492,491
493,494,460,492,491
493,492,401,491,490
494,491,372,492,490
493,492,372,490,490
494,493,378,491,489
492,493,405,490,490
490,494,452,490,492
491,494,513,490,493
492,494,590,489,492
491,494,633,491,493
495,491,630,489,491
494,492,614,493,493
493,493,519,494,494
494,494,427,492,493
491,494,388,492,491
492,493,373,491,491
491,494,375,492,491
489,493,385,490,488
490,493,422,490,493
489,493,479,490,491
490,493,544,490,490
492,492,619,491,493
493,495,637,490,492
493,494,625,491,492
492,494,576,491,491
492,494,474,492,493
494,492,409,491,493
495,493,373,493,492
495,492,373,491,493
495,492,380,491,492
496,492,398,492,491
497,493,446,490,490
495,492,506,492,491
493,493,579,491,488
491,495,632,491,490
494,495,632,490,493
492,495,620,490,491
494,495,534,493,489
492,494,436,492,490
492,494,391,491,490
493,492,373,493,489
494,493,373,492,492
492,493,382,492,493
494,492,416,490,497
493,493,472,490,494
490,493,534,490,491
492,493,611,491,494
491,492,637,491,494
491,495,628,490,491
492,492,588,492,493
496,494,487,491,493
494,492,412,493,493
494,493,376,492,492
491,494,369,492,492
490,492,378,490,493
491,492,391,492,492
492,493,440,490,492
494,492,500,490,492
492,491,567,492,495
491,492,629,492,494
496,493,635,492,493
494,494,623,492,494
495,494,546,491,493
494,494,446,492,493
497,494,396,491,494
497,493,371,493,491
496,492,374,491,489
496,494,380,492,493
494,491,409,493,493
496,492,462,492,493
496,493,522,491,493
494,493,601,490,490
492,492,636,493,491
497,494,632,491,494
492,494,598,491,494
490,494,503,491,495
489,495,416,491,494
485,494,384,490,494
488,495,371,491,492
488,493,376,490,491
490,493,387,490,491
495,494,430,489,492
501,493,492,490,493
507,494,557,490,490
509,492,625,493,495
512,492,639,495,498
510,492,626,496,496
509,493,566,495,494
488,495,459,495,493
486,494,401,493,494
491,495,369,491,491
491,495,372,490,492
495,494,380,488,493
490,493,405,491,493
496,493,456,490,490
493,493,517,490,494
496,492,596,491,495
484,492,634,492,491
485,493,633,491,493
490,494,609,491,491
485,491,517,492,492
492,494,427,491,492
495,493,389,491,494
499,491,371,491,494
497,491,377,490,490
495,495,387,492,493
495,494,422,489,493
497,493,482,491,495
499,493,546,491,493
498,494,616,490,495
485,493,638,492,496
490,494,628,492,492
496,493,578,490,497
492,494,472,491,493
492,492,407,491,494
491,491,371,491,489
493,491,372,492,485
494,490,379,492,490
492,490,395,492,491
492,489,446,491,493
498,490,506,491,494
501,493,579,490,494
508,494,631,492,493
496,494,634,493,494
496,495,620,494,493
492,493,532,494,492
496,493,434,493,492
492,493,393,492,491
489,493,368,493,491
488,492,373,491,493
491,494,385,491,496
490,494,416,491,500
491,494,472,490,502
495,493,537,491,488
499,494,610,489,492
494,495,637,490,490
493,496,627,490,493
501,495,585,490,495
509,493,488,491,494
507,494,412,492,493
477,491,376,490,491
485,490,371,492,492
488,489,379,492,494
490,492,389,490,491
492,490,438,493,492
489,492,500,493,492
489,496,567,492,490
489,498,629,494,489
493,494,635,494,494
496,493,621,496,495
499,494,550,496,496
508,494,445,495,495
506,493,397,494,496
507,492,373,496,496
498,493,371,494,495
486,492,382,491,491
482,492,410,491,494
477,492,461,489,494
486,494,525,488,493
488,492,603,489,494
494,492,633,488,491
502,491,631,491,490
487,497,594,493,494
488,493,499,491,496
495,493,416,492,494
497,491,380,491,497
506,489,368,490,492
507,490,377,492,494
501,493,387,491,495
500,492,431,492,493
488,495,491,493,492
490,495,558,494,491
489,493,623,494,493
497,491,634,492,491
498,492,624,492,493
499,495,564,493,497
502,494,458,492,496
499,493,400,491,494
485,493,369,493,495
494,491,374,490,495
501,493,380,490,493
503,494,403,489,495
499,492,456,491,494
490,493,517,490,494
495,495,594,490,493
492,492,635,491,493
489,490,631,494,491
493,488,607,498,491
490,486,513,498,494
484,490,421,497,494
481,492,384,496,494
484,495,368,494,491
487,493,376,494,492
495,493,387,493,498
516,495,422,489,494
519,494,484,489,494
513,494,547,492,495
495,493,619,493,493
499,494,636,494,493
504,494,624,493,492
481,491,572,490,491
482,492,470,494,493
499,495,404,493,494
499,492,371,490,491
486,493,372,490,498
485,494,378,490,496
502,493,401,489,492
507,496,450,493,494
510,497,510,494,494
493,492,582,495,494
492,491,634,496,497
488,493,631,490,493
478,492,618,492,493
490,489,527,499,497
494,484,429,501,495
495,486,390,503,498
502,488,370,500,497
495,492,374,499,497
502,493,383,492,491
515,496,414,493,490
515,494,473,488,491
501,490,535,488,491
488,489,612,490,493
500,494,635,491,494
479,491,627,490,497
489,490,583,490,498
497,493,483,491,498
498,494,408,492,496
502,494,377,494,498
498,494,370,491,492
485,494,376,492,492
488,496,392,491,494
475,497,441,489,493
482,498,502,487,492
489,498,575,491,493
505,498,633,495,497
524,495,638,498,499
513,494,625,497,494
501,492,548,498,490
474,492,442,500,493
489,494,396,495,488
492,494,369,491,492
499,495,372,490,493
516,496,383,488,496
507,496,413,493,493
514,494,466,497,499
516,492,529,495,501
499,490,607,493,500
486,490,636,492,495
476,489,630,494,494
490,491,592,492,497
491,490,497,486,499
488,489,412,488,496
490,489,377,490,497
507,488,369,491,496
511,487,374,492,494
495,487,387,493,498
495,490,430,495,497
496,499,494,508,497
492,503,561,507,494
500,497,628,503,491
498,494,637,501,494
495,496,624,496,496
470,497,563,500,499
477,497,455,490,497
505,493,401,496,498
527,494,374,501,497
480,491,371,499,501
485,492,381,491,501
506,491,404,490,500
480,487,455,487,499
488,490,516,486,498
503,492,598,491,498
522,499,635,490,496
527,498,633,495,503
543,492,607,488,501
511,491,511,484,500
505,482,420,481,499
476,478,378,489,499
467,491,366,493,499
475,496,372,497,501
482,490,381,497,500
491,498,423,494,502
511,492,483,491,502
511,493,547,487,500
513,500,619,493,495
515,501,639,495,494
509,505,629,499,495
492,497,577,501,493
507,496,469,502,500
514,494,404,492,497
509,492,373,491,496
497,497,371,486,497
497,496,380,481,497
490,489,398,485,496
489,485,448,491,500
487,490,507,490,498
492,488,584,495,500
500,494,633,501,503
545,504,635,510,505
565,497,622,511,505
544,492,526,505,508
533,481,427,497,503
511,485,385,486,503
496,485,364,473,508
496,488,370,486,501
494,496,381,493,495
494,488,414,498,496
479,495,472,495,489
483,496,536,494,485
472,491,609,487,493
466,494,633,484,491
479,496,628,488,496
508,498,585,504,500
548,486,483,514,510
553,481,409,516,517
532,482,373,508,514
534,488,367,502,502
491,485,371,496,500
462,488,386,492,489
452,491,435,487,488
482,481,495,488,494
483,488,567,487,501
481,481,625,488,506
487,485,627,495,507
488,486,616,495,501
476,493,537,498,494
512,497,437,493,492
529,494,391,488,495
518,501,369,496,503
521,496,375,511,509
553,493,385,513,500
546,503,412,509,500
535,498,465,492,496
525,489,527,486,491
474,484,603,487,492
445,486,632,490,496
467,486,624,484,500
474,489,587,490,513
483,482,491,490,516
502,475,407,492,517
524,489,376,506,511
547,495,369,513,504
547,500,379,515,499
502,507,390,501,493
480,487,428,487,494
467,491,489,474,491
474,493,558,483,493
528,490,624,496,491
532,495,633,504,492
516,494,622,507,494
485,492,558,514,503
518,493,452,507,498
498,489,397,495,494
498,493,370,490,496
488,489,371,497,503
483,491,380,503,508
494,491,403,505,506
521,493,459,496,515
519,496,518,486,512
505,491,596,487,510
550,488,633,481,507
490,478,623,484,499
497,473,593,491,492
491,478,502,498,487
474,496,417,507,491
491,498,383,509,498
510,504,372,506,497
488,507,377,490,495
503,501,390,491,497
503,486,427,493,496
499,484,485,486,492
481,486,548,478,498
478,480,614,487,499
482,488,634,500,509
513,492,626,508,509
505,491,570,519,506
503,501,466,515,499
501,491,402,507,498
497,487,369,482,495
512,480,365,473,502
504,482,376,485,508
515,492,401,489,514
529,502,453,494,508
496,508,512,506,502
528,499,590,508,495
534,498,637,507,492
489,492,631,508,492
461,491,613,494,497
517,495,526,487,500
546,499,431,490,502
512,496,390,488,500
475,496,372,491,500
458,481,373,495,506
474,470,380,494,506
500,478,412,492,510
526,484,472,486,506
562,501,540,486,498
529,499,613,495,497
535,491,635,496,498
465,484,623,499,503
501,476,572,497,501
477,487,474,501,503
520,489,403,495,499
544,495,372,498,494
505,504,368,497,482
455,503,376,499,487
454,488,392,497,486
463,494,442,493,491
472,495,504,493,493
468,493,575,504,489
514,494,634,517,497
519,498,635,527,505
495,493,621,518,507
490,481,535,510,517
536,484,438,503,519
546,483,390,486,514
559,483,364,473,509
491,488,367,486,504
487,483,378,493,493
500,491,405,493,495
522,498,467,495,490
529,503,529,480,490
499,496,606,488,493
466,495,635,489,501
466,492,629,488,502
464,498,587,493,503
496,499,495,503,500
504,495,416,505,497
526,484,379,506,500
543,480,369,501,493
486,484,374,499,496
505,496,391,496,502
507,501,436,493,499
532,500,499,500,515
523,504,564,489,506
492,495,629,492,493
481,484,631,490,489
499,489,623,505,488
482,492,554,518,494
491,481,448,518,502
484,483,395,512,513
508,490,367,507,519
535,487,370,509,520
553,501,382,514,510
541,488,400,493,485
428,462,447,495,485
489,470,510,508,495
474,484,593,498,496
513,501,629,476,491
504,503,628,478,491
515,502,597,480,494
493,490,502,484,496
450,488,415,486,505
478,507,384,493,504
534,501,373,496,506
597,487,380,497,515
609,486,391,509,516
521,498,431,514,498
403,503,486,511,490
402,501,554,507,481
434,498,624,498,487
468,497,636,481,491
492,493,626,487,492
523,493,569,479,493
500,490,460,484,502
497,467,397,495,509
510,462,360,496,510
516,446,358,509,513
522,446,365,513,515
542,487,390,514,520
554,495,446,516,505
545,526,512,498,488
497,530,589,490,487
496,513,639,509,492
542,500,634,490,485
434,489,607,473,487
451,482,517,483,508
433,481,424,482,509
448,486,386,484,506
514,494,371,484,500
538,507,381,510,499
569,507,392,524,502
565,494,423,516,497
488,484,476,502,489
470,474,538,491,494
513,484,612,504,507
522,485,635,522,519
541,483,625,522,516
496,483,577,528,505
452,499,472,500,496
511,512,406,474,481
509,515,374,465,479
489,506,372,476,487
459,494,379,480,493
478,484,393,484,493
489,471,442,491,508
490,466,498,494,515
508,482,572,500,508
529,505,632,498,507
544,525,641,504,507
559,504,621,491,485
485,471,529,497,487
444,468,429,500,493
450,474,384,497,494
473,478,360,496,494
488,487,369,509,501
521,500,385,514,509
517,514,414,520,516
508,512,473,505,512
532,504,535,484,486
503,490,607,479,477
490,484,631,486,484
438,479,625,493,496
460,492,584,482,498
526,500,492,482,502
575,496,415,494,511
578,501,382,494,505
448,493,371,496,493
476,506,382,505,492
509,500,396,517,498
530,491,440,502,508
538,492,498,496,508
473,489,562,503,510
451,464,622,508,514
450,457,625,517,512
508,457,612,514,500
511,472,538,496,496
487,497,437,478,491
514,518,392,472,488
476,518,368,478,484
477,502,370,484,491
507,502,385,491,496
525,498,410,510,499
519,501,465,512,500
521,501,526,509,504
506,497,607,500,510
512,500,636,489,508
527,492,633,492,502
512,496,600,492,493
477,484,500,473,487
504,461,410,475,494
463,476,374,485,503
432,483,366,497,502
450,511,378,489,502
491,519,394,503,495
512,497,432,500,489
527,470,485,491,493
504,471,548,484,493
483,487,617,489,497
492,501,633,495,501
512,509,627,499,507
547,508,571,506,508
502,499,463,499,503
526,473,399,500,505
531,469,368,520,496
485,481,369,523,497
503,506,382,518,490
462,524,404,489,489
457,518,457,472,498
492,492,516,490,499
516,490,593,493,501
507,490,635,489,500
476,493,631,488,489
496,495,615,487,491
475,488,516,491,504
474,477,426,492,514
497,479,386,499,513
534,476,370,521,503
543,502,379,527,496
508,486,383,524,495
505,471,412,504,486
491,479,470,474,493
491,488,536,482,499
482,500,612,479,500
489,515,632,466,493
463,515,629,481,499
497,503,581,488,504
506,497,478,505,508
551,500,415,518,518
533,506,380,487,514
502,497,374,493,494
475,497,384,511,497
503,491,400,506,497
464,475,446,517,499
482,471,502,519,493
499,467,567,481,489
513,490,626,472,483
510,504,628,490,480
480,511,618,492,487
471,509,536,490,492
489,496,437,487,502
473,495,394,488,502
483,498,373,488,496
504,501,380,494,496
517,500,391,501,499
526,494,420,502,498
561,482,472,494,503
516,477,529,483,499
431,475,604,479,498
455,485,631,487,504
453,499,626,497,491
499,500,588,515,491
530,498,490,518,499
534,502,414,500,504
542,500,380,479,503
466,502,372,470,501
467,500,381,486,500
513,480,393,496,512
540,474,437,509,513
539,483,499,524,503
536,484,562,515,486
441,490,622,497,476
460,488,628,479,479
447,486,615,479,492
473,501,544,489,497
476,506,445,483,500
483,500,396,481,500
495,496,371,487,500
504,494,374,496,495
502,489,383,491,492
485,498,410,497,491
487,502,466,505,492
500,497,528,501,497
494,495,607,496,496
491,490,635,480,503
502,485,628,481,506
510,490,598,492,502
521,504,503,486,495
508,502,419,487,494
508,497,385,493,495
480,491,373,494,494
479,491,377,499,495
501,494,392,505,497
485,498,434,498,496
536,496,494,494,502
565,496,561,504,506
522,501,628,531,509
494,500,639,519,499
478,500,628,500,493
488,498,567,506,489
452,494,460,507,485
451,486,398,492,489
466,479,368,482,493
485,475,366,471,498
488,477,372,473,499
486,488,397,476,496
487,501,453,484,496
492,508,516,492,494
498,503,597,498,492
504,504,639,500,492
502,499,636,493,493
490,497,615,483,495
485,498,518,482,496
486,494,428,486,498
492,493,389,487,499
501,495,372,486,499
511,495,379,491,498
519,489,388,497,497
510,479,422,490,496
472,477,477,490,502
481,469,540,491,506
504,478,613,494,506
519,489,630,492,503
524,502,623,490,494
468,515,575,489,492
492,513,476,497,488
499,504,408,498,492
509,497,376,498,494
524,497,378,502,500
505,496,381,490,499
484,495,402,484,498
524,492,451,490,495
518,490,508,488,498
483,493,578,489,494
452,492,633,488,491
472,504,634,490,497
478,502,622,492,494
484,496,534,491,501
487,493,434,491,501
488,493,395,493,497
488,498,371,495,494
490,499,378,496,490
494,498,387,499,489
487,495,417,499,489
490,495,474,495,493
488,495,537,490,496
493,495,616,501,497
493,499,641,498,496
479,499,632,491,499
490,497,590,490,500
533,494,489,483,494
515,493,413,496,491
490,494,377,503,489
486,494,374,501,491
491,495,379,500,493
490,496,393,490,492
494,495,440,478,494
492,496,502,483,498
498,497,570,486,496
493,497,635,487,498
495,496,637,490,498
492,497,624,501,498
496,498,554,507,500
505,497,447,498,496
512,496,401,511,494
513,498,375,522,493
488,496,379,517,495
484,496,387,506,495
487,494,409,489,494
487,493,464,472,496
495,495,526,479,497
495,495,608,488,499
490,498,638,484,497
493,498,631,484,497
493,495,601,484,497
495,497,503,486,498
496,496,418,488,493
497,495,385,489,494
494,496,374,489,500
493,497,380,488,498
492,495,392,491,499
494,494,435,491,499
492,489,494,490,500
493,487,556,490,498
493,490,622,490,502
490,493,637,490,505
494,493,622,491,500
496,493,564,493,505
494,493,458,492,503
494,487,399,493,491
494,489,370,493,488
495,491,373,491,491
492,492,380,491,497
494,496,403,489,495
492,502,458,491,504
494,502,519,490,502
495,499,597,491,496
494,500,638,491,490
493,501,634,491,478
491,500,614,493,487
491,497,519,492,495
493,496,428,490,491
494,495,390,490,491
492,493,376,490,490
496,497,380,489,491
497,497,390,489,493
494,497,428,489,493
491,497,486,491,492
490,496,553,493,491
490,497,623,498,492
486,497,638,496,493
487,496,627,489,492
485,497,574,485,492
492,498,474,485,486
497,497,408,487,498
490,497,374,485,501
492,495,377,490,496
491,494,384,496,495
499,495,403,492,497
497,496,453,492,498
498,496,512,490,500
496,497,584,480,496
485,498,636,483,499
482,498,635,486,498
481,498,621,490,493
490,497,534,495,497
496,498,436,497,502
495,498,397,489,503
488,496,377,488,505
491,496,380,492,494
495,496,386,495,481
494,495,421,492,482
493,497,477,490,489
493,496,541,493,485
493,496,616,490,490
489,495,640,491,489
494,499,633,497,493
492,498,587,495,491
496,497,487,497,495
494,495,414,495,494
492,495,377,491,494
491,495,375,487,492
491,497,382,490,492
489,496,397,489,490
491,496,445,489,491
493,497,505,488,494
492,495,571,486,492
493,496,635,488,495
492,496,639,489,496
489,498,623,489,497
492,499,548,490,498
492,499,447,491,499
491,498,399,489,501
493,498,374,491,501
491,496,379,490,506
491,498,389,490,503
491,498,416,491,504
491,498,471,490,503
492,498,531,488,489
488,496,608,489,485
489,494,638,488,481
492,497,633,488,482
491,498,597,489,483
493,497,501,491,499
492,498,420,494,511
489,499,384,495,513
490,497,377,498,501
488,497,383,497,481
488,497,393,494,489
492,495,437,488,488
489,496,498,486,493
489,496,563,484,489
492,496,628,488,490
492,495,640,489,493
490,497,625,487,492
491,496,565,488,497
492,499,458,488,498
491,497,402,489,495
491,498,374,489,497
490,498,376,488,493
491,498,385,489,488
490,497,408,487,485
487,495,461,490,492
490,497,522,489,496
490,497,602,489,500
491,497,641,490,505
492,498,635,489,488
489,497,612,489,495
492,498,515,491,494
492,496,425,490,491
492,498,390,489,481
490,495,375,490,491
491,496,382,488,494
491,497,390,489,503
491,496,431,489,494
490,497,487,488,489
490,496,554,488,499
490,498,623,489,494
490,496,641,489,492
491,495,628,488,498
491,497,574,488,497
493,498,471,488,492
490,497,408,489,494
490,499,373,488,502
491,498,376,488,502
492,497,384,490,500
490,496,404,489,505
490,497,455,487,510
490,497,515,487,507
491,498,588,485,504
491,496,639,486,505
492,497,638,490,522
491,497,623,490,514
491,496,532,491,488
491,497,432,490,455
489,496,392,488,457
487,494,372,489,475
488,496,376,488,480
490,496,386,488,485
489,494,422,490,487
489,496,477,489,484
489,495,544,488,487
489,495,619,488,491
489,496,640,489,493
489,497,633,489,495
488,498,587,488,504
492,498,485,489,512
492,498,415,489,511
491,499,377,488,505
491,498,374,488,497
491,498,384,489,497
488,496,398,487,496
490,497,445,489,499
490,496,508,489,496
489,495,575,489,480
488,495,633,488,464
488,495,637,490,476
490,497,623,490,493
490,496,544,489,499
491,499,444,489,501
492,498,399,488,510
492,498,373,489,509
491,496,378,489,490
490,496,386,486,492
486,495,412,488,471
486,494,468,488,482
488,494,530,488,485
488,496,609,490,496
488,496,640,488,500
491,499,633,489,507
491,500,599,490,520
492,500,502,489,521
493,500,421,490,512
494,498,385,487,496
488,496,372,489,478
488,495,380,488,479
490,496,391,485,488
490,497,438,485,489
490,495,500,489,483
488,494,564,488,477
489,495,628,487,488
490,494,640,489,489
489,494,626,489,493
487,494,560,488,493
489,496,456,489,488
488,495,400,489,489
490,497,372,488,486
491,496,375,488,481
491,495,383,488,489
492,496,409,487,496
488,496,461,488,497
489,495,522,487,487
490,496,603,489,487
487,495,637,488,492
489,496,632,487,500
490,497,610,489,507
490,499,513,490,505
491,496,423,489,478
490,496,388,488,478
490,495,374,488,488
488,494,379,489,496
491,496,389,490,505
488,495,429,487,512
490,497,489,488,515
488,497,554,488,501
488,497,621,487,489
490,496,639,489,491
490,496,630,488,476
487,494,571,488,476
488,493,467,488,487
488,495,406,489,492
489,494,373,489,471
488,493,374,487,484
488,494,380,488,491
489,493,404,487,490
488,495,452,487,491
489,494,512,487,491
490,495,588,486,490
487,496,635,488,494
489,495,633,487,500
491,496,620,490,505
489,496,527,490,509
490,496,433,488,511
491,496,393,488,494
489,496,370,488,491
489,495,377,487,492
490,496,388,487,492
491,496,422,487,486
488,494,476,487,471
487,493,543,488,472
484,493,615,487,479
488,495,638,489,489
488,496,629,487,495
487,496,583,488,502
492,497,482,489,507
491,497,415,489,508
491,497,376,490,486
488,496,375,487,492
489,494,383,488,487
488,493,399,489,494
489,495,445,487,485
487,493,504,489,472
488,493,575,487,480
486,495,633,487,490
487,496,635,487,493
489,496,623,490,491
488,494,541,489,488
490,494,440,489,481
491,493,396,488,491
489,494,374,487,498
488,494,375,488,502
489,496,386,487,506
486,496,412,487,507
489,495,469,487,495
488,495,531,487,477
488,496,609,487,490
489,495,638,488,496
490,498,630,487,499
489,496,596,488,504
490,497,494,490,476
488,492,414,489,466
487,493,380,489,477
486,493,370,487,488
488,492,378,485,496
488,493,393,488,499
490,495,438,486,498
489,495,499,486,488
487,493,565,487,490
487,496,626,486,489
487,494,636,487,483
489,494,623,489,483
488,495,555,488,488
488,495,452,489,489
488,495,400,489,490
488,496,371,487,494
488,495,374,489,504
491,496,385,489,510
491,495,412,488,511
490,495,463,488,499
488,494,522,487,475
487,493,600,487,464
485,491,637,487,482
487,495,631,484,491
488,496,603,486,493
490,495,510,488,488
489,494,422,488,485
488,494,387,487,486
487,495,373,488,489
487,494,378,488,493
488,494,389,490,500
487,495,431,489,507
491,496,491,489,503
490,494,556,489,495
490,495,622,486,470
490,493,638,488,474
488,492,627,489,480
487,495,568,491,497
489,494,464,489,504
489,493,404,487,505
488,494,370,488,492
488,494,372,487,494
488,494,380,488,479
487,492,403,488,477
490,494,453,488,481
486,493,513,487,484
487,493,591,487,487
488,493,635,489,487
488,492,633,487,488
492,493,614,489,491
489,494,523,489,493
488,495,428,488,493
489,495,389,487,492
490,495,372,486,495
488,494,375,486,506
489,494,386,487,501
487,493,423,488,508
489,495,480,488,511
489,496,545,489,514
488,493,617,487,486
488,494,635,487,485
487,493,628,487,480
488,494,578,487,467
491,495,476,490,482
488,495,410,489,488
489,494,373,488,492
489,494,374,488,497
489,495,380,486,493
487,493,396,488,482
487,494,445,487,487
487,493,505,488,486
487,493,578,486,498
489,497,634,489,505
487,495,636,488,517
491,495,623,488,522
492,496,540,490,515
491,496,438,489,521
492,496,396,489,530
492,498,372,489,503
487,494,370,486,455
486,494,381,486,462
486,494,412,488,486
487,491,468,485,469
488,491,531,487,478
488,492,611,488,486
488,493,637,488,493
489,493,629,486,498
488,492,590,487,490
489,494,490,489,496
488,495,413,488,495
487,493,375,487,471
487,494,368,488,481
490,493,378,489,480
489,492,390,491,486
491,493,438,488,492
487,494,499,488,497
488,493,566,489,495
489,494,629,488,494
490,495,635,488,493
489,493,620,488,484
487,493,554,490,488
489,494,448,490,487
489,492,397,489,481
491,493,370,487,487
485,493,372,488,493
488,491,383,487,491
488,495,410,489,491
487,491,462,489,491
487,492,522,488,491
486,493,601,488,491
486,492,638,489,493
490,494,630,487,494
487,493,600,488,501
491,494,506,488,503
491,494,420,488,494
489,492,386,488,485
487,494,370,488,474
486,492,376,484,482
486,493,385,487,486
486,493,428,489,490
488,493,490,489,490
487,493,556,489,490
489,494,622,489,486
487,494,638,489,487
488,491,626,489,494
489,491,569,491,493
490,493,460,490,491
489,492,401,490,490
491,492,371,488,487
490,493,371,488,491
490,493,380,487,505
489,495,402,487,505
489,494,455,487,500
488,493,514,486,496
488,494,589,485,471
487,491,634,488,477
488,492,631,485,486
488,495,612,486,490
491,493,522,488,492
489,493,427,491,491
487,493,389,491,481
488,493,370,490,484
488,491,376,489,488
489,492,385,488,487
487,491,423,489,489
491,492,479,487,486
489,491,544,489,490
485,492,615,488,490
488,494,634,488,491
487,492,628,489,493
490,494,578,491,498
490,494,474,489,504
490,494,409,489,508
489,493,374,488,508
490,493,373,489,515
489,494,379,488,471
486,491,393,485,473
490,492,445,488,475
489,491,504,488,476
489,492,575,486,482
489,493,631,491,484
489,492,633,491,488
490,494,617,489,488
489,492,536,491,490
490,493,435,490,490
490,493,392,490,491
491,493,371,490,490
488,493,375,488,492
489,494,383,488,486
489,494,413,488,488
490,492,469,488,490
488,492,532,487,488
488,491,612,489,491
490,494,635,489,492
489,493,628,490,490
488,492,587,490,491
489,493,487,489,490
490,493,413,490,486
488,492,376,488,486
487,493,370,490,489
489,492,379,488,490
488,492,392,489,489
488,492,437,489,491
488,493,500,486,506
489,493,565,484,510
492,493,628,490,511
489,494,634,489,503
488,493,619,485,461
489,489,549,489,472
491,493,446,491,482
490,492,395,490,483
491,492,372,488,483
489,491,373,491,486
488,491,381,489,485
493,493,406,490,481
490,492,461,489,489
487,492,522,488,489
487,494,601,487,488
489,493,635,488,489
490,493,630,488,487
488,492,597,489,491
491,492,500,490,490
490,493,418,489,489
491,492,384,491,491
488,491,370,490,490
490,491,377,488,485
490,492,385,487,489
488,491,430,487,488
489,493,491,487,487
490,492,556,486,488
490,493,623,488,489
489,494,637,490,490
489,493,623,488,486
490,492,564,490,491
488,493,459,490,488
489,491,400,491,487
490,492,371,489,489
490,494,372,490,490
489,492,380,489,493
492,492,404,487,494
490,491,455,488,488
489,491,514,489,485
489,494,589,488,484
488,493,633,489,488
490,492,632,487,489
491,495,608,489,488
489,494,517,491,492
491,493,426,490,495
489,492,388,490,486
490,491,370,490,481
491,491,377,490,484
489,492,387,491,490
488,491,423,490,487
490,493,480,488,485
490,492,545,488,489
489,491,615,487,489
490,493,635,487,489
489,493,627,489,491
491,494,575,492,493
491,492,471,489,497
490,492,406,489,498
489,491,373,488,494
488,492,371,491,486
487,492,378,492,478
487,491,395,489,483
490,491,446,488,484
488,491,507,489,486
490,492,579,487,487
492,493,633,487,491
490,491,632,487,491
490,493,615,488,487
490,491,531,491,488
492,492,434,493,490
491,492,391,490,488
490,493,369,490,489
490,493,374,490,491
489,493,383,489,487
488,491,414,491,486
491,492,471,488,486
492,492,535,487,488
489,491,612,489,490
488,494,634,492,491
489,493,628,492,490
491,492,582,487,492
491,493,483,488,488
491,492,411,490,488
490,493,376,491,489
489,491,371,492,489
491,492,380,490,489
490,492,392,488,487
490,491,439,489,487
490,492,499,490,489
489,491,565,488,488
491,492,628,489,488
490,491,634,490,489
491,493,618,488,487
493,494,544,489,485
493,494,444,490,491
488,492,394,489,493
491,491,368,489,490
489,491,372,490,492
489,491,381,490,492
489,491,407,490,485
489,491,462,489,486
489,491,522,488,488
489,490,604,488,487
491,492,633,489,489
492,492,628,489,488
492,492,595,489,490
492,492,497,490,491
490,492,415,490,490
490,493,381,487,490
489,490,368,490,488
489,492,375,490,486
490,492,387,491,492
489,491,432,490,490
489,492,492,487,490
489,491,557,486,490
490,492,623,489,488
491,492,636,490,489
490,493,621,487,487
489,491,560,491,490
492,493,455,491,490
489,491,398,491,488
490,493,368,490,485
489,493,372,492,486
488,491,379,489,487
491,491,402,490,488
489,491,456,489,493
490,491,516,489,491
489,491,594,490,489
488,492,633,490,490
491,491,630,489,490
491,493,609,490,492
491,494,512,491,491
491,492,424,490,489
492,493,387,488,486
494,490,370,490,488
490,490,376,490,490
489,492,385,492,490
488,490,423,490,490
489,491,481,489,489
489,492,546,489,490
490,491,614,488,486
490,492,636,490,488
490,493,626,489,488
492,492,573,487,490
493,492,468,488,488
490,491,404,490,492
490,490,371,489,492
491,492,371,492,489
489,491,377,491,486
490,492,396,489,488
490,493,447,489,488
490,491,509,490,489
491,492,581,488,488
489,491,632,490,490
490,490,632,491,491
490,491,617,491,491
490,491,529,490,489
492,491,432,491,491
490,491,391,490,491
490,492,367,489,489
490,492,372,488,490
491,492,383,488,490
489,490,415,489,490
491,491,471,488,489
490,493,538,490,491
488,490,613,490,492
489,491,634,491,491
491,492,628,490,491
492,492,580,489,490
492,492,482,491,489
490,493,409,490,489
491,492,375,489,489
493,491,369,489,489
490,491,379,490,491
490,492,393,490,489
492,492,438,486,489
489,492,500,489,491
488,492,567,489,487
487,492,627,487,487
488,491,633,491,489
491,492,619,493,493
490,491,542,491,493
491,492,440,490,493
492,491,393,490,491
492,491,367,489,489
490,490,371,490,491
491,492,381,489,489
489,492,407,488,489
489,491,462,486,490
489,492,523,489,490
488,490,605,492,489
491,491,634,491,490
490,490,629,490,491
490,491,593,490,493
491,493,496,491,489
493,493,414,492,491
491,492,380,491,491
489,490,366,491,493
490,490,374,489,491
490,491,386,489,489
491,492,430,489,489
491,491,491,490,491
489,490,558,489,492
490,492,620,489,490
490,491,633,491,490
490,491,621,492,492
491,491,557,491,491
492,492,452,490,491
489,492,397,491,492
491,493,367,489,490
491,492,371,490,491
493,491,379,490,490
495,491,401,490,490
489,491,456,490,491
490,491,514,490,490
489,491,595,491,490
489,491,631,491,489
491,491,626,489,487
493,492,606,491,494
491,493,509,490,492
490,492,422,491,491
491,492,385,490,493
492,491,370,490,494
491,490,374,491,491
490,493,384,492,492
488,491,423,492,491
491,491,482,497,488
490,491,547,497,488
490,492,615,497,491
492,491,634,497,491
492,491,626,494,491
490,493,569,494,494
492,493,466,492,492
491,490,404,492,491
490,490,370,490,489
492,492,370,492,491
489,491,379,491,492
489,494,396,491,490
489,492,449,494,490
490,491,508,492,490
493,492,582,488,492
489,492,630,489,493
490,491,629,489,490
491,491,616,494,492
489,491,525,490,493
490,491,431,487,494
491,491,390,485,495
489,493,368,484,494
488,491,373,484,492
491,492,384,486,490
491,492,417,486,492
491,491,473,485,492
490,492,539,489,494
489,492,611,488,492
490,492,634,488,489
491,493,625,488,491
488,492,580,492,494
491,492,481,492,495
492,493,410,492,494
490,491,374,489,492
493,491,371,490,490
489,491,379,491,491
488,490,393,490,491
491,491,440,488,490
490,490,501,490,493
489,490,570,489,490
490,492,628,489,491
490,493,631,489,493
492,492,619,491,493
490,491,541,490,493
491,491,439,491,494
491,491,393,491,493
490,491,371,492,491
489,491,371,491,491
492,491,382,489,491
489,492,407,491,494
490,490,464,489,493
491,492,526,489,491
492,493,605,489,492
490,491,633,488,491
490,490,628,490,494
491,493,587,490,496
490,491,493,491,494
491,492,413,491,492
490,491,378,491,492
490,491,367,490,494
490,490,376,488,493
491,490,388,491,493
493,491,433,489,493
492,492,494,489,493
489,491,560,490,492
491,493,622,489,491
492,491,632,490,493
492,490,619,489,493
489,493,554,491,494
493,493,451,492,493
490,493,398,492,492
491,492,369,489,495
489,491,370,490,495
490,489,381,490,494
490,490,406,491,494
488,491,457,490,491
489,492,516,490,491
488,491,598,490,492
491,492,631,489,492
491,493,628,489,493
492,493,601,489,493
493,492,510,491,494
491,492,420,491,493
491,491,386,489,492
490,493,370,491,493
489,492,375,491,493
490,492,386,488,492
488,492,427,488,493
490,492,485,490,491
490,491,551,492,492
491,492,619,489,493
491,492,636,491,494
491,490,625,491,492
491,494,567,494,494
493,493,464,491,495
491,492,402,492,494
491,492,368,492,491
491,493,370,491,493
490,491,380,492,495
491,493,400,488,493
489,491,451,489,493
490,491,510,489,491
491,490,586,490,493
489,491,632,492,489
490,490,630,489,492
492,492,612,491,493
491,492,524,491,494
490,492,427,491,494
490,492,388,489,491
493,492,369,489,493
490,490,372,489,496
491,490,382,490,492
490,490,419,491,494
491,491,476,490,493
491,491,539,490,488
491,491,613,490,495
489,493,633,490,495
489,491,627,489,494
492,492,578,489,495
492,493,477,490,494
491,492,409,491,493
490,492,374,490,496
491,493,368,489,493
489,491,377,491,493
491,491,392,491,493
490,492,442,489,494
489,492,502,490,494
490,491,573,489,491
493,493,631,491,492
489,492,633,491,493
492,490,620,490,496
491,492,540,492,496
490,494,438,491,494
491,492,393,491,495
492,492,370,490,492
490,491,370,488,492
492,492,381,489,492
492,493,409,492,493
490,491,466,490,493
491,492,528,487,492
489,490,608,491,495
490,490,635,492,495
490,491,626,492,493
492,492,589,491,492
491,492,490,491,495
491,492,412,491,494
491,492,377,490,493
491,493,369,490,493
492,492,378,491,492
491,492,386,490,491
491,491,435,490,490
491,491,496,491,494
490,491,560,492,495
489,492,624,488,493
491,493,632,490,495
490,491,621,487,491
494,491,554,492,494
493,492,449,492,497
492,492,398,492,496
492,491,371,490,494
490,493,371,489,495
488,491,380,489,494
492,492,404,490,492
490,491,458,490,493
490,491,517,488,493
491,493,600,491,494
490,492,633,490,494
490,492,627,491,494
491,491,602,492,497
491,491,506,491,495
492,492,418,491,494
490,492,384,490,494
493,492,368,490,492
492,490,376,491,493
491,492,384,489,493
490,492,426,489,493
491,493,486,491,493
490,491,551,490,495
491,490,620,488,493
491,493,635,491,493
489,491,623,491,493
491,491,567,492,495
492,491,463,491,495
491,493,401,490,493
491,491,371,491,492
491,492,373,490,494
493,491,379,490,494
493,490,402,490,494
490,492,450,490,495
489,491,510,489,494
491,492,587,491,493
489,492,631,491,491
492,492,629,489,493
491,494,611,490,495
491,493,523,492,495
492,492,427,491,495
491,493,390,490,495
492,491,372,489,495
489,491,374,490,494
490,492,385,489,493
492,491,418,491,492
492,492,477,491,492
489,492,541,490,495
490,492,613,489,495
492,493,634,489,490
491,492,625,490,491
494,492,576,491,497
492,492,476,490,496
491,492,409,490,495
489,491,373,491,494
490,492,371,490,494
491,491,376,491,495
491,490,396,490,493
491,492,444,490,493
490,491,505,490,494
491,491,574,489,494
492,492,629,490,493
491,491,632,492,495
493,493,619,489,496
491,493,536,493,496
490,492,438,492,494
492,492,392,490,496
491,491,372,490,495
491,492,373,491,493
490,492,383,489,495
492,492,412,488,495
491,491,467,488,494
490,493,530,489,492
489,491,609,492,492
491,492,634,491,492
488,493,626,491,492
490,492,586,491,495
492,492,489,491,496
492,492,412,491,494
492,491,378,492,494
494,491,371,489,495
491,490,379,491,495
490,490,391,491,496
491,491,435,491,492
491,492,497,491,494
490,491,562,489,495
492,494,624,489,492
492,492,632,489,494
490,492,620,490,493
494,491,550,492,492
491,492,447,491,496
491,492,394,491,492
492,491,372,492,495
488,491,372,492,495
490,492,380,490,496
492,492,405,489,493
489,491,460,489,492
491,493,520,489,494
490,492,600,489,493
492,491,634,491,495
491,493,627,489,495
489,491,600,490,495
492,494,504,492,495
492,492,418,492,494
490,492,383,492,493
489,491,369,490,494
491,491,378,490,496
491,492,386,488,496
490,491,429,488,493
491,493,488,489,492
491,491,554,488,493
490,490,622,490,493
491,493,634,495,493
489,492,625,489,496
490,493,563,490,494
491,492,461,491,495
491,492,401,491,495
491,491,371,492,493
492,491,372,491,493
490,492,379,491,495
490,491,404,491,495
489,491,453,491,493
490,491,511,489,493
492,492,587,492,492
491,491,633,490,493
492,492,630,488,494
492,492,610,490,494
495,494,520,492,495
492,493,428,491,495
491,493,390,491,495
490,493,368,489,495
491,491,375,491,496
491,491,384,490,494
490,492,420,490,495
492,491,479,489,492
491,492,543,491,493
487,491,616,489,494
491,492,636,491,493
494,490,627,491,494
491,491,574,490,496
491,492,474,492,496
491,492,406,491,495
491,491,370,491,493
490,492,368,489,494
490,493,378,489,495
490,490,397,488,494
492,492,447,490,494
490,491,506,489,494
490,492,578,490,495
491,491,632,491,494
490,490,630,492,494
493,490,619,489,494
491,493,532,490,496
492,492,434,490,495
491,493,392,490,493
493,494,370,490,493
491,491,372,490,493
490,491,384,491,495
490,494,411,489,493
492,491,470,490,492
493,491,533,490,494
488,492,609,491,496
490,491,636,490,495
492,494,629,492,495
489,493,585,490,496
494,494,487,490,496
491,493,412,489,498
491,493,376,489,497
491,491,371,491,495
491,492,379,491,493
490,491,389,491,492
490,493,437,489,492
491,492,499,488,492
491,493,566,491,495
490,493,628,490,494
490,493,632,490,496
493,491,622,490,499
491,492,550,492,497
492,492,446,492,495
491,492,395,491,493
491,492,371,489,493
491,493,369,489,493
491,493,380,488,493
492,494,407,488,493
492,490,461,492,495
491,492,523,491,493
487,493,600,492,495
490,491,634,492,494
490,492,628,491,492
489,492,596,491,498
494,493,501,491,494
493,492,418,492,495
493,493,381,491,495
492,493,370,491,495
493,492,377,491,495
491,491,388,490,493
491,493,428,491,494
491,494,489,490,493
491,491,554,491,493
490,492,621,491,492
490,494,634,490,490
491,492,624,492,495
493,495,562,490,493
491,491,459,491,496
492,491,400,490,498
493,492,371,490,497
492,490,373,491,494
492,492,379,491,494
490,492,402,489,493
490,492,453,491,492
491,493,513,490,491
491,493,589,490,494
490,491,633,493,496
492,492,631,490,494
491,493,611,491,497
492,491,517,492,496
493,492,427,490,495
491,492,389,492,495
490,493,370,490,496
491,493,374,490,493
494,491,386,490,494
489,494,422,489,496
490,493,481,489,495
491,492,545,490,490
491,492,618,489,496
491,493,634,489,495
490,490,625,492,493
490,491,576,493,495
491,494,472,493,495
491,492,407,491,495
491,494,370,491,496
490,492,371,489,493
492,491,380,490,494
491,492,398,490,494
491,491,446,490,492
490,491,506,491,494
491,493,578,489,493
489,492,630,491,493
490,493,630,490,493
492,493,616,490,492
492,494,532,491,496
491,492,434,490,494
493,493,392,490,495
492,491,372,490,499
490,491,374,490,498
491,491,383,489,493
492,493,414,490,491
491,491,470,491,493
491,492,534,491,492
491,493,608,492,493
491,493,635,492,494
492,492,626,493,491
491,490,586,492,498
493,494,484,491,496
491,492,411,492,495
490,492,376,488,494
490,492,368,490,495
492,490,379,489,492
492,493,393,492,492
491,493,438,490,490
492,492,499,490,494
490,491,566,489,495
491,490,628,491,498
491,493,632,490,494
489,492,618,489,493
495,493,544,491,491
493,492,443,492,497
489,492,395,489,495
491,494,372,491,494
489,492,372,489,496
490,493,380,490,496
492,490,410,491,495
491,491,462,491,492
491,491,523,491,492
492,492,603,492,493
490,492,635,490,494
493,493,627,489,495
492,494,593,491,496
493,493,499,490,495
492,492,417,491,494
491,491,383,491,493
490,493,368,492,492
490,491,376,492,493
490,491,386,492,494
489,493,429,490,493
490,493,492,491,494
490,493,555,489,494
490,492,624,491,495
492,492,636,491,496
492,491,623,491,494
495,492,563,492,496
492,493,456,492,495
491,492,399,490,494
493,493,369,490,491
490,493,370,489,496
490,493,378,489,493
493,490,405,492,494
490,492,454,490,494
490,491,515,489,494
491,491,595,490,495
491,491,633,491,495
490,491,629,489,493
493,492,607,493,493
490,492,513,491,496
491,493,425,491,493
491,493,386,490,492
493,493,369,490,493
493,492,376,489,493
490,493,385,490,496
490,491,422,489,493
490,492,482,489,493
489,492,546,491,494
489,491,617,491,493
491,492,636,491,494
491,493,624,490,496
491,492,575,491,495
493,493,469,491,494
492,493,406,490,496
492,491,373,490,494
492,493,374,492,496
490,493,379,491,497
492,491,398,492,493
490,492,447,491,492
490,492,506,491,492
491,492,583,491,492
491,494,632,492,492
491,492,632,491,494
492,492,618,490,497
492,492,529,491,495
492,492,431,490,496
491,493,391,490,494
489,492,371,492,494
492,491,374,490,493
491,492,383,490,494
492,493,414,489,494
491,492,472,489,492
490,492,537,489,493
491,492,609,491,491
491,492,637,491,492
489,492,627,492,494
490,491,584,493,494
494,493,483,489,497
492,492,410,490,495
491,490,374,490,494
492,492,371,490,494
493,491,379,489,489
494,492,391,491,493
489,492,441,490,495
489,492,502,489,495
488,492,570,491,492
490,492,630,491,492
491,492,632,490,492
491,493,619,490,497
491,492,544,492,496
491,493,443,491,495
492,493,396,490,494
492,492,372,489,495
490,491,374,491,495
491,494,382,489,494
490,491,411,490,493
492,492,464,490,493
491,492,526,490,492
489,493,603,490,492
492,493,636,491,494
490,492,630,490,494
489,491,592,492,495
492,492,498,490,495
491,492,417,491,495
491,491,383,492,494
492,493,370,492,493
491,493,377,491,494
491,493,385,489,492
490,494,432,489,494
490,492,493,490,492
492,491,557,489,493
489,492,623,490,495
491,491,636,489,494
491,493,623,492,495
491,492,561,494,495
492,493,456,492,495
491,492,399,491,495
493,494,369,490,492
491,491,373,491,495
491,493,380,489,494
493,493,405,488,494
491,492,456,489,493
490,492,515,491,494
490,491,594,491,493
491,492,633,492,494
491,493,629,491,493
491,493,605,493,493
490,491,513,492,495
492,493,422,490,494
491,492,387,490,494
493,493,371,489,495
492,492,378,490,494
491,491,387,492,496
491,491,423,490,493
492,491,484,491,493
492,490,548,491,488
492,491,617,491,495
489,494,634,489,494
491,494,625,489,494
490,492,574,489,495
492,494,467,492,494
492,492,405,490,495
491,491,373,491,496
489,492,373,492,495
489,493,379,490,496
490,493,398,491,495
490,492,450,491,491
492,492,508,490,493
491,494,582,489,492
491,494,633,492,493
491,492,632,491,494
493,493,614,491,495
492,491,527,493,497
493,493,431,492,495
491,493,392,493,493
490,492,370,491,496
491,491,376,489,491
493,493,385,492,494
489,494,416,489,493
492,493,474,490,493
492,493,539,490,495
490,492,610,490,492
492,491,637,491,494
491,493,627,491,493
488,493,581,490,495
491,494,482,491,494
491,493,410,491,493
492,491,375,489,493
492,492,371,492,494
491,491,380,491,496
491,491,395,490,496
490,492,442,489,494
491,491,502,489,493
491,492,569,489,493
493,492,628,490,493
491,493,631,488,493
492,493,620,488,493
493,495,543,492,496
494,493,442,492,497
494,493,396,491,493
492,494,369,492,498
490,491,373,489,495
490,492,382,490,493
489,492,409,491,494
491,492,464,491,492
490,492,529,492,494
491,493,604,490,493
492,493,635,490,493
492,493,629,490,494
491,493,589,491,496
492,491,496,489,493
491,493,415,491,494
490,492,380,491,494
491,491,369,490,491
490,494,379,491,494
491,492,387,489,492
491,491,435,491,493
490,491,494,491,493
492,492,560,490,495
492,492,626,491,495
491,491,635,489,496
491,493,621,491,496
490,493,557,492,496
492,492,451,492,494
491,492,397,489,493
492,495,368,489,492
490,491,372,491,494
493,492,381,491,492
491,493,407,492,495
489,491,457,490,492
492,492,518,490,496
490,492,596,489,495
492,493,632,491,493
491,492,632,491,492
491,494,601,491,494
493,494,509,492,493
493,492,421,491,495
490,493,385,491,496
492,491,369,489,492
492,491,378,492,492
490,491,386,492,495
488,492,425,490,494
489,492,485,490,492
492,491,550,490,493
490,494,618,490,492
489,493,636,490,495
491,492,626,491,497
493,491,572,492,498
492,492,465,492,497
491,492,404,491,493
492,494,370,489,492
491,492,370,490,493
491,493,378,489,494
491,494,398,488,493
491,492,452,489,492
490,492,511,491,493
491,492,587,490,495
491,490,633,492,495
490,492,630,493,495
490,493,614,490,495
491,493,524,493,496
493,493,430,492,494
491,493,390,490,493
491,494,369,489,493
493,492,376,489,495
492,492,384,491,493
490,491,419,491,494
491,493,476,489,494
490,492,540,492,494
489,491,613,492,494
491,492,635,489,495
491,491,628,490,494
491,494,583,493,495
492,493,479,493,493
492,492,408,489,494
493,491,376,489,495
492,492,369,491,493
489,491,379,492,493
491,493,394,492,492
489,493,442,491,493
490,492,502,491,493
491,493,570,491,494
490,492,631,490,494
491,493,631,490,492
492,492,622,491,495
493,491,540,492,495
493,492,439,491,493
492,492,395,491,495
491,494,369,492,494
489,493,374,491,495
490,494,382,490,493
491,494,409,490,494
492,493,466,490,492
492,492,529,490,491
491,492,608,490,491
491,494,635,491,494
489,492,629,492,493
489,492,589,494,496
492,494,494,492,491
494,493,413,492,492
492,492,381,493,496
493,494,372,490,496
491,491,378,491,500
492,491,391,491,498
491,493,433,490,493
490,492,494,490,492
491,493,561,489,491
491,492,625,490,492
490,493,633,490,494
491,493,622,489,492
491,492,557,493,494
493,493,450,492,494
491,492,398,491,495
491,492,373,491,495
490,491,373,492,495
490,492,381,490,493
493,494,405,492,492
491,492,458,490,492
490,493,518,490,492
491,493,597,490,492
491,493,634,490,491
491,493,628,491,494
491,492,604,490,497
492,495,509,492,497
492,493,423,492,496
491,493,385,492,495
490,492,372,489,495
491,493,376,490,493
490,491,388,493,492
493,493,428,491,491
492,493,486,491,493
490,491,551,490,495
491,492,620,490,491
491,494,636,491,494
489,493,624,489,494
490,493,569,492,493
491,493,464,492,494
490,492,402,490,493
491,492,372,491,491
492,493,372,492,493
490,492,381,491,495
492,492,403,491,494
490,491,451,491,494
490,492,509,490,493
491,492,587,492,492
492,493,633,489,493
492,493,629,489,492
492,494,612,490,493
492,494,522,490,495
492,492,430,491,494
492,492,389,491,492
490,491,372,490,494
490,491,377,492,494
489,491,385,493,494
490,491,418,492,492
492,493,477,491,494
490,493,540,490,495
490,491,613,487,494
492,493,637,489,495
492,492,627,491,494
493,492,578,491,492
493,493,479,491,493
491,494,407,491,495
493,492,375,492,494
491,493,370,491,494
490,493,378,490,497
491,491,398,489,492
492,493,445,491,491
493,491,504,489,494
490,492,575,490,493
492,491,631,492,495
488,493,631,489,495
489,493,619,492,495
493,493,536,491,496
492,492,438,491,493
490,493,393,491,490
489,494,369,490,493
491,493,374,492,493
490,492,385,491,495
489,493,410,491,495
491,492,470,490,492
491,492,532,492,492
490,492,608,492,493
491,492,636,491,492
490,493,629,492,495
490,494,585,490,494
493,495,493,491,494
492,493,413,492,494
492,492,379,493,493
493,493,373,491,490
491,494,377,491,495
489,492,392,492,493
490,491,436,492,492
490,492,496,490,494
491,492,562,489,493
490,492,629,491,496
492,492,634,490,493
493,493,623,490,494
492,494,553,491,494
491,493,449,492,494
490,493,397,490,494
490,492,369,489,494
492,492,372,491,494
491,493,381,491,493
490,493,405,490,493
490,493,461,491,493
490,494,521,491,492
490,492,600,490,494
493,492,636,491,494
491,492,631,492,495
489,491,602,490,495
492,494,505,492,494
492,492,419,491,495
491,493,382,491,493
490,494,370,489,493
492,493,378,489,494
490,492,387,493,494
493,492,430,491,492
493,492,488,491,489
493,492,554,492,496
487,492,623,492,496
489,493,634,492,492
491,492,625,491,498
491,495,566,491,497
492,492,462,492,493
492,493,402,490,493
492,494,370,490,491
491,492,374,491,492
491,492,381,491,494
491,494,400,489,493
489,491,453,489,494
490,492,513,491,493
489,492,587,492,491
491,492,634,491,493
491,494,630,489,494
489,493,611,486,494
493,493,521,491,495
493,492,430,492,494
492,492,389,492,493
490,491,372,493,494
492,494,376,490,493
490,492,384,491,492
490,493,419,490,489
493,493,479,490,492
488,493,542,491,494
488,491,615,490,494
492,492,636,492,492
491,491,627,492,495
492,493,581,493,495
492,494,477,493,495
493,494,407,491,493
491,493,373,490,493
493,491,368,490,493
492,494,378,490,493
492,494,396,489,494
492,494,446,491,495
490,492,504,489,494
491,494,576,490,495
490,490,632,492,494
490,491,632,492,490
491,494,618,493,494
494,493,536,493,495
492,493,436,492,497
490,494,393,491,495
490,493,369,490,492
491,493,375,491,493
491,493,385,490,494
489,493,411,490,494
491,492,471,490,494
491,493,533,491,494
489,492,609,492,494
490,493,635,491,490
492,494,629,492,494
490,495,585,490,493
489,493,491,493,495
491,492,412,491,495
491,492,380,490,496
493,492,372,491,493
490,494,376,492,494
491,492,391,489,494
493,493,437,491,493
491,492,498,491,494
491,493,563,489,491
490,492,630,491,492
491,492,634,490,492
491,494,621,491,497
492,492,551,493,496
492,492,447,492,494
493,493,398,492,494
491,492,370,490,495
491,492,371,491,493
491,491,383,492,492
491,494,406,490,492
491,493,460,490,492
491,493,522,489,492
489,492,600,489,494
492,492,634,489,492
492,492,631,492,494
489,491,598,493,494
491,492,503,491,494
492,492,420,490,495
491,493,382,490,496
492,492,373,489,494
492,492,377,490,494
491,491,388,489,493
494,491,431,490,493
489,492,489,490,494
491,492,553,489,493
489,491,622,492,492
491,493,632,490,492
492,493,622,489,491
491,495,564,491,496
491,493,462,492,495
493,494,402,490,493
491,492,371,490,494
490,491,373,492,494
489,491,381,492,492
490,493,401,490,493
490,491,453,491,495
489,494,513,489,493
490,494,588,488,493
491,494,632,488,494
492,495,631,491,493
489,494,611,490,494
493,494,518,491,489
492,492,427,493,493
492,491,390,494,499
490,491,372,493,496
492,492,377,490,494
489,493,383,490,495
491,492,421,490,491
491,493,481,490,493
490,493,543,489,493
492,493,616,489,494
492,493,634,490,492
490,491,626,492,493
491,495,576,493,494
491,492,473,492,494
491,491,407,491,493
491,493,372,490,495
492,492,369,490,494
492,492,379,491,493
492,493,398,490,493
492,492,446,490,494
491,492,506,490,494
491,494,576,489,492
491,491,630,490,495
491,492,631,490,493
490,494,616,491,493
491,495,532,492,495
492,494,435,491,495
492,494,394,491,492
492,492,371,491,496
492,492,376,490,493
493,491,385,492,497
488,491,414,491,494
489,492,471,489,493
491,493,533,490,492
489,491,610,490,493
491,494,635,489,491
491,494,627,491,492
493,495,585,491,496
492,493,488,491,493
492,492,411,491,493
491,494,379,492,495
492,492,372,492,495
488,492,377,492,493
490,492,393,490,494
495,492,437,491,493
491,492,498,490,493
490,493,566,489,492
491,493,627,491,496
492,492,634,491,493
490,495,620,491,496
492,494,546,493,494
493,493,446,492,496
492,492,397,492,494
491,492,371,493,494
491,494,371,490,492
491,493,385,490,491
492,495,407,491,493
489,493,463,490,488
491,494,524,490,494
491,492,603,491,496
492,491,633,490,493
491,491,631,491,495
492,494,594,490,493
491,492,502,492,495
492,492,418,492,494
491,492,382,492,495
493,493,372,490,492
492,493,378,490,495
490,493,387,488,493
492,494,432,489,493
490,493,490,489,493
490,493,554,491,491
491,491,625,492,493
491,493,633,490,493
490,493,623,492,492
490,493,563,492,493
490,492,457,491,495
491,492,402,491,494
491,494,369,490,492
491,491,371,491,492
494,493,383,490,495
489,492,405,490,495
490,492,455,490,493
492,493,513,490,492
490,492,592,489,494
492,493,632,490,491
492,494,629,490,492
491,494,608,491,494
493,493,517,493,495
493,494,426,491,494
491,492,386,491,496
493,492,373,491,494
491,490,377,492,494
490,491,385,489,494
492,493,422,490,492
489,493,482,490,494
490,493,545,488,492
491,494,616,489,493
492,494,636,490,494
492,492,626,490,492
492,494,574,490,495
491,493,470,491,495
491,492,407,492,495
491,493,373,492,494
489,493,370,490,492
491,492,381,491,490
492,494,397,491,494
489,492,448,491,494
492,492,509,490,495
491,492,581,491,494
491,491,632,490,492
491,494,633,491,493
489,493,618,491,496
490,494,530,493,496
491,494,435,491,494
490,493,392,491,493
491,492,373,491,494
493,493,376,491,494
491,492,385,491,495
493,491,416,491,493
494,492,473,490,493
490,493,536,492,495
489,494,610,489,493
489,493,635,490,495
490,491,629,489,491
491,495,583,491,492
494,494,486,493,495
492,493,411,493,493
490,492,379,490,494
493,492,370,490,493
489,492,379,491,494
488,493,395,492,494
490,492,439,491,494
492,492,500,490,492
491,493,567,491,494
490,492,627,490,493
492,493,633,490,494
493,493,622,490,494
493,493,543,492,494
491,492,444,491,495
491,493,396,491,494
490,491,371,493,494
491,493,372,491,492
491,493,381,491,491
491,493,407,491,494
492,492,463,491,493
491,492,525,492,492
493,493,604,490,494
492,494,636,491,493
490,492,630,492,493
492,495,592,490,496
491,493,500,490,494
491,493,415,490,494
491,493,380,491,492
490,493,370,490,492
491,494,379,494,494
490,493,388,490,492
491,492,433,490,493
491,493,490,489,492
491,492,558,490,492
492,492,626,490,490
492,493,633,491,494
490,492,624,489,494
493,492,559,491,495
491,493,454,490,494
491,492,400,491,492
491,494,369,491,492
490,491,372,493,494
493,493,382,491,492
490,493,405,491,494
491,492,456,490,494
491,493,516,491,491
491,491,593,489,489
493,493,632,490,495
490,492,632,492,493
492,494,605,491,495
492,496,515,491,495
492,494,425,491,495
491,491,387,491,497
493,492,370,490,492
492,492,377,492,494
490,492,386,492,494
490,492,424,491,491
490,492,483,491,493
491,492,545,490,494
490,492,621,490,491
493,492,635,490,494
492,493,625,490,495
494,493,576,490,495
492,493,468,491,494
491,492,406,491,494
492,494,372,489,494
490,492,370,491,492
490,493,378,490,491
490,493,398,490,494
490,492,449,490,491
491,493,511,491,493
489,493,583,490,494
492,492,632,491,493
493,492,633,492,494
491,493,614,491,494
490,492,528,492,495
492,493,434,492,494
490,493,390,492,493
492,494,369,489,492
491,494,375,490,493
489,492,384,489,494
492,493,416,490,492
490,492,475,491,492
491,492,537,491,494
489,492,613,491,492
491,493,636,491,493
491,491,627,490,494
491,494,586,492,497
493,494,482,492,495
493,493,409,491,494
493,493,378,490,493
493,493,370,491,492
490,491,379,492,493
492,495,393,493,494
490,491,440,491,493
490,492,500,491,492
491,493,568,491,494
492,491,627,490,490
494,492,633,491,494
491,492,622,489,496
492,492,543,490,495
492,493,443,490,495
490,493,395,490,494
490,491,372,490,493
493,492,372,491,492
490,493,381,491,492
490,494,407,490,493
491,493,464,491,494
491,492,527,491,494
493,492,605,488,493
491,494,635,492,493
489,491,630,493,492
489,491,594,494,494
491,493,498,492,493
492,493,415,492,492
491,492,382,491,495
490,494,370,490,493
492,493,377,490,492
493,492,389,490,494
490,493,432,492,494
491,491,491,489,492
489,494,560,490,492
489,492,625,491,492
491,493,632,490,492
492,493,624,492,495
491,494,557,491,494
491,492,454,491,492
492,493,401,491,493
494,492,371,491,495
493,490,373,491,495
491,492,381,490,492
492,494,404,492,492
490,493,457,490,494
490,492,516,491,494
490,494,593,489,493
490,494,633,489,493
490,493,630,491,495
490,492,606,492,492
490,493,512,491,494
493,492,425,492,495
491,492,387,492,495
490,491,371,490,494
491,493,376,491,493
490,492,387,490,490
491,495,426,489,494
490,493,485,490,494
491,493,548,490,492
490,493,619,490,495
492,491,634,490,493
492,492,626,492,495
491,493,575,494,495
491,493,468,492,495
492,493,405,491,493
492,492,374,490,490
491,493,370,492,496
490,492,381,489,495
489,493,400,489,492
491,492,449,490,491
491,492,509,490,492
489,491,585,491,494
491,494,631,487,493
490,493,631,490,492
491,494,614,492,492
491,494,526,491,494
492,493,434,492,493
491,493,391,493,494
491,493,372,490,494
492,491,376,491,494
491,491,385,491,495
490,494,415,489,490
489,492,476,491,492
493,491,538,491,493
489,493,612,491,491
492,493,635,490,492
492,493,626,490,494
493,496,584,493,494
491,493,482,491,496
493,493,409,491,494
492,492,379,492,496
491,492,372,492,494
490,491,378,491,494
492,491,394,491,493
489,492,442,490,494
490,493,501,490,492
491,493,571,490,491
492,494,629,490,493
492,493,633,492,493
491,492,623,491,492
491,494,539,491,494
492,493,442,491,494
490,492,396,492,493
489,492,371,489,495
493,492,373,490,494
491,491,383,491,494
491,495,409,489,492
491,493,466,489,492
491,493,528,489,493
491,492,606,489,492
491,494,634,491,493
490,491,628,489,493
495,492,591,492,493
490,493,495,491,495
490,492,414,490,494
491,492,382,492,495
491,495,371,490,494
489,492,376,490,494
492,492,391,490,494
492,491,435,491,494
490,492,492,490,493
490,493,560,491,492
488,493,626,491,495
491,492,632,490,492
493,494,622,489,492
493,496,556,491,495
491,492,453,491,495
492,493,400,490,493
