Sensor0,Sensor1,Sensor2,Sensor3,Sensor4

5,492,497,497,493
372,492,498,496,493
3,290,493,496,497
493,258,494,496,495
493,267,495,497,494
493,295,492,497,497
493,372,492,498,496
493,480,494,497,495
493,603,493,497,494
493,755,494,498,496
493,777,492,498,495
493,750,495,497,495
493,650,496,497,494
493,450,494,496,495
493,324,493,497,496
494,262,493,499,497
494,252,493,497,496
493,276,492,497,496
493,321,491,498,496
493,419,495,498,496
493,531,493,497,495
493,673,492,499,497
493,779,494,500,496
493,769,494,499,496
493,735,495,499,495
492,557,493,497,496
493,373,493,498,496
493,296,493,497,494
493,248,495,497,495
493,260,493,496,494
493,287,493,499,496
493,359,493,497,496
493,470,494,498,495
493,586,493,497,498
493,740,493,498,497
493,784,493,498,496
493,752,493,497,497
493,673,494,496,495
493,472,494,497,495
493,332,494,498,495
494,266,495,499,494
493,251,492,497,497
493,272,494,497,494
493,313,493,499,494
493,402,493,497,495
493,516,493,498,495
493,648,492,496,495
493,770,493,499,495
493,773,493,499,497
493,738,495,497,494
493,593,493,498,496
493,393,493,498,496
493,306,494,499,495
493,242,492,497,494
493,260,495,496,496
493,286,495,496,494
493,340,494,497,495
493,450,494,497,495
493,567,494,499,496
493,722,493,497,495
493,788,494,498,496
494,763,493,499,497
493,686,493,498,497
493,503,492,497,494
493,338,494,498,496
493,277,492,495,494
493,253,495,498,494
493,273,495,498,495
493,299,495,498,493
493,390,494,497,494
493,500,493,498,496
493,630,493,499,497
493,770,493,497,495
493,775,493,498,496
493,747,492,497,496
494,620,496,498,495
492,412,493,497,496
493,310,494,497,496
493,247,492,498,497
493,258,493,500,497
493,283,494,498,495
493,328,492,498,495
493,436,493,496,495
493,554,495,497,494
493,709,496,499,494
493,781,495,497,494
493,771,494,499,495
493,703,493,497,496
493,529,494,496,494
493,348,494,497,495
493,280,492,497,496
493,244,492,497,497
493,268,495,497,494
493,293,493,499,497
493,372,493,497,495
493,486,494,499,496
493,614,495,499,495
493,762,495,498,496
493,783,493,498,495
493,749,494,499,497
493,639,494,496,495
493,432,494,497,495
493,315,492,496,495
493,254,495,499,495
493,247,492,497,494
493,274,494,498,496
493,323,493,499,496
493,420,493,498,496
493,539,493,497,494
494,680,495,500,496
493,781,492,498,496
493,772,495,497,493
493,728,495,498,495
493,549,494,497,495
493,366,494,497,495
493,292,494,496,495
493,237,494,498,494
493,256,492,497,496
493,284,492,497,497
493,357,492,497,495
493,470,494,498,494
493,595,493,500,494
493,746,494,499,495
493,790,495,499,495
493,760,495,498,495
493,667,496,497,496
493,461,494,497,495
493,322,493,497,496
493,251,494,496,493
493,238,492,497,495
493,266,492,496,496
493,313,496,498,496
493,405,492,499,495
493,524,493,497,496
493,668,493,500,497
493,782,495,499,496
493,781,495,499,495
493,741,493,497,496
493,579,495,497,496
493,380,493,496,495
493,293,494,497,494
493,238,495,496,494
493,251,493,499,495
493,283,493,497,495
493,348,494,497,495
493,456,494,498,495
493,575,493,498,497
493,737,492,497,496
493,788,494,496,496
493,769,494,496,496
494,679,495,499,495
493,488,494,498,495
493,331,493,498,495
493,265,492,495,496
494,238,495,497,494
493,266,493,498,494
493,291,493,496,493
493,390,494,497,495
493,507,494,497,495
493,641,492,499,495
493,779,493,498,496
493,783,495,496,494
493,755,494,499,497
493,612,494,499,495
493,403,493,497,496
493,301,492,496,496
493,241,493,496,495
493,247,495,497,494
493,273,495,497,494
493,327,494,496,495
493,442,492,497,494
493,559,493,497,494
493,727,494,500,494
494,792,493,497,496
493,768,492,498,497
494,705,491,497,494
493,516,494,497,495
493,338,494,496,495
493,277,493,499,496
493,241,494,499,495
493,260,494,498,495
493,290,495,497,494
494,376,493,497,495
493,490,493,497,496
493,627,493,496,494
493,765,494,498,496
493,788,492,498,497
493,758,496,497,494
493,638,493,498,497
493,425,493,496,496
493,310,493,498,496
493,244,493,499,496
493,246,495,498,495
493,269,492,498,494
493,321,492,498,497
493,428,494,497,495
493,547,495,498,494
493,696,494,498,495
494,796,495,499,496
493,776,493,497,495
493,734,496,496,497
493,544,494,496,496
493,356,493,497,496
493,284,493,498,498
494,241,493,495,494
494,257,493,499,496
493,280,491,496,494
494,363,495,498,494
493,477,494,498,495
493,605,494,497,496
494,761,492,497,495
493,789,493,499,497
493,761,492,496,495
493,657,493,497,496
493,449,493,497,495
494,322,494,497,495
493,246,492,497,495
493,236,493,498,495
494,270,494,499,495
493,313,494,499,495
493,413,494,497,495
493,530,494,498,495
493,675,491,497,497
493,788,494,497,494
493,778,494,496,495
493,742,494,496,495
493,569,493,495,496
493,374,494,496,495
494,288,494,499,494
493,230,493,496,495
493,247,491,496,496
494,273,494,497,495
494,350,494,497,496
493,460,493,497,495
494,588,494,496,495
494,745,494,497,495
493,791,493,497,495
493,765,493,500,496
493,682,495,496,494
493,476,492,497,495
493,324,494,496,494
493,251,493,496,493
493,228,492,496,495
493,266,494,498,495
493,291,492,499,494
493,397,493,496,495
493,516,493,497,495
493,650,492,498,496
493,779,493,498,496
493,780,494,496,494
493,751,494,500,496
493,593,493,497,495
493,388,494,498,495
494,290,494,498,495
493,231,495,496,496
493,235,496,497,494
493,262,492,498,497
493,317,493,496,494
493,429,495,498,495
493,552,494,496,494
493,724,493,498,493
493,784,494,499,496
493,770,492,496,494
494,689,495,496,495
493,501,494,497,494
492,329,492,497,495
493,260,494,495,493
494,233,494,499,495
493,249,493,495,495
493,282,492,496,495
493,377,492,497,494
493,496,494,498,497
493,635,493,497,496
493,777,495,497,494
493,793,494,498,496
493,760,494,500,497
493,633,495,498,496
493,414,493,496,495
493,304,494,497,496
493,230,494,499,494
493,241,495,497,495
494,265,495,496,494
493,321,492,497,495
493,431,494,498,495
493,552,493,498,494
493,709,494,496,493
493,793,493,496,495
493,773,492,496,496
493,729,492,497,494
493,532,493,496,495
492,350,493,496,494
492,277,494,496,494
493,234,495,496,495
494,253,494,497,494
493,287,491,497,493
493,368,494,497,495
493,486,493,497,494
494,619,495,497,494
493,773,495,497,494
493,801,492,497,496
494,770,497,497,495
493,658,492,498,494
492,449,494,496,495
493,322,495,497,494
493,252,495,498,495
493,244,492,498,493
493,274,491,496,495
493,326,494,498,494
493,426,494,498,494
493,547,494,498,495
493,693,492,496,497
493,799,495,497,497
493,794,494,497,496
493,748,492,496,495
493,566,493,497,495
493,372,493,496,496
494,296,494,496,494
493,245,493,499,495
493,253,491,496,495
493,289,494,499,496
494,360,494,498,496
494,475,493,497,495
493,600,492,499,495
494,766,493,496,496
493,809,494,499,495
493,780,494,500,497
493,681,493,499,497
493,474,493,496,495
493,328,494,498,495
493,252,492,499,496
493,245,494,498,495
493,268,494,499,496
494,308,492,496,494
493,405,494,499,495
494,524,494,497,495
494,674,494,500,497
494,796,495,498,496
494,792,494,499,496
493,758,492,498,494
493,591,494,498,495
493,386,493,497,495
493,299,492,497,497
493,237,492,498,496
493,250,492,497,497
493,277,495,496,494
493,339,492,496,495
493,458,494,497,495
493,578,493,498,496
493,742,492,498,496
493,801,492,497,494
493,776,493,499,497
493,691,495,497,495
492,501,492,496,495
493,334,493,497,495
493,268,493,499,498
494,234,493,495,495
493,266,494,496,494
494,288,492,498,496
494,395,494,497,495
493,508,493,498,495
493,645,494,499,497
493,780,493,497,495
493,795,494,499,495
493,755,492,499,497
494,627,494,498,496
493,410,493,496,496
493,306,493,495,495
494,233,493,500,495
493,238,492,496,494
493,277,493,497,496
493,332,493,498,496
493,438,493,498,495
494,561,493,497,495
493,724,493,497,494
493,797,494,499,495
493,783,495,500,496
493,718,493,500,497
493,529,493,497,495
493,344,493,498,496
493,271,492,496,496
493,241,494,498,494
494,259,495,498,494
494,287,495,498,494
494,374,493,497,496
494,492,493,498,495
494,626,494,500,497
494,769,493,498,496
493,795,493,498,497
494,764,492,498,498
494,650,495,496,496
493,434,492,497,495
493,312,494,498,496
494,249,494,500,495
494,243,495,498,495
494,270,492,497,497
493,319,494,496,494
494,427,493,498,495
493,547,494,497,494
494,696,493,497,495
493,795,493,498,495
494,786,496,498,497
493,741,495,498,495
493,554,493,497,496
493,364,493,497,495
493,289,494,499,497
493,243,494,499,496
494,255,493,497,495
494,282,496,498,498
494,363,494,497,495
494,477,495,498,495
494,602,493,498,495
494,758,495,500,495
494,797,493,498,498
494,767,495,497,498
494,674,493,499,496
494,460,494,498,496
494,323,494,499,496
494,249,492,499,496
494,242,492,498,498
494,269,494,497,494
494,309,495,497,495
494,411,494,498,495
493,533,494,499,495
494,672,493,497,496
494,793,495,498,497
493,787,493,499,498
494,754,494,499,498
494,581,494,498,496
494,380,494,497,495
495,296,494,499,496
494,232,493,497,495
494,256,496,499,495
494,281,495,498,495
494,343,495,498,496
494,462,494,498,495
494,582,494,499,497
494,744,494,497,497
494,798,493,497,496
494,770,493,498,498
494,687,496,498,496
494,490,494,498,496
494,329,495,499,497
494,270,494,501,496
494,243,496,499,495
494,267,495,497,497
494,299,495,497,495
494,398,494,499,497
494,515,494,498,496
494,647,493,497,495
494,777,493,498,497
494,786,492,499,495
493,753,495,498,498
494,612,495,498,496
494,403,494,498,496
494,306,495,499,496
494,245,495,501,496
494,249,493,497,497
493,278,495,497,498
494,336,493,497,495
494,444,494,497,495
494,564,494,497,495
494,721,494,500,496
494,798,493,498,497
494,773,496,498,495
494,706,494,499,498
494,520,494,498,495
493,343,494,498,496
494,273,492,496,496
494,246,495,498,497
493,262,496,497,494
494,290,495,496,494
495,381,494,497,495
494,496,494,498,495
493,632,494,500,495
494,768,493,499,495
494,788,496,499,498
494,763,494,499,497
493,640,495,498,497
493,425,494,497,495
493,312,494,497,495
493,238,493,496,496
493,251,495,498,494
494,278,495,497,494
494,325,496,497,495
493,432,493,498,495
494,551,495,498,496
494,707,494,497,495
494,790,493,497,496
495,776,493,497,497
493,724,496,499,495
493,542,493,497,496
493,357,495,498,496
493,288,493,499,497
494,247,493,499,496
494,266,494,499,496
494,291,495,496,496
494,365,495,498,496
494,478,494,498,496
494,608,495,498,494
494,762,496,497,494
494,787,495,497,495
494,764,495,499,496
494,655,494,499,496
493,451,494,497,495
493,323,493,496,496
493,254,493,496,495
494,247,496,497,495
494,277,492,497,497
494,317,495,497,497
493,419,493,497,496
493,537,493,498,496
493,680,494,500,494
493,782,493,499,495
493,781,493,498,496
493,742,497,499,496
493,569,495,497,495
493,377,494,497,495
493,297,495,498,495
494,245,492,498,494
493,258,494,498,496
493,289,493,496,495
493,353,493,496,495
493,466,494,498,495
493,587,495,499,495
493,747,492,496,496
494,789,496,497,497
493,768,494,499,497
493,680,494,499,496
493,480,494,498,496
493,330,494,497,496
494,271,493,495,495
494,249,495,498,494
493,274,495,497,495
493,309,495,497,495
494,406,494,498,496
493,521,494,497,496
494,658,494,497,495
493,773,493,497,496
493,779,493,497,496
493,746,493,497,498
495,595,495,497,495
493,397,494,496,496
493,301,494,497,497
494,249,493,499,495
493,262,495,498,495
494,285,496,498,497
493,339,492,497,495
493,451,493,497,496
494,567,495,498,495
494,727,495,497,494
493,785,494,497,496
494,768,496,499,495
493,690,492,497,494
493,505,495,497,496
493,339,493,498,497
493,279,493,498,498
494,251,494,497,495
493,265,494,499,495
493,298,492,496,496
493,390,495,498,496
493,502,494,498,495
493,633,495,498,494
493,768,496,497,497
493,783,493,496,495
493,747,495,500,496
493,617,493,497,496
493,416,493,497,495
493,313,493,497,496
493,249,496,498,495
494,259,492,499,494
493,278,494,499,497
494,338,494,499,496
493,440,493,498,495
494,553,494,497,496
493,702,495,500,496
493,785,494,498,497
493,764,495,497,495
493,712,494,497,494
493,531,494,497,494
492,354,493,498,495
493,287,493,499,496
494,256,493,496,496
493,267,491,497,497
493,297,492,496,496
493,377,494,498,496
493,486,494,498,495
493,616,494,499,494
493,754,495,499,496
493,786,494,499,496
493,758,496,498,495
493,653,496,498,497
493,439,495,497,495
493,320,494,498,497
493,253,496,497,495
493,252,494,495,495
493,280,494,496,495
493,331,496,500,496
493,423,493,498,495
493,542,494,498,497
493,683,492,498,497
493,785,494,499,497
493,773,494,497,495
493,736,495,500,496
493,553,493,497,496
493,370,494,498,496
493,295,496,497,495
493,253,495,497,494
493,263,495,499,497
493,296,492,496,495
493,367,495,499,495
493,470,493,498,496
494,594,493,498,497
494,746,493,498,497
494,780,494,497,497
493,762,495,496,495
493,661,496,498,495
493,467,494,497,496
493,332,495,497,495
493,265,493,497,498
493,250,493,496,495
494,283,494,499,496
493,310,492,496,496
493,409,494,497,495
493,523,494,497,495
493,658,496,498,498
493,778,494,496,495
493,777,495,500,496
493,744,495,500,495
493,585,496,497,495
493,393,494,497,496
493,302,493,498,495
493,249,496,498,497
493,267,493,496,495
493,285,493,497,495
493,346,493,497,496
493,455,495,498,496
493,573,493,497,498
493,732,496,498,497
493,784,494,499,496
493,762,493,499,495
493,685,494,499,498
493,491,492,498,496
493,340,493,497,496
493,272,495,497,494
493,248,495,496,494
493,273,494,495,494
493,310,496,499,495
493,396,493,497,494
493,509,495,497,496
493,638,494,498,498
493,768,494,499,498
493,778,494,499,497
493,746,492,496,497
493,615,495,499,497
493,407,495,497,496
493,309,496,497,495
493,249,496,496,495
493,258,494,496,496
493,290,495,496,495
493,335,496,497,494
493,440,494,497,494
493,554,494,498,496
493,712,494,499,497
494,778,495,497,495
493,765,496,499,497
494,698,494,499,495
493,521,496,498,496
493,348,495,498,495
493,286,495,498,498
493,254,494,496,496
493,277,491,498,497
493,296,489,497,498
493,379,489,497,497
493,489,490,497,496
493,618,493,497,494
493,755,498,499,495
494,781,497,496,493
493,752,497,500,496
493,641,497,498,496
493,436,495,497,495
494,319,495,498,497
494,253,497,496,498
493,263,496,497,494
493,279,495,497,496
494,327,493,497,496
493,428,494,498,495
493,544,494,498,496
493,690,496,497,493
493,783,495,499,495
493,769,495,499,495
493,729,496,499,494
493,544,495,497,495
493,365,495,497,495
493,294,495,496,493
493,251,495,496,495
494,265,494,497,495
493,292,494,496,495
493,372,496,499,495
493,475,495,497,495
494,601,496,499,497
494,748,492,499,496
493,782,495,499,496
493,758,495,497,495
493,652,496,498,496
493,455,493,496,495
493,330,495,497,495
493,259,496,497,494
493,253,494,496,493
493,285,495,499,494
493,314,493,499,494
493,419,494,497,495
493,526,494,498,495
493,666,493,498,497
493,777,495,497,494
493,772,496,500,496
493,733,494,496,496
493,574,496,498,498
493,382,494,498,495
493,302,495,497,494
493,254,496,498,497
493,269,493,496,495
493,296,494,499,496
493,350,493,497,496
493,460,494,498,494
492,578,493,498,495
493,738,497,500,496
493,783,494,499,495
493,754,495,500,496
493,677,496,501,496
493,483,494,498,495
493,338,494,497,495
493,270,496,498,494
493,255,493,499,494
491,273,492,496,495
492,303,492,496,496
492,400,492,496,496
492,516,494,497,496
492,643,495,498,494
492,772,495,500,496
493,775,496,501,495
492,742,496,500,495
493,603,495,498,495
492,400,494,497,496
493,305,494,498,497
493,253,495,496,495
493,257,493,496,495
493,284,491,497,495
494,339,494,498,494
493,444,492,497,495
493,562,492,497,495
493,721,493,498,496
492,782,496,499,495
493,762,496,499,494
493,688,494,499,493
493,510,494,496,493
493,346,496,496,493
492,279,497,497,492
493,250,495,496,494
492,278,494,498,496
493,296,493,496,493
493,390,495,497,492
493,497,495,497,494
493,625,494,497,495
493,758,493,497,496
492,779,494,496,499
492,748,495,502,500
493,623,494,499,496
493,424,495,497,495
492,314,495,498,495
494,251,495,497,497
493,262,493,496,494
493,278,494,499,494
493,328,494,497,496
493,431,494,498,496
493,544,493,497,497
493,700,496,499,495
493,782,495,500,496
493,760,495,500,495
492,721,496,500,496
492,537,495,498,497
492,359,493,496,496
493,290,495,497,495
493,248,493,498,497
492,267,494,496,494
493,292,494,495,493
492,369,493,496,494
493,482,494,496,494
493,608,496,497,495
493,751,496,497,494
493,783,495,499,497
493,754,495,499,499
493,654,495,501,497
493,445,493,497,496
493,325,493,498,497
493,256,491,497,494
494,252,493,496,493
493,276,494,496,493
493,318,493,498,493
493,422,494,497,493
493,536,493,498,492
493,677,489,497,496
493,781,495,499,495
492,770,496,500,496
492,729,497,497,496
492,563,497,497,496
493,373,497,498,495
493,299,498,498,496
493,250,498,497,495
493,262,496,497,495
493,296,495,499,495
493,352,494,497,496
493,469,496,498,493
493,587,494,497,494
493,739,494,497,494
493,784,494,496,494
493,753,495,499,496
492,662,493,497,498
493,476,496,499,498
493,333,497,498,493
493,265,495,497,487
492,255,493,498,490
493,270,494,498,493
492,315,492,496,494
493,406,495,497,497
493,519,495,497,501
493,653,498,498,496
494,776,498,500,497
493,771,495,498,497
493,746,498,500,496
493,593,499,498,494
493,394,495,498,494
493,305,494,496,497
493,248,495,496,493
493,262,492,497,495
493,282,493,495,495
493,339,492,497,498
493,448,494,497,497
492,570,494,496,500
493,728,492,499,494
493,782,495,500,494
493,766,497,499,495
493,689,496,500,497
493,503,494,496,497
493,341,493,498,493
493,274,490,499,491
494,246,492,499,494
493,268,495,500,494
493,298,494,499,493
493,395,494,499,494
493,505,497,500,488
493,637,499,499,487
493,771,501,498,487
493,779,501,499,492
493,748,498,500,499
493,617,496,497,502
493,415,499,499,502
493,312,498,498,498
493,242,499,497,498
493,251,495,497,494
493,279,493,498,489
494,332,485,498,493
493,438,485,497,490
493,555,485,498,493
493,712,489,500,498
493,784,493,498,496
492,764,494,497,496
493,711,499,496,503
493,525,502,497,495
493,351,498,496,490
493,280,492,495,485
493,253,492,498,485
493,265,491,497,485
493,294,493,497,495
493,379,492,500,504
492,488,496,503,508
493,613,494,502,504
493,761,496,501,498
493,782,498,501,495
492,752,499,499,489
494,642,501,495,488
493,433,500,495,490
493,314,502,497,495
493,256,504,497,497
493,246,500,499,500
493,274,492,497,502
493,323,490,496,498
493,418,491,499,497
493,536,489,498,491
493,687,489,500,482
493,775,483,498,488
493,769,490,494,491
493,726,496,496,493
493,547,495,496,495
493,364,495,497,491
493,288,497,504,491
493,238,496,500,485
493,258,488,501,484
493,286,486,501,495
494,357,488,502,499
493,469,493,501,497
493,593,495,505,502
493,753,498,507,506
493,785,499,498,499
493,756,506,496,491
494,660,503,497,486
493,460,498,495,476
493,320,482,491,478
493,253,482,493,487
493,241,486,495,497
493,267,486,500,502
493,315,484,497,497
493,408,490,498,482
493,522,497,497,474
493,663,502,499,483
493,777,504,499,480
493,769,502,498,490
493,744,504,505,509
493,574,505,509,494
493,384,499,503,471
494,293,483,497,478
494,236,472,495,493
493,258,477,493,505
493,277,498,496,517
493,346,508,498,513
492,454,504,498,498
492,573,497,497,475
493,733,494,496,474
493,782,495,499,478
492,756,492,497,476
493,681,485,497,487
493,487,488,498,491
493,331,501,500,504
493,266,506,503,495
493,238,500,504,499
492,269,488,500,499
493,294,474,496,479
493,393,485,502,486
494,505,489,501,495
493,642,495,499,493
493,770,508,500,496
493,782,511,499,499
493,752,508,499,495
493,610,498,498,502
493,404,494,499,505
492,304,496,503,493
493,240,499,504,471
493,246,504,501,487
493,276,506,498,500
493,329,503,494,511
493,442,495,496,519
493,558,481,501,498
493,713,477,508,491
493,791,462,504,481
493,767,462,505,488
493,703,468,504,501
493,518,482,497,498
493,340,497,498,495
493,275,521,497,504
494,243,530,501,503
493,260,508,498,494
493,294,499,496,496
493,379,491,498,503
493,491,482,508,508
493,625,474,515,506
493,767,470,511,503
493,784,474,495,492
493,750,494,493,479
493,636,524,497,473
493,424,537,495,474
493,312,539,494,449
493,240,525,497,435
494,241,510,498,451
493,273,493,497,453
494,323,477,499,476
494,427,463,502,512
494,547,472,504,521
493,700,478,502,538
493,785,492,506,542
493,775,500,511,525
493,724,501,503,495
493,539,474,499,489
493,360,475,500,482
493,287,479,504,456
494,239,488,498,458
493,260,521,498,484
493,290,522,499,515
493,369,490,502,538
493,478,480,507,535
493,605,493,511,521
493,762,472,508,495
494,787,472,502,490
494,758,499,499,490
494,657,513,492,477
494,452,522,490,484
494,324,517,493,476
494,251,509,499,491
493,243,493,498,496
493,271,464,508,494
493,316,455,519,510
493,411,469,518,502
493,532,467,510,487
493,670,476,496,479
493,786,525,495,488
493,779,541,495,509
493,741,530,502,508
493,572,496,503,507
493,379,489,511,487
493,291,482,508,475
493,237,463,506,474
494,257,455,501,499
493,284,483,505,516
493,346,520,501,528
493,468,524,503,521
493,585,518,498,497
494,749,536,498,472
494,791,532,500,468
493,766,496,502,488
493,672,485,498,506
493,478,475,503,525
493,326,468,502,518
493,261,461,494,505
493,240,490,496,499
493,266,498,507,499
493,298,481,506,487
493,401,491,504,451
494,517,501,500,413
494,651,480,490,428
494,775,492,488,454
493,782,535,501,504
494,754,529,497,537
494,595,524,496,542
493,398,521,510,536
494,300,500,512,525
494,242,470,509,512
494,250,453,508,499
493,272,480,511,465
493,339,488,493,454
494,449,491,488,460
494,569,541,495,497
493,729,559,498,520
493,798,540,500,514
493,764,487,505,502
493,689,453,507,502
494,507,447,513,527
493,339,456,504,519
493,272,485,497,498
493,240,528,502,499
493,266,571,501,494
494,297,532,498,486
494,384,474,499,471
494,498,480,503,475
494,633,481,500,475
494,771,491,501,485
494,784,506,496,485
493,754,536,498,510
493,628,533,497,535
494,421,518,498,517
493,310,520,500,506
493,241,497,501,507
493,249,484,505,508
493,276,469,507,484
494,320,454,501,473
493,432,441,505,488
494,551,460,504,509
494,710,488,494,517
495,792,512,491,510
494,776,542,497,507
494,720,559,497,503
494,538,546,503,496
493,353,504,503,491
493,281,474,505,480
493,241,457,513,461
493,253,447,505,465
493,288,470,495,474
493,374,503,494,481
494,487,529,495,482
494,615,537,493,482
493,767,549,497,532
493,797,537,499,542
493,762,515,501,523
493,659,489,508,496
494,440,473,504,482
494,318,466,504,470
494,250,460,497,477
494,246,479,496,503
493,270,515,498,520
493,323,533,501,514
493,423,519,501,519
493,542,494,501,513
493,685,489,504,504
493,787,491,504,486
493,776,488,498,467
493,735,487,496,464
493,558,500,500,475
493,371,497,501,488
493,289,479,493,485
493,243,467,501,502
494,258,484,501,507
493,285,496,499,494
494,358,498,493,465
494,472,522,492,488
493,597,547,501,528
493,756,523,512,535
492,791,495,507,507
493,761,484,507,494
493,670,476,507,505
493,472,486,506,515
493,326,492,500,524
493,256,498,495,505
493,242,512,496,499
493,270,513,499,480
493,303,497,496,463
494,406,462,494,473
493,525,481,493,496
493,666,490,499,515
493,789,505,499,517
493,786,534,502,511
493,753,536,505,508
493,592,492,501,491
494,385,474,501,482
494,294,472,504,490
494,234,478,502,503
493,253,492,501,510
493,282,524,507,504
492,344,525,493,469
493,456,506,491,465
493,575,497,500,458
493,742,479,510,497
493,793,468,507,520
493,768,463,498,522
493,691,486,491,495
493,496,527,490,486
493,334,543,491,477
493,267,534,494,475
493,245,513,498,497
493,267,492,505,505
494,299,473,505,523
494,394,473,505,514
493,507,491,511,515
493,640,499,502,496
493,780,502,501,484
493,784,491,504,490
493,755,481,508,495
493,619,464,501,466
493,412,471,496,440
493,306,491,490,467
493,242,510,492,527
493,255,519,500,528
493,274,518,498,520
492,328,526,501,519
493,441,531,499,517
493,561,516,497,515
493,723,498,501,511
493,795,486,502,497
493,775,476,508,501
493,714,463,506,497
493,523,471,503,504
494,350,492,503,500
493,278,504,503,484
493,242,506,491,440
493,256,514,486,421
493,287,519,490,447
493,375,512,493,526
492,493,483,504,569
493,623,474,517,542
493,766,478,513,516
493,789,470,499,510
493,762,489,499,506
493,642,537,499,495
493,430,532,497,492
493,317,515,496,475
493,247,505,500,489
494,243,465,498,489
494,275,478,504,499
493,318,497,507,514
493,430,503,498,509
493,544,502,490,503
493,690,508,498,505
493,792,523,501,499
493,779,515,502,507
492,728,490,501,496
492,552,475,504,490
493,362,466,500,492
493,289,468,499,499
493,239,486,495,503
493,257,518,497,498
493,286,539,498,501
493,361,522,502,482
493,474,498,503,475
493,599,496,502,487
493,759,486,500,506
493,792,483,494,503
493,760,499,502,483
493,669,502,500,460
494,459,491,491,445
494,324,493,487,474
493,256,513,497,526
493,246,520,500,537
493,271,524,505,530
492,309,498,508,513
493,409,480,506,511
493,531,464,505,493
493,666,437,503,485
493,787,443,505,492
493,783,470,499,500
493,747,507,494,490
493,575,539,493,456
493,383,546,488,460
493,294,537,487,507
493,246,537,493,502
493,253,523,496,480
492,278,507,499,476
493,343,501,497,484
493,457,488,497,529
493,582,483,507,559
493,744,492,508,536
493,793,495,502,520
494,767,482,503,516
493,676,487,503,507
493,489,499,500,503
493,334,500,501,487
493,265,495,501,485
493,240,495,503,491
493,271,485,511,489
493,296,475,506,485
494,400,477,500,484
493,513,466,488,489
493,646,486,495,500
493,775,525,500,509
493,781,526,503,522
492,747,516,500,514
493,610,516,495,506
493,405,515,497,503
493,305,510,499,497
493,244,496,498,499
493,257,475,495,496
493,274,481,498,501
493,332,497,496,501
492,445,509,497,496
492,560,507,499,498
492,724,503,497,488
493,792,482,502,489
493,761,463,507,494
493,705,459,505,486
493,514,458,497,463
493,342,485,491,479
493,278,536,491,495
493,247,547,496,526
493,262,531,500,511
492,291,512,497,487
493,379,505,497,466
493,496,491,497,450
494,627,470,494,480
494,764,471,501,514
493,787,475,505,522
493,757,482,503,514
493,639,512,500,507
492,422,521,495,498
492,313,521,497,500
492,244,510,496,493
492,247,500,494,490
493,274,496,495,488
493,322,499,499,492
493,433,489,497,504
492,549,479,499,513
493,703,486,502,496
493,790,491,499,500
493,772,504,498,509
492,719,516,502,521
492,543,522,503,512
492,359,516,500,498
493,285,484,498,490
493,242,474,502,492
493,258,477,504,502
493,289,486,496,506
493,369,505,498,506
493,481,507,496,502
492,610,513,496,501
493,758,507,497,502
492,787,504,499,501
492,754,501,499,499
492,650,493,497,501
492,449,494,500,499
492,323,484,498,497
493,250,485,500,496
493,252,499,504,497
492,272,496,499,496
492,321,485,496,497
492,417,481,493,497
493,532,473,500,500
493,675,475,497,498
493,787,480,496,499
493,772,487,489,497
493,740,508,490,497
493,568,518,490,498
493,377,510,499,498
492,295,499,503,498
492,243,488,506,499
492,254,488,500,498
492,283,484,497,498
493,353,486,501,497
492,462,486,501,498
492,585,487,500,496
493,746,469,496,491
493,782,482,498,493
492,764,507,495,494
493,676,527,493,493
493,477,532,492,482
493,332,532,491,470
493,265,530,496,487
493,243,520,495,509
492,270,506,499,519
493,303,499,499,502
492,402,499,498,496
492,520,497,498,491
492,654,495,500,496
492,779,496,499,499
492,778,490,502,501
493,740,472,504,498
493,592,482,503,499
493,393,474,502,502
493,298,447,498,503
493,239,472,498,502
493,256,506,495,497
493,281,524,498,496
493,342,521,494,498
493,451,526,497,503
493,568,523,500,510
493,732,506,502,503
493,787,495,502,501
492,758,487,501,498
492,690,479,499,502
492,500,482,497,501
492,338,489,496,499
493,273,496,494,497
493,249,513,498,497
492,268,509,495,496
492,297,504,493,500
492,390,504,495,499
492,503,495,497,498
493,631,494,497,496
492,761,500,499,497
492,778,497,498,500
492,743,497,496,498
493,620,493,494,498
492,417,497,493,498
492,309,499,493,498
493,250,493,489,497
492,251,492,488,497
492,276,476,487,501
492,331,470,487,500
493,434,470,489,498
493,548,471,495,498
492,709,488,505,498
492,781,506,508,499
492,766,514,501,497
492,712,513,498,497
492,530,508,500,499
492,353,504,497,498
492,288,498,499,498
492,241,495,496,498
493,265,499,497,498
492,294,495,498,498
492,371,495,500,497
492,486,494,498,497
493,610,494,501,498
492,759,496,500,497
492,782,500,499,497
493,752,500,496,497
492,644,498,497,500
492,440,499,496,498
492,319,501,497,498
493,247,501,496,497
492,251,494,497,498
492,276,496,497,496
492,322,499,499,499
492,421,497,498,497
492,537,492,498,497
493,686,494,501,498
493,782,496,499,497
492,765,492,497,498
492,729,495,498,501
493,554,492,498,500
493,368,491,496,499
492,293,492,495,500
492,243,496,497,500
492,262,495,497,501
492,290,498,498,502
492,361,495,499,500
492,471,494,498,499
492,593,494,498,496
492,748,496,497,498
493,779,499,497,496
493,757,496,498,498
492,659,497,497,498
493,466,496,496,497
492,329,493,495,497
493,265,493,498,497
493,249,490,495,496
493,274,491,496,499
493,313,492,497,498
493,410,496,497,498
492,522,498,496,498
492,660,498,497,499
493,773,497,496,498
493,769,498,495,498
492,735,496,495,497
492,582,495,498,496
492,389,498,498,494
492,301,497,498,493
493,243,493,497,497
492,261,494,497,501
492,289,495,499,502
493,349,497,498,500
493,452,497,499,499
493,575,497,498,498
493,728,496,498,498
493,783,496,496,497
493,757,498,495,498
493,678,499,499,499
492,493,497,496,497
493,339,496,497,497
493,270,492,495,499
492,250,493,497,500
493,274,492,499,500
493,297,491,500,499
493,399,491,496,496
492,507,493,497,497
493,639,497,498,496
493,771,499,496,496
493,778,498,498,499
492,742,497,497,498
493,616,498,497,498
493,407,496,496,498
492,309,494,495,498
493,248,493,495,498
493,260,496,496,496
493,288,494,498,499
493,334,494,497,497
492,444,496,497,497
493,561,497,497,497
493,716,499,498,500
493,785,496,496,498
493,763,496,498,497
493,698,495,496,499
493,521,494,496,499
493,350,493,496,498
493,285,494,497,497
493,254,491,499,498
493,268,492,500,499
493,302,495,498,498
493,386,496,497,498
493,494,497,496,497
493,619,501,496,497
493,764,497,498,498
493,777,496,496,497
493,748,493,496,499
493,639,494,495,499
493,434,495,497,498
493,321,496,497,500
493,256,498,496,496
493,259,496,498,499
493,286,495,497,498
493,334,496,496,497
493,426,493,495,497
493,546,493,496,498
493,693,492,497,497
493,778,494,497,498
493,766,496,497,498
493,725,497,499,498
493,549,496,496,498
493,369,496,496,497
493,296,495,498,500
493,254,495,498,499
493,273,495,497,498
493,291,494,496,498
493,369,496,496,499
493,479,496,497,499
493,599,496,497,496
493,748,496,497,497
493,783,495,496,497
493,758,497,498,496
493,659,494,497,496
493,459,496,497,496
493,327,494,496,498
493,267,493,498,500
493,258,496,495,498
493,275,496,497,498
494,319,494,497,499
493,413,496,497,497
493,529,495,496,497
493,664,496,496,497
493,781,497,499,500
493,772,494,497,498
493,739,494,497,501
493,573,495,497,500
493,386,495,496,498
493,303,495,495,496
493,254,495,498,496
493,263,494,496,494
493,287,496,497,494
493,350,495,497,494
493,463,495,497,494
493,580,495,499,500
493,743,495,497,501
493,789,497,498,499
493,761,494,499,501
493,677,494,498,500
492,488,494,497,499
493,333,495,497,499
493,274,495,494,496
493,250,496,497,497
493,274,496,497,497
493,307,495,496,497
493,401,495,498,498
493,515,495,497,498
493,649,496,499,497
493,766,494,497,499
493,773,494,497,500
493,745,494,498,496
493,595,496,498,498
493,401,494,496,496
493,307,496,499,496
493,251,496,498,496
493,260,496,497,497
493,285,496,495,496
493,341,493,498,497
493,445,495,497,497
493,563,493,497,496
493,716,492,495,497
493,784,493,497,499
493,763,496,495,497
493,695,494,498,500
493,509,495,496,498
493,343,494,498,498
493,283,495,498,498
494,253,495,496,499
493,270,493,496,497
493,295,493,499,499
493,382,494,497,497
493,497,493,497,497
493,623,492,496,496
493,766,497,497,496
493,778,494,498,497
493,745,495,499,500
493,630,495,499,499
493,423,494,497,498
493,317,494,497,498
494,254,492,495,498
493,255,495,496,496
493,284,494,498,497
493,326,494,496,496
493,431,494,496,496
493,548,494,496,496
493,702,496,497,498
493,782,495,496,496
493,768,494,499,498
494,718,494,499,499
493,539,494,497,498
494,357,494,496,498
493,288,495,497,499
494,249,492,495,496
493,263,495,495,497
493,290,493,496,496
493,370,493,497,496
493,482,494,496,496
494,611,494,497,496
494,753,493,498,499
494,781,492,499,499
494,756,492,499,499
494,655,492,499,498
493,443,492,497,498
493,325,493,496,498
493,256,499,498,496
493,250,496,496,496
493,277,495,494,496
493,325,494,498,497
493,415,493,496,497
493,537,494,497,498
493,673,492,498,499
493,778,493,498,498
494,771,494,495,495
493,728,493,499,498
493,556,493,496,497
493,373,495,496,497
493,296,496,497,496
493,252,497,496,496
493,265,494,497,496
494,284,493,498,498
494,361,491,496,496
493,463,493,497,496
493,583,492,496,497
493,739,492,496,498
494,782,495,497,497
493,759,492,498,496
493,665,494,499,498
493,472,493,496,497
493,333,493,496,496
493,269,494,494,496
493,248,494,496,496
493,276,491,497,498
493,305,493,495,496
493,402,492,496,496
493,519,493,496,496
493,655,494,499,497
493,768,492,498,496
493,775,493,497,498
493,742,492,498,501
493,591,493,497,498
494,394,493,496,497
493,303,494,498,498
494,242,491,495,496
494,260,495,496,495
493,285,494,496,494
494,342,493,495,495
494,453,494,497,496
493,568,492,496,495
494,735,494,499,497
493,782,493,497,498
493,760,492,496,498
494,687,492,496,498
494,501,495,497,497
493,338,492,495,496
493,272,494,498,497
494,249,494,497,496
493,272,494,497,495
493,300,491,496,498
493,387,494,497,496
493,503,492,496,496
494,631,493,495,496
494,762,493,496,497
493,776,491,496,496
493,749,494,496,498
493,618,494,496,496
493,413,493,496,496
493,311,493,497,497
494,249,491,498,496
494,260,495,497,495
494,278,492,496,495
494,334,495,497,497
493,437,494,497,496
494,551,493,495,496
493,705,494,496,495
494,783,494,498,496
494,764,492,496,498
493,712,495,496,498
493,527,493,497,497
493,350,492,496,497
493,286,493,498,495
494,243,492,498,496
493,268,491,496,497
493,295,495,496,495
493,375,494,496,496
494,487,493,497,495
493,617,493,498,497
494,754,492,497,497
493,786,494,496,498
494,754,492,497,499
494,644,492,497,498
493,436,493,496,497
493,320,493,496,495
494,254,492,498,495
493,248,492,495,494
494,279,495,498,494
494,323,495,496,495
494,423,493,497,496
493,539,493,497,495
494,681,492,498,498
494,783,492,496,497
493,769,492,496,498
493,731,491,496,498
493,552,494,497,496
493,365,492,496,495
494,290,493,498,497
494,251,493,498,496
494,263,494,498,496
494,289,495,496,497
494,360,494,497,495
494,472,493,497,497
494,597,494,496,494
494,747,493,497,496
494,785,491,496,496
494,758,491,496,495
494,668,495,496,498
494,462,493,496,496
493,325,492,496,497
494,260,492,497,499
493,249,493,498,496
494,269,492,496,496
494,313,495,497,497
494,409,492,496,495
494,525,494,496,495
494,660,494,496,494
494,778,492,498,496
493,781,492,496,497
494,745,495,498,494
494,580,493,497,497
493,386,493,496,497
493,298,492,497,498
494,240,493,495,496
493,259,494,496,497
493,281,495,496,494
494,346,494,496,495
494,455,493,497,495
494,576,492,496,494
494,742,491,499,496
494,785,490,496,495
493,768,492,495,497
493,681,490,496,498
494,491,493,495,496
493,335,493,496,494
493,266,493,499,497
493,241,492,495,496
493,273,495,496,494
493,300,495,497,495
493,394,494,497,495
493,511,493,497,495
493,639,492,499,497
494,781,492,496,495
494,782,493,497,496
493,750,492,497,497
493,612,494,496,496
493,405,494,497,496
493,304,493,495,496
494,249,493,497,495
493,255,494,497,494
494,279,495,497,494
494,336,494,497,496
493,442,494,497,496
494,560,493,497,496
494,717,494,495,494
494,788,493,497,496
494,767,491,496,497
494,707,496,497,497
493,517,493,496,495
493,343,493,496,495
493,280,493,499,497
494,243,494,498,495
494,267,491,496,496
493,293,495,497,494
494,380,492,497,495
493,497,493,497,494
493,620,493,496,494
494,761,493,497,495
493,790,496,497,497
494,753,495,497,494
493,639,492,498,496
493,426,493,496,496
494,312,493,498,496
494,249,492,498,495
494,243,492,496,494
494,273,494,496,498
493,325,494,496,494
494,424,494,497,495
494,544,493,497,495
494,692,493,499,496
493,786,492,498,497
493,774,495,497,497
494,727,492,498,498
493,543,493,497,496
493,358,492,496,495
493,283,493,498,495
493,245,491,496,495
494,259,495,496,493
493,285,494,496,494
494,360,493,496,494
494,478,493,497,495
494,603,492,496,495
494,762,494,497,496
494,790,492,497,497
493,761,492,498,497
493,659,492,498,497
493,453,492,496,495
494,320,493,497,495
494,247,491,494,495
494,245,494,496,494
494,268,494,496,494
493,311,493,495,495
494,416,492,496,495
494,528,493,497,495
493,674,492,496,495
494,787,493,497,497
493,779,493,497,497
493,741,495,495,494
494,571,494,497,495
493,375,492,497,496
493,295,494,497,495
494,242,495,496,493
494,250,494,496,496
494,283,493,495,494
494,350,493,497,496
494,462,492,496,495
494,582,493,496,496
494,741,491,496,496
494,792,493,497,493
493,763,493,499,496
493,680,492,496,495
494,481,493,496,495
493,330,493,496,493
494,260,495,497,494
494,241,492,497,495
494,261,493,496,495
493,302,492,494,494
494,397,492,496,494
493,515,493,497,495
494,647,491,497,494
494,784,492,498,496
493,780,493,496,494
494,755,493,499,496
493,603,494,497,495
493,394,493,497,496
493,298,492,496,494
493,239,495,497,497
493,248,493,495,494
493,273,492,495,493
494,329,492,496,493
494,445,492,497,494
494,570,494,497,493
494,727,492,496,494
493,793,494,497,496
493,774,493,499,496
493,699,493,499,496
493,510,493,496,494
493,334,493,496,494
493,266,491,495,496
493,237,493,495,493
494,257,493,496,494
493,285,492,496,494
493,387,493,497,494
493,499,493,498,495
493,633,491,496,496
494,774,492,498,497
493,791,493,498,496
493,759,492,496,494
493,634,495,498,495
493,414,492,496,495
494,309,494,496,494
494,242,496,497,494
493,242,493,496,495
494,269,492,498,496
494,332,492,496,495
493,435,493,498,494
494,554,493,497,495
494,709,491,497,496
494,795,493,498,496
494,774,493,496,494
493,727,494,496,495
494,533,494,497,495
494,355,493,497,494
494,282,494,497,494
494,241,491,497,497
494,255,493,495,494
494,288,494,499,494
494,369,492,496,493
494,485,493,497,494
494,612,493,497,495
494,766,495,498,496
493,794,494,497,495
493,767,493,498,496
493,659,494,497,494
493,443,494,497,495
494,318,493,497,494
493,246,491,495,494
494,239,494,498,496
493,272,492,495,493
493,313,492,495,494
494,417,492,497,495
493,537,493,498,495
494,685,492,497,496
494,790,493,497,496
493,785,493,498,496
494,746,494,499,495
493,563,494,497,494
493,371,492,497,494
493,291,492,497,496
493,240,494,496,494
494,252,493,495,493
495,278,493,495,494
493,358,492,498,495
493,469,492,497,495
493,595,494,497,495
494,754,491,496,495
493,798,492,498,495
494,769,493,498,495
494,678,492,495,495
493,472,493,497,495
493,323,492,496,494
493,260,495,496,493
493,238,493,495,494
494,264,493,496,495
493,311,493,496,494
493,402,493,498,495
493,525,492,496,495
493,663,491,496,495
493,786,493,498,496
493,782,493,495,494
493,754,494,499,495
493,586,492,497,495
493,391,493,497,494
493,298,494,497,494
494,239,494,497,496
493,254,492,494,493
493,282,494,498,495
493,338,491,496,495
493,455,493,497,495
493,574,493,497,495
493,736,491,497,494
494,794,494,498,495
494,774,492,495,495
493,696,494,497,494
493,502,493,497,495
494,336,494,497,494
493,269,492,497,497
493,238,493,496,495
493,266,493,495,494
493,293,491,495,494
493,391,492,497,494
493,506,493,497,494
493,642,491,497,497
493,777,493,496,495
493,792,494,499,495
493,761,494,499,494
493,623,495,497,494
493,409,492,496,493
493,307,494,497,495
493,239,494,496,494
493,247,492,496,493
493,274,491,495,494
493,327,491,496,495
493,443,493,496,494
494,558,492,497,495
493,719,494,497,497
493,799,493,498,496
493,778,493,499,495
493,718,493,496,493
493,527,493,497,494
493,344,492,496,494
493,280,494,496,492
493,244,494,495,493
493,258,493,496,493
493,293,491,498,493
493,374,492,497,495
493,491,492,496,494
493,622,491,496,494
493,766,492,497,496
493,790,494,497,493
493,764,492,497,496
493,642,493,496,496
494,434,492,497,495
494,318,493,498,495
493,251,492,498,495
494,247,494,495,495
494,270,494,499,497
494,317,493,496,494
494,427,492,497,494
494,546,493,497,494
493,696,493,499,497
494,788,492,496,493
494,782,495,497,495
493,729,494,499,494
493,554,494,498,494
493,363,493,497,494
493,289,492,496,496
493,248,494,496,492
494,258,491,497,494
493,283,492,496,493
494,360,492,496,493
493,475,494,497,495
494,604,493,496,494
494,754,495,499,494
493,791,492,498,497
494,767,492,498,496
494,668,493,497,496
493,459,493,496,494
493,325,493,495,495
494,259,492,495,493
494,238,492,498,496
494,274,493,498,495
493,311,493,498,495
494,409,493,497,494
494,529,492,498,495
494,666,494,497,497
493,789,493,498,497
493,784,493,498,496
494,748,493,499,495
493,575,492,498,496
494,383,493,496,493
493,296,494,497,493
493,248,493,497,492
493,257,495,497,493
494,281,492,497,496
493,345,493,496,494
493,459,492,497,494
494,579,493,497,495
494,741,493,497,495
494,790,493,498,495
494,765,496,498,494
494,682,492,497,496
494,487,495,498,496
494,335,492,498,495
494,271,492,496,497
494,246,492,498,494
494,265,492,498,494
494,307,492,496,494
494,401,493,497,494
493,517,494,497,494
494,647,494,497,494
494,778,493,499,496
493,781,493,496,495
494,754,495,496,496
494,606,492,496,495
493,405,493,495,494
493,306,492,497,494
494,242,490,497,495
494,250,493,495,493
494,284,494,499,495
494,342,495,498,494
494,448,495,498,495
494,563,494,497,496
494,723,492,497,494
494,789,494,500,496
494,765,492,496,495
494,699,492,496,496
494,518,493,497,495
494,345,494,498,495
494,280,492,497,493
494,243,494,498,496
494,271,492,499,495
494,300,494,499,494
493,385,494,497,494
493,494,492,497,494
493,626,493,497,495
493,767,495,497,494
493,784,494,496,494
493,751,493,496,494
493,640,495,498,495
493,426,493,496,495
493,316,493,497,496
493,246,491,496,496
494,255,492,497,496
494,282,493,498,495
494,324,492,497,494
494,434,493,497,494
494,547,493,498,495
493,706,495,499,495
494,789,495,498,494
493,772,495,498,497
494,727,494,496,494
493,545,494,497,495
494,360,493,496,494
493,289,492,495,494
494,246,492,496,494
493,267,495,498,495
494,294,492,496,492
493,368,492,498,495
493,481,493,497,495
493,610,493,499,495
494,759,493,498,496
493,789,495,498,494
493,760,493,498,494
493,656,495,497,494
493,453,493,497,495
493,326,493,496,494
493,254,493,499,496
494,256,491,496,496
493,280,495,497,494
493,321,491,498,497
493,421,492,497,495
493,537,493,498,494
493,671,492,496,495
494,787,495,497,496
493,775,495,497,494
493,738,494,496,493
494,568,494,496,494
494,379,493,498,495
493,297,492,496,494
493,255,494,498,496
493,260,491,496,496
493,289,492,496,496
493,358,492,497,494
493,465,494,497,495
493,588,492,496,493
494,748,493,499,495
493,787,494,498,494
493,761,494,497,494
493,675,495,498,494
493,477,491,497,495
494,334,494,498,495
493,269,493,496,494
493,247,491,496,495
494,275,491,496,495
493,306,496,497,494
493,407,492,497,496
493,521,494,497,495
493,654,493,500,497
493,780,494,498,495
493,778,495,498,496
493,742,492,497,494
493,596,493,498,495
493,396,493,497,494
493,302,492,496,494
493,244,491,495,494
493,262,495,498,493
493,286,491,497,492
493,342,494,498,495
493,451,493,497,495
493,569,493,498,494
493,732,493,498,495
493,787,493,498,496
493,764,494,496,493
493,692,493,498,494
493,504,494,497,494
493,342,493,496,494
494,278,492,495,495
493,253,495,496,496
493,274,495,496,494
494,303,492,499,497
493,392,493,497,495
493,503,493,498,495
494,628,492,496,495
493,769,495,497,495
493,780,493,496,492
493,745,493,496,494
494,620,493,496,494
494,420,493,497,494
493,315,493,497,496
493,253,496,498,493
493,259,493,498,497
493,283,492,498,495
493,338,493,497,493
493,437,493,497,494
494,548,493,498,495
494,709,492,497,496
494,780,495,498,495
493,764,493,496,494
494,711,494,495,493
493,536,494,498,496
493,356,492,496,493
493,292,495,496,494
493,249,492,496,496
493,273,491,497,495
494,299,492,495,493
493,372,493,498,495
493,484,493,496,493
493,613,495,499,494
493,759,495,498,494
493,781,495,496,493
493,754,493,498,494
493,643,493,498,495
493,443,493,496,494
493,320,492,496,494
493,253,491,494,494
493,257,491,496,495
493,282,494,497,493
493,327,491,497,493
493,422,493,498,494
493,539,492,498,494
493,685,493,499,495
493,780,495,497,496
493,767,495,497,494
493,734,492,498,497
493,552,493,497,495
494,371,493,496,494
493,296,492,495,493
493,257,494,498,495
493,265,491,496,493
493,294,492,497,496
493,362,493,498,496
493,470,493,497,495
493,592,493,496,493
493,748,493,500,494
493,782,492,496,493
493,756,495,497,494
493,664,495,497,494
493,470,494,496,495
493,333,493,497,496
493,269,492,496,494
493,258,494,498,494
493,275,492,497,496
493,313,491,497,496
493,408,493,496,493
493,520,493,497,494
493,659,492,495,492
493,769,494,498,494
493,772,494,498,494
493,737,495,497,493
494,585,492,497,495
493,388,492,496,494
493,303,493,497,494
493,243,492,496,494
493,258,491,496,494
493,288,491,497,493
493,347,494,498,495
493,454,493,496,494
493,574,493,498,494
493,735,493,499,494
493,783,494,498,494
493,761,494,497,493
493,678,492,497,494
493,494,493,496,495
493,338,494,496,493
493,269,493,495,492
493,249,491,495,493
494,271,494,498,494
493,300,491,495,496
493,397,493,496,494
493,505,493,496,495
492,636,492,498,496
493,766,493,498,493
493,770,492,498,494
493,747,491,495,495
493,613,495,496,494
493,410,493,496,494
493,311,493,496,493
493,252,491,498,495
493,255,491,495,494
493,289,494,495,494
493,334,491,496,496
493,439,492,496,493
493,554,492,497,495
493,711,494,496,493
493,783,493,499,495
493,759,491,496,492
493,703,496,498,494
493,521,494,496,494
493,351,494,496,494
494,286,492,495,493
493,249,493,497,494
493,267,491,495,495
493,294,491,496,495
493,379,492,496,494
493,491,493,497,494
493,615,492,497,493
493,755,494,498,494
493,780,494,499,495
493,750,495,498,495
493,643,495,496,495
493,430,494,497,495
493,318,492,496,496
493,251,494,495,494
493,252,491,495,495
493,280,491,496,495
493,327,491,496,494
493,427,493,496,495
493,542,494,497,492
493,690,493,498,496
493,779,494,499,495
493,767,494,498,494
493,718,492,496,495
493,545,494,497,495
493,366,492,497,493
493,291,494,496,493
493,250,492,495,493
493,266,492,497,494
493,298,491,496,496
493,370,493,496,494
493,476,493,498,495
493,598,492,498,496
493,747,492,498,496
493,777,492,496,494
493,755,495,497,495
493,655,496,496,493
493,457,494,497,495
493,327,493,496,494
493,261,493,494,492
493,259,493,498,494
493,276,491,496,494
493,323,495,496,496
493,413,492,497,495
493,524,492,497,495
493,665,491,496,493
493,770,494,499,495
493,766,492,496,495
493,733,496,497,493
493,569,494,496,495
493,384,492,496,494
493,304,493,497,493
493,245,492,497,493
493,268,491,495,495
493,289,491,496,496
493,353,491,497,496
493,460,493,497,493
493,578,493,499,495
493,731,492,495,493
494,783,495,497,493
493,756,495,497,494
493,675,495,497,495
493,487,494,496,495
493,337,493,496,494
493,277,493,499,495
493,249,491,496,495
493,273,491,497,496
493,306,491,496,496
493,400,493,497,496
493,512,492,497,494
493,639,494,499,495
493,770,495,498,494
493,770,494,497,493
493,739,492,497,496
493,596,494,497,495
493,403,493,496,494
493,307,492,496,495
493,244,491,496,495
493,261,491,496,493
493,288,493,497,496
493,343,493,496,494
493,450,492,497,494
493,563,493,498,495
493,720,493,499,495
493,781,493,497,493
493,758,492,497,494
493,688,495,498,496
493,515,494,497,494
493,342,494,497,495
493,280,492,495,494
493,252,495,496,493
493,271,492,497,496
493,297,493,495,495
493,389,493,498,495
493,496,493,498,495
493,624,494,499,494
493,753,492,498,494
493,772,493,499,497
493,742,493,496,493
493,623,493,496,495
493,423,492,496,494
493,320,494,496,494
493,250,491,495,494
493,257,493,497,496
493,288,493,497,495
493,336,493,498,495
493,432,493,497,494
493,547,494,496,493
494,696,494,499,495
494,777,492,497,493
493,759,495,496,494
493,711,494,496,494
493,535,493,496,495
493,362,492,496,494
493,289,494,497,494
493,248,492,496,496
493,269,491,498,496
493,295,493,497,496
493,368,493,496,494
493,479,493,498,494
493,602,492,498,494
493,754,495,497,494
493,776,495,497,495
493,746,493,498,497
494,654,494,496,495
493,447,493,497,495
493,324,492,496,494
493,257,491,495,495
493,254,491,496,497
493,282,492,497,493
493,319,494,499,495
493,421,492,496,495
493,537,494,497,494
493,674,495,499,494
493,774,495,497,494
493,769,493,498,497
493,726,494,496,497
493,563,494,496,495
493,377,494,496,495
493,297,492,496,495
493,248,491,496,492
493,264,493,498,496
493,288,493,495,493
493,361,494,497,495
493,467,493,498,495
493,584,494,498,494
494,736,492,496,493
493,777,494,498,495
493,756,493,495,493
493,663,493,496,494
493,473,494,497,495
493,332,493,496,495
493,271,496,497,493
493,253,492,498,494
493,273,493,498,495
494,316,494,499,494
493,406,494,498,495
493,520,494,496,494
493,647,496,498,494
493,769,493,498,497
493,767,493,495,494
493,732,493,496,495
493,586,492,496,496
493,397,493,496,495
493,303,492,495,494
493,249,491,496,494
494,264,494,498,494
493,288,493,499,495
493,347,491,496,494
493,452,494,497,494
493,564,491,497,494
493,726,495,497,493
493,778,494,497,494
493,754,493,496,495
493,681,493,498,495
493,505,494,496,495
493,343,494,497,494
493,278,492,496,496
494,250,492,498,496
493,273,492,498,496
493,296,493,495,495
493,393,494,497,495
493,501,493,497,494
493,631,495,498,495
493,763,495,497,494
493,771,494,498,495
493,740,493,496,494
493,621,495,498,495
493,413,494,496,494
493,311,493,496,496
493,245,491,496,494
494,255,493,498,496
493,285,493,496,494
493,339,494,497,493
493,440,494,497,494
493,552,494,497,494
493,705,495,497,494
493,783,494,498,494
493,757,494,499,495
493,714,492,496,495
493,528,494,496,495
493,353,492,496,496
493,289,494,495,493
493,251,493,498,495
493,264,492,496,494
493,300,495,498,494
493,377,495,497,495
493,487,493,497,495
493,613,493,496,494
493,752,493,499,496
493,778,492,496,496
493,748,492,496,496
493,641,492,497,496
493,439,494,496,494
493,320,493,497,494
493,249,493,498,496
494,258,495,498,494
494,282,495,497,494
493,326,495,497,494
493,423,492,495,494
494,539,494,496,494
493,686,492,498,494
494,779,492,496,495
493,766,491,497,496
494,728,492,497,494
493,553,494,497,495
493,369,494,497,494
493,297,494,498,495
493,254,495,498,494
493,265,495,498,494
493,291,492,496,496
493,360,494,497,495
493,471,493,496,494
494,593,493,496,493
493,742,493,496,495
493,781,492,498,494
493,758,492,498,496
493,661,495,497,494
493,466,492,497,495
493,331,493,498,495
493,267,494,499,496
493,252,494,498,495
493,274,492,497,494
493,312,491,497,496
493,411,494,496,494
493,523,494,496,494
493,655,493,496,493
493,782,495,498,494
493,772,493,497,494
493,738,495,497,497
493,583,494,497,496
494,387,493,497,496
493,303,494,495,495
493,243,494,498,494
494,256,492,497,497
494,285,494,496,493
493,346,494,496,493
493,455,494,497,494
493,575,492,498,494
494,731,493,499,495
493,786,492,496,496
494,762,493,497,496
493,681,493,498,497
493,492,493,497,496
493,337,494,496,493
494,275,495,499,493
493,244,492,497,494
494,274,495,496,493
494,301,496,496,493
493,395,493,497,494
493,512,493,496,493
493,642,495,500,496
494,769,492,497,496
494,777,493,497,497
494,747,493,498,498
494,609,494,496,496
494,408,494,497,495
493,306,493,498,495
494,252,495,499,494
494,255,496,497,494
494,281,492,498,497
494,334,495,496,494
494,443,494,498,495
493,559,493,496,494
493,712,493,496,495
493,785,493,497,496
493,765,494,496,494
493,702,493,499,497
493,516,493,497,496
493,346,493,497,495
493,286,494,498,495
494,250,495,497,494
493,268,491,497,493
493,294,495,498,496
493,383,493,496,494
493,496,494,496,494
493,618,493,496,495
493,756,495,497,494
493,782,493,498,496
493,747,494,496,497
493,640,494,498,495
493,431,493,497,493
494,316,494,497,495
493,246,492,498,493
494,252,492,497,496
493,275,493,494,494
493,326,492,495,494
493,427,494,497,495
493,543,494,497,495
493,699,495,499,495
493,784,493,498,494
493,768,493,499,495
493,729,493,499,496
493,545,494,498,496
493,363,493,496,494
493,292,495,497,494
493,243,492,497,494
493,263,495,496,493
493,289,494,495,494
493,363,492,496,495
493,480,493,496,494
494,601,495,498,494
493,752,491,497,496
493,786,493,498,496
493,758,493,499,497
493,653,493,496,495
493,456,493,496,495
493,322,492,498,495
493,260,495,497,494
494,250,494,496,493
493,273,494,496,494
493,314,492,498,495
493,415,493,496,493
493,531,493,498,495
494,669,491,496,495
494,782,493,498,496
493,772,493,498,495
493,734,494,498,496
493,573,493,497,495
493,380,494,497,495
493,300,494,497,493
493,250,495,497,494
493,261,492,497,498
493,285,494,496,497
493,355,493,496,495
494,463,492,497,494
494,581,491,496,495
494,736,491,499,494
493,788,492,498,496
493,757,494,496,495
493,678,493,499,495
493,484,493,497,495
493,335,494,497,494
493,269,495,498,496
494,247,492,496,493
493,269,493,499,497
494,302,492,496,494
493,400,493,496,494
493,514,493,497,495
493,650,495,499,495
493,773,493,497,495
493,775,494,498,497
493,749,493,498,497
493,605,495,498,495
493,401,494,496,494
493,304,494,496,494
493,241,492,497,496
493,255,494,496,493
493,282,494,495,494
493,338,492,496,495
493,450,493,497,495
494,565,492,498,495
493,728,491,497,496
493,789,493,498,497
493,769,493,499,497
493,697,493,499,497
493,510,493,496,495
493,344,494,497,494
493,275,492,497,494
494,249,494,495,492
493,267,494,496,494
493,293,494,499,496
493,391,493,496,494
493,501,493,498,495
494,628,492,496,496
493,765,493,498,496
493,783,494,499,497
493,746,492,496,496
493,634,495,497,495
493,419,493,497,495
494,315,494,497,493
494,250,496,497,494
493,250,493,498,497
494,278,493,495,494
493,335,494,499,495
493,433,493,496,495
493,549,493,497,495
493,700,492,497,496
493,785,493,497,494
493,765,494,498,495
494,713,493,496,495
493,537,495,497,495
493,359,495,497,494
493,288,495,496,494
493,246,493,498,494
494,263,494,499,495
493,294,492,496,494
493,372,492,497,495
494,485,493,497,495
493,606,495,497,494
493,759,492,498,496
494,780,494,497,496
493,758,494,498,496
494,658,495,499,495
493,446,494,497,495
493,319,493,496,493
493,256,492,496,496
493,244,493,496,494
493,273,493,495,494
493,318,493,496,494
493,418,493,497,495
493,539,493,497,494
493,678,492,499,494
494,782,492,498,496
493,776,493,499,496
493,738,493,499,496
493,562,493,497,495
493,374,494,497,495
493,293,493,497,494
493,248,494,495,494
493,259,494,495,494
493,285,493,495,497
493,360,493,496,495
493,467,494,497,495
493,589,491,497,497
493,744,491,496,496
493,788,493,499,495
493,755,493,496,494
493,674,493,499,494
493,470,494,497,494
493,332,493,497,494
493,267,495,498,493
493,249,496,497,493
493,271,492,498,497
493,306,494,496,494
493,408,493,498,494
493,522,493,496,495
493,654,491,496,495
494,772,493,498,495
493,776,494,497,497
493,746,495,496,494
493,591,494,497,496
493,395,493,497,495
493,306,495,498,495
493,241,491,496,497
493,260,495,496,495
493,286,493,496,493
493,341,493,496,494
493,454,494,497,494
494,569,493,499,495
493,735,492,496,495
494,789,495,497,494
493,765,493,498,497
493,690,492,498,496
493,502,493,497,495
493,339,493,497,495
493,271,492,498,497
493,250,492,496,497
493,272,495,497,493
493,299,495,496,494
493,392,494,497,494
493,505,493,498,495
493,633,493,496,495
493,773,495,498,496
493,779,492,497,497
493,750,493,497,497
494,619,493,497,495
493,412,493,497,496
493,309,493,496,494
494,251,492,500,495
494,258,495,497,494
493,284,495,497,493
493,332,492,497,494
493,439,494,497,495
493,556,493,498,495
493,706,493,497,494
493,784,492,497,496
494,766,493,497,497
494,711,495,498,494
494,530,493,497,494
493,352,494,498,496
493,289,493,499,497
494,255,494,498,495
494,270,496,497,496
493,294,495,496,493
493,378,493,498,496
493,489,493,497,495
493,615,492,496,494
494,755,494,497,496
493,784,496,499,497
494,754,493,496,494
493,643,493,498,496
493,437,492,497,495
494,322,493,497,495
494,259,493,496,495
493,257,494,497,494
494,280,492,496,494
493,326,496,497,494
493,426,494,496,495
494,542,493,496,494
493,681,494,500,496
494,785,492,496,496
494,774,495,498,494
493,730,491,497,497
493,554,493,497,496
493,372,493,497,495
493,292,494,496,496
493,256,494,496,495
493,261,494,498,494
493,291,495,497,494
493,364,494,497,494
494,473,493,498,496
493,596,493,497,493
493,754,493,499,496
494,780,493,497,496
493,756,492,497,496
493,662,492,497,495
493,462,494,497,496
493,329,494,496,494
493,263,493,498,496
493,253,494,498,495
493,279,494,497,494
494,317,495,498,494
493,410,493,496,495
493,526,494,497,495
494,663,494,497,494
493,776,492,497,495
493,771,493,497,496
493,738,495,499,495
493,578,492,496,496
493,387,494,496,496
493,301,493,498,497
493,250,491,497,495
493,265,495,499,494
493,282,492,497,493
493,350,493,497,495
494,459,494,498,495
493,574,493,497,494
494,732,494,497,495
493,787,495,499,496
493,757,492,496,494
494,681,497,497,497
493,489,493,496,495
493,337,493,497,496
493,277,492,498,497
493,252,493,496,495
493,279,494,498,494
493,303,492,497,494
494,399,494,497,495
493,512,494,497,494
494,640,495,496,496
493,771,494,496,495
493,775,495,499,495
493,742,493,497,497
493,605,493,497,496
493,407,493,496,495
494,308,495,497,495
493,251,492,498,494
493,255,493,499,495
494,287,495,499,495
493,343,495,497,494
493,446,494,497,495
494,558,494,497,495
493,720,493,498,495
493,778,493,497,496
493,760,492,496,497
493,696,492,496,497
493,519,493,496,496
493,347,495,497,496
493,287,495,496,494
494,254,494,499,496
493,274,494,498,493
494,302,495,497,493
494,382,493,497,495
493,494,494,497,495
493,623,494,497,494
493,755,494,496,495
493,776,493,496,496
493,747,492,499,495
493,635,493,497,496
493,430,494,496,495
493,318,493,498,497
493,254,492,498,496
493,261,495,498,494
493,278,492,496,494
493,333,496,498,496
493,431,494,497,495
493,544,495,496,494
493,690,494,496,494
493,778,493,496,494
493,769,496,499,495
494,721,492,496,494
493,541,495,497,496
493,364,493,496,496
493,296,493,498,497
493,255,494,496,496
494,263,494,498,495
493,292,493,495,496
493,367,494,497,495
493,480,493,497,494
493,602,494,496,493
493,754,494,499,496
492,780,493,498,494
493,756,492,498,497
493,655,492,498,497
493,454,492,496,496
494,328,494,497,495
493,263,492,499,498
493,250,492,495,493
494,282,495,498,493
493,322,496,497,494
493,418,493,497,495
493,531,495,499,496
493,670,494,497,494
493,783,495,499,494
493,769,492,497,496
493,736,492,496,497
493,571,493,497,495
493,380,494,497,496
493,302,492,496,494
493,246,493,499,495
493,266,495,498,495
493,294,494,498,493
494,355,493,497,496
493,463,494,498,495
493,586,494,498,494
493,736,494,497,495
493,781,492,497,496
493,759,492,496,494
493,676,496,497,497
493,481,494,497,495
493,334,493,497,496
493,270,493,498,497
493,254,493,498,495
493,279,494,498,495
494,303,492,496,494
493,403,494,496,495
493,516,495,498,495
493,646,494,497,494
493,770,493,497,495
494,774,495,500,495
493,741,493,497,496
493,600,496,497,496
493,399,493,497,496
493,307,493,498,496
493,251,492,498,495
493,255,493,500,496
493,288,491,495,496
494,345,495,497,495
493,451,495,498,495
493,566,494,496,494
493,727,493,500,497
493,780,493,497,495
493,767,495,497,496
493,688,493,497,497
493,508,493,496,496
493,344,492,497,495
493,281,495,496,494
494,252,494,499,496
494,268,493,496,495
493,302,496,499,494
493,389,493,497,495
493,500,493,497,495
493,627,493,497,494
494,764,492,499,495
494,776,493,497,495
493,746,492,497,496
493,626,492,496,496
493,421,494,497,495
493,314,492,498,494
493,248,495,498,496
493,258,494,499,497
493,285,494,498,495
493,337,495,496,496
493,432,494,497,495
493,551,493,497,496
493,702,496,497,494
493,780,493,497,494
493,764,492,496,495
493,714,493,497,494
493,537,495,497,495
493,358,494,496,494
494,288,493,499,497
493,251,493,499,495
493,271,494,499,495
493,291,492,496,495
493,373,494,498,495
493,486,493,497,495
493,608,494,498,494
493,755,495,496,495
493,782,493,499,495
493,759,493,498,496
493,656,495,497,495
493,442,493,497,495
493,321,493,497,496
493,259,492,498,498
493,250,494,496,496
493,281,494,496,495
493,321,495,498,494
494,420,495,498,495
494,537,494,497,494
494,680,495,497,494
494,783,494,499,496
493,769,492,496,495
493,740,495,499,496
493,555,493,497,495
493,373,493,496,495
493,298,492,496,493
493,247,492,497,496
493,261,492,495,494
493,292,494,499,495
493,361,494,498,495
493,471,493,497,495
493,590,493,497,494
493,749,495,497,496
493,789,494,497,494
493,756,493,496,493
493,666,493,496,494
493,473,493,497,495
493,329,493,496,496
493,268,494,499,494
493,247,492,496,496
493,271,491,497,497
493,310,491,497,496
493,408,493,497,494
493,518,493,498,496
493,656,494,496,494
493,781,495,500,496
493,778,494,499,495
493,747,495,498,494
493,586,493,497,495
492,391,493,496,496
493,302,494,496,494
493,243,496,496,494
493,255,493,494,494
493,283,494,498,495
493,338,492,496,495
493,457,493,497,495
493,570,493,497,496
493,729,492,497,497
493,789,492,498,494
493,760,493,499,496
493,688,493,496,495
493,499,493,497,495
493,337,493,497,496
493,275,494,499,496
493,250,495,497,494
493,267,492,497,494
493,297,495,497,496
493,393,494,497,494
493,503,494,497,494
493,633,493,496,494
493,766,494,498,496
493,775,492,497,496
493,751,495,498,497
493,614,493,497,496
493,408,493,497,495
493,310,492,497,494
493,242,494,499,495
493,258,492,496,494
493,284,495,498,494
493,335,495,497,495
493,438,493,497,495
493,555,493,498,496
493,711,495,498,497
493,789,494,497,495
493,763,493,497,495
493,701,493,496,496
493,525,493,496,495
493,349,494,498,495
493,279,492,496,497
493,251,493,495,496
494,267,493,499,496
493,295,493,499,495
493,379,494,497,494
493,483,494,498,496
493,617,492,496,496
493,765,495,497,494
493,781,495,496,494
493,751,494,497,494
493,646,493,498,495
493,431,493,496,496
493,318,493,496,495
493,244,493,495,495
494,248,492,496,496
493,276,491,497,494
493,326,491,497,496
493,426,493,498,495
493,542,493,497,496
492,691,492,499,498
493,786,493,499,497
493,775,493,499,496
493,725,492,499,495
493,551,493,496,494
493,363,495,497,494
493,289,495,497,493
493,249,494,496,493
494,265,492,498,496
493,284,493,496,496
493,365,494,496,494
493,471,494,498,495
494,595,493,497,495
494,748,492,499,494
493,788,492,498,496
494,758,494,496,494
493,666,493,498,496
493,459,492,497,496
493,326,493,497,496
493,256,494,496,497
493,251,493,495,495
494,272,493,498,495
493,318,494,499,495
493,410,493,498,495
493,527,493,498,494
494,663,492,497,496
493,780,495,497,497
493,779,494,496,494
493,736,494,497,495
493,575,493,497,495
493,383,493,497,496
493,300,493,496,495
494,252,494,498,494
493,258,492,496,496
493,284,492,498,497
493,348,493,498,495
493,458,494,497,495
493,578,493,496,493
493,735,493,499,494
493,789,495,499,495
493,763,495,498,495
493,682,492,496,497
493,485,495,498,497
493,332,492,496,495
494,266,495,497,494
494,244,494,496,494
494,267,494,495,494
494,300,492,499,495
494,399,492,498,495
494,513,494,498,495
494,646,493,498,496
493,772,493,499,497
493,782,493,498,497
494,744,493,496,497
493,604,495,497,496
493,403,493,497,496
493,305,495,498,496
493,244,496,497,495
494,254,493,499,497
493,275,493,496,495
494,339,494,498,496
493,440,493,497,494
494,556,493,498,496
494,717,492,497,494
494,786,495,498,497
493,769,493,497,496
493,696,495,500,496
493,519,494,498,495
493,344,493,498,494
494,282,495,498,494
494,247,492,497,494
494,265,495,499,496
494,301,494,496,495
494,379,493,497,494
494,493,493,497,494
494,623,495,499,495
494,762,493,498,496
494,783,495,497,497
493,755,495,499,497
494,636,493,499,496
493,427,493,497,494
494,313,493,498,496
494,251,491,495,496
494,254,494,496,494
494,278,495,497,495
494,325,494,496,495
493,434,493,498,495
494,546,493,497,495
494,703,495,496,495
493,786,492,498,497
493,770,492,499,497
493,724,492,498,497
493,545,494,497,494
493,358,493,498,495
494,287,492,496,495
494,252,494,498,494
494,262,495,497,494
494,291,493,496,497
493,370,493,498,495
493,477,493,497,496
493,606,492,497,495
494,752,493,498,497
493,786,492,498,497
493,756,495,497,494
493,658,493,499,495
494,451,494,497,494
494,325,494,498,495
493,259,495,499,495
493,251,495,497,496
493,276,495,496,493
493,320,493,499,495
493,414,494,496,494
493,529,494,498,495
493,669,492,496,495
494,781,493,497,494
493,775,495,498,497
493,740,495,497,494
493,570,494,498,496
493,376,493,498,496
494,298,495,499,496
494,240,493,497,496
494,260,495,498,496
493,286,492,496,493
493,350,494,497,495
493,463,493,497,495
493,583,493,499,496
494,748,493,497,496
493,789,495,498,494
493,764,493,499,497
493,674,492,499,497
493,477,492,497,496
493,330,494,496,495
493,265,494,496,495
494,242,495,497,494
493,271,495,498,494
493,303,496,496,494
494,399,493,497,494
493,516,493,498,495
493,646,493,497,496
494,781,495,497,496
494,778,493,498,497
493,747,492,498,498
493,599,493,496,496
493,396,494,497,496
493,299,492,496,495
493,249,495,498,494
493,253,495,497,494
493,279,494,496,494
494,340,493,497,495
493,446,494,497,495
493,567,492,496,495
493,723,492,496,496
493,785,493,498,497
493,765,495,496,494
493,693,494,499,497
493,502,493,497,495
494,340,493,497,495
494,276,495,499,496
493,243,494,497,494
494,266,495,497,497
493,299,494,497,494
494,388,493,498,495
494,500,493,497,495
493,627,492,497,495
493,763,492,498,497
493,784,496,497,497
493,754,494,497,494
493,622,494,498,496
493,417,493,497,496
493,309,494,498,495
493,248,492,495,495
493,250,495,497,492
493,276,492,498,493
493,326,494,496,495
494,432,493,498,496
493,550,492,497,495
494,712,495,497,496
493,787,495,498,495
493,772,493,499,497
493,717,493,499,497
493,532,494,497,496
493,353,493,497,495
493,281,493,495,494
494,246,495,496,496
493,263,495,496,494
493,285,494,496,495
493,367,492,497,495
494,484,494,498,496
493,610,493,497,496
493,765,495,498,496
493,787,493,499,497
493,759,494,499,498
493,652,494,498,495
493,440,493,497,495
493,318,493,497,496
493,253,496,498,494
493,245,494,497,494
493,268,494,496,494
493,323,493,498,496
494,418,493,497,495
493,539,494,497,495
493,682,492,497,496
493,786,493,499,497
493,775,493,499,497
493,740,494,496,494
493,559,494,498,496
493,368,493,496,495
494,293,495,497,494
494,244,496,497,495
493,255,494,496,497
494,288,493,496,494
493,351,494,498,495
493,470,493,497,494
493,592,493,498,497
494,747,492,498,497
493,790,495,497,495
493,765,494,500,494
493,665,493,499,496
493,471,494,498,496
493,329,494,498,495
494,261,495,496,496
494,245,495,497,494
493,272,493,499,496
493,305,492,496,496
494,405,493,496,494
493,522,494,498,496
494,658,492,498,495
493,786,494,498,497
493,783,494,497,495
493,751,494,500,496
494,590,495,499,496
493,388,494,498,496
493,298,493,496,495
494,247,494,499,496
494,251,492,498,495
494,284,494,497,495
493,346,494,499,496
493,454,493,497,495
494,572,494,498,494
493,731,493,496,495
493,792,495,498,495
493,767,495,498,495
493,689,496,499,495
493,497,493,496,495
492,334,494,498,495
493,269,492,495,493
493,243,492,497,496
493,265,492,498,496
493,299,491,498,495
493,390,493,497,494
493,506,494,498,495
493,638,491,498,494
493,774,495,497,495
493,780,495,497,495
494,750,494,498,497
493,619,495,497,496
493,408,493,497,496
494,307,494,496,494
493,238,494,496,496
493,249,492,497,496
494,283,495,497,496
494,332,492,497,495
494,441,493,498,495
494,560,493,498,496
494,721,494,500,496
493,792,492,497,497
493,772,496,497,494
493,709,492,499,494
493,522,494,497,495
493,352,494,497,495
493,277,492,497,495
494,240,491,497,493
493,264,492,498,497
493,289,495,496,494
494,382,493,498,496
494,491,493,498,496
493,621,494,500,497
493,761,494,496,496
493,790,495,497,497
493,755,496,498,495
493,647,496,498,495
493,433,494,497,495
493,317,492,497,494
493,246,496,496,493
493,249,493,499,494
493,271,492,496,495
494,320,492,497,496
493,424,493,497,495
493,547,494,497,496
494,694,495,497,495
493,792,494,499,496
493,779,495,499,495
493,734,496,499,495
493,549,495,498,496
494,366,494,497,495
494,286,495,499,497
494,246,492,496,494
494,256,492,497,496
493,285,492,496,496
493,360,494,497,494
493,475,494,498,496
494,600,493,497,497
494,758,492,498,496
493,791,495,500,496
493,763,496,499,495
493,660,492,498,495
493,460,493,497,496
493,327,494,496,494
493,257,495,497,494
493,243,493,496,495
493,276,494,498,496
493,311,493,496,494
493,414,494,497,494
493,529,493,497,495
494,671,492,498,496
494,784,494,499,497
493,780,493,496,495
493,746,494,500,496
493,573,493,496,495
493,382,494,499,494
494,297,495,497,494
494,244,495,496,498
493,261,493,496,495
493,279,494,500,496
493,347,492,497,495
493,460,493,497,495
493,579,493,498,497
493,743,495,499,494
493,792,493,499,496
493,758,492,500,496
493,684,495,499,494
493,486,494,498,495
493,335,494,497,496
493,267,495,497,493
494,242,493,498,497
493,266,493,496,494
493,298,493,496,494
493,397,493,498,495
493,512,494,498,495
494,649,496,498,496
493,773,495,498,495
494,782,495,500,496
494,750,494,500,497
493,607,494,499,496
493,401,493,496,495
493,307,494,498,497
494,239,492,499,494
493,257,496,498,494
494,284,495,499,495
494,340,494,496,496
493,445,494,498,495
493,562,493,498,496
494,723,496,498,494
493,787,495,497,494
493,762,495,498,495
493,702,493,499,495
493,513,494,498,495
493,343,494,497,495
493,279,492,495,495
494,248,492,497,496
493,268,493,498,496
493,295,495,496,493
493,388,494,498,495
494,498,493,498,496
494,629,495,499,494
493,767,496,498,495
493,780,495,499,497
494,755,493,497,494
493,635,495,499,496
493,424,494,497,494
493,315,493,497,496
494,247,492,496,496
493,255,495,496,497
494,284,493,496,495
493,327,493,499,496
494,435,493,498,495
493,549,494,498,496
493,701,493,497,495
494,787,495,498,495
493,768,492,499,494
493,719,496,497,493
494,538,495,498,494
493,361,495,498,495
493,288,494,498,497
494,254,493,496,495
493,270,495,499,494
493,292,492,495,495
493,371,493,497,495
493,479,494,497,496
494,605,494,497,496
494,757,493,497,496
493,778,495,499,494
494,756,496,498,494
493,655,496,497,495
493,450,493,497,496
493,326,494,496,494
494,260,492,499,493
493,248,492,495,495
493,277,492,496,496
493,318,492,497,495
493,421,494,497,494
493,534,495,497,494
493,677,493,499,497
494,783,494,500,495
493,771,495,499,495
493,734,495,499,495
493,562,493,496,495
493,375,494,497,496
493,298,494,497,494
493,250,495,496,494
494,261,493,496,495
493,287,494,499,496
493,355,492,497,495
493,468,494,498,495
493,586,493,497,496
493,740,492,498,496
493,782,493,499,495
493,751,493,499,495
493,673,493,497,496
493,476,494,497,495
493,336,494,496,494
493,270,496,498,494
493,253,492,498,497
493,275,494,495,496
493,315,494,496,495
493,405,493,496,494
493,520,494,497,495
493,648,492,497,496
493,768,494,498,494
493,774,494,499,497
493,734,494,496,497
493,595,494,497,496
493,398,494,498,495
493,308,495,499,495
493,247,492,497,493
493,263,493,498,497
493,287,494,496,494
493,345,494,496,494
494,452,495,498,495
493,570,493,499,495
494,722,493,497,495
493,782,496,498,497
493,760,493,498,496
493,687,493,499,497
493,505,493,497,495
493,342,493,497,495
493,275,493,496,495
493,255,494,498,494
493,278,495,497,494
493,304,496,497,493
494,390,494,497,495
493,501,493,497,494
493,628,494,500,496
493,758,493,497,495
493,772,493,498,497
493,742,493,498,497
493,618,496,497,495
493,417,493,497,495
493,313,494,498,496
494,256,492,499,495
493,265,494,499,495
494,287,495,496,496
493,333,496,497,494
494,437,493,497,496
493,552,494,497,495
493,702,495,497,494
493,775,495,497,496
493,762,495,499,496
494,703,493,499,496
493,529,494,497,497
493,356,493,496,496
494,293,493,497,497
493,253,493,498,498
493,271,494,496,494
493,303,494,499,493
493,376,493,498,495
493,489,493,498,495
494,612,495,498,494
493,754,495,499,497
493,777,495,496,494
494,750,494,500,497
493,638,493,496,495
493,440,494,497,495
493,323,494,497,496
493,261,495,498,496
493,261,492,496,494
493,281,493,499,496
493,333,494,499,495
493,426,494,498,495
493,538,493,498,495
493,683,495,498,495
494,775,493,498,495
493,761,495,497,494
493,721,495,496,494
493,551,494,497,495
493,372,494,498,496
494,303,493,496,495
494,259,496,498,494
493,270,492,497,497
493,298,493,498,496
494,366,493,499,496
493,471,493,497,495
493,594,494,497,494
494,736,495,499,495
493,777,495,498,494
493,749,496,496,494
493,658,493,498,497
493,467,493,497,495
494,335,494,498,495
493,264,492,495,494
493,255,492,496,495
494,280,493,497,495
494,319,496,498,497
494,415,495,498,495
493,523,493,498,496
493,660,493,500,496
494,772,495,498,495
493,767,495,499,495
493,734,492,497,495
493,580,495,498,496
493,387,494,497,495
493,305,494,496,494
493,251,495,497,495
493,263,495,500,495
493,290,492,497,495
493,353,495,498,496
493,457,493,498,495
493,573,493,497,498
494,728,493,500,496
493,773,493,499,496
493,757,492,497,497
493,679,496,499,495
493,493,494,497,495
493,343,494,496,494
493,278,493,498,497
494,251,493,496,495
493,282,495,497,496
493,304,492,497,497
493,399,493,497,494
493,507,494,498,495
494,634,495,497,495
493,766,494,499,496
493,766,493,498,495
493,741,495,499,495
493,612,496,498,495
493,413,494,497,496
493,314,492,496,495
494,254,492,497,497
494,258,493,495,495
494,287,492,496,495
493,338,492,497,495
493,446,494,498,496
493,558,493,497,494
494,710,496,498,497
493,781,493,499,496
493,762,495,499,496
493,702,495,496,496
493,518,494,498,495
493,349,493,496,496
493,287,495,497,494
494,255,494,496,494
494,272,494,496,495
493,300,493,496,495
493,388,494,497,495
493,493,494,499,496
493,619,492,498,497
493,755,492,498,497
493,777,494,499,496
493,740,492,497,495
493,640,496,499,496
493,430,493,498,495
493,321,494,497,495
494,260,496,497,494
494,258,495,499,498
493,288,493,496,495
493,339,494,499,495
493,428,493,497,496
494,543,493,496,496
493,686,492,497,496
493,773,495,499,496
493,766,493,496,493
493,715,494,500,496
493,545,494,498,496
493,368,494,497,495
493,298,495,497,494
494,252,491,497,497
493,270,495,496,496
493,299,493,496,495
493,367,493,497,495
494,477,494,497,495
493,596,493,499,495
493,749,493,497,496
493,776,496,497,495
493,753,493,499,498
493,659,494,498,496
493,459,494,497,495
493,328,493,497,495
493,269,495,496,495
493,257,495,497,493
493,281,494,496,494
493,320,494,496,494
494,416,493,498,496
493,528,493,497,495
494,669,496,500,496
493,772,493,498,497
493,767,493,498,497
494,735,493,499,497
493,572,494,497,496
493,382,494,497,496
493,300,494,496,496
493,257,495,498,494
494,268,495,497,494
493,292,495,496,494
493,356,493,498,495
493,462,493,497,496
493,579,493,497,495
494,730,493,496,496
494,778,493,497,496
494,753,496,496,495
493,673,492,498,497
493,482,495,497,495
493,337,493,498,497
493,278,494,498,496
493,258,495,498,496
494,275,492,497,495
494,312,492,497,496
494,401,494,497,495
493,514,494,497,495
493,641,493,496,494
494,763,493,497,496
493,772,495,499,497
493,740,492,498,494
493,598,493,497,496
492,404,493,497,496
493,313,493,498,496
494,256,494,496,496
493,269,494,498,495
493,288,493,497,495
493,344,494,497,495
493,450,494,497,495
493,563,494,497,497
493,718,493,497,495
493,776,495,499,495
493,755,492,498,498
493,687,492,497,498
493,512,493,497,496
493,347,494,497,495
493,285,492,498,492
494,252,493,499,495
494,279,495,499,495
494,305,495,498,494
493,390,495,497,495
493,495,493,497,496
494,624,493,497,494
493,761,493,500,495
493,770,492,497,496
493,743,491,496,496
493,624,492,497,496
493,425,493,497,496
493,320,494,496,494
493,254,492,498,497
493,264,493,499,496
494,288,494,498,494
494,329,492,497,497
494,436,494,498,495
493,547,493,497,495
493,695,495,498,495
493,775,494,496,495
493,760,493,499,495
494,719,493,496,497
493,540,495,497,495
492,360,493,497,496
493,294,493,499,499
494,257,493,499,496
494,276,493,500,495
493,293,492,499,495
493,378,493,497,495
493,484,493,498,496
493,606,495,497,494
494,753,496,497,494
493,779,494,499,497
493,746,492,496,496
493,655,495,497,496
493,445,493,497,496
493,326,492,497,497
493,262,491,497,495
493,253,493,498,498
493,281,493,496,495
493,329,494,499,496
493,422,493,498,495
494,537,494,497,492
494,671,493,497,494
493,774,494,498,496
493,771,494,497,495
493,727,493,496,495
493,561,493,496,494
493,379,494,496,495
494,302,495,497,495
494,253,492,497,494
493,265,495,499,497
493,297,492,499,496
493,364,494,498,496
495,470,495,498,495
494,585,494,498,494
494,739,493,497,496
493,778,494,497,495
493,751,493,496,494
493,665,493,495,495
493,477,493,497,496
493,334,493,497,495
493,272,492,496,496
493,255,492,497,497
493,280,493,497,496
493,316,494,496,494
493,410,493,498,496
494,521,494,497,494
493,655,496,499,495
493,773,495,497,494
493,771,494,496,494
493,736,495,499,498
493,593,493,496,495
493,398,494,498,495
493,304,493,497,496
493,248,491,496,496
494,266,492,497,496
493,286,494,496,498
493,350,493,496,495
494,452,494,498,495
493,569,494,499,496
493,730,495,499,495
493,782,494,498,497
493,756,495,496,495
493,688,493,499,495
493,496,495,497,496
493,339,493,496,495
493,277,492,495,495
494,252,496,497,497
493,274,495,497,493
493,304,492,499,496
493,393,494,498,496
493,502,493,498,495
493,633,494,500,495
494,759,493,498,495
493,776,495,498,496
494,747,494,497,495
493,614,493,497,495
493,415,494,496,494
493,313,494,498,496
493,244,492,495,496
493,261,496,496,497
493,285,492,498,498
