Sensor0,Sensor1,Sensor2,Sensor3,Sensor4

491,492,638,492,495
494,494,637,490,493
491,493,619,4,493
517,491,494,492,492
595,491,495,492,493
635,491,493,491,493
632,490,494,491,493
606,493,495,494,493
517,492,493,491,492
424,491,493,492,492
386,490,493,493,495
372,492,493,491,494
377,491,495,492,494
385,490,492,492,491
427,492,494,491,492
482,491,494,491,492
546,491,492,493,493
619,490,493,492,494
634,491,494,491,492
626,490,492,492,494
573,490,494,493,493
469,490,493,494,494
406,491,492,493,493
371,492,493,491,492
373,492,494,492,494
380,492,493,491,492
398,493,493,491,493
448,491,494,493,494
509,490,493,493,491
580,489,492,491,492
633,492,494,492,492
634,492,495,493,492
618,491,494,495,492
531,492,494,492,494
433,491,494,490,492
392,490,493,492,496
373,491,493,490,494
375,491,491,491,494
383,490,490,491,494
420,491,495,492,492
473,491,493,492,491
536,491,493,493,493
613,490,494,492,492
637,491,494,492,491
628,491,494,492,491
586,490,493,493,493
483,491,494,492,493
410,490,494,491,493
375,491,492,491,493
370,490,492,492,494
378,489,493,490,493
395,492,492,494,492
441,491,493,492,492
504,490,494,492,492
571,491,495,492,492
630,491,494,491,493
634,490,494,493,494
619,493,494,494,492
545,492,494,493,494
443,491,493,492,493
395,490,494,494,495
369,490,493,491,494
373,492,495,493,491
381,490,493,492,492
412,492,495,492,494
467,492,492,494,492
525,492,493,490,493
604,492,493,492,492
637,491,490,491,495
627,492,493,490,492
592,490,494,495,493
498,492,494,494,492
415,491,493,493,493
381,491,494,490,492
372,492,494,492,494
376,490,493,491,492
390,492,492,490,492
432,491,493,491,492
493,490,494,491,492
559,489,491,489,495
625,491,493,489,493
635,490,494,492,492
625,491,494,494,491
560,491,494,494,493
453,491,495,492,493
400,492,493,494,493
368,492,491,492,493
371,491,494,491,494
380,490,493,490,494
402,489,493,493,495
459,491,493,492,494
518,490,494,491,493
595,491,494,493,492
637,491,493,491,492
632,492,494,490,491
606,493,493,492,494
514,492,494,489,492
420,490,493,493,493
385,491,491,489,494
372,490,493,492,494
376,490,493,496,493
387,492,493,493,492
428,490,493,491,492
485,490,493,493,493
550,491,493,491,491
621,492,493,491,492
634,491,493,495,492
624,490,490,492,491
574,492,497,491,494
466,491,494,492,494
405,490,493,492,494
372,490,493,492,492
372,491,492,491,493
378,491,493,492,491
397,490,492,492,493
451,491,493,490,493
511,492,488,490,492
582,491,494,489,492
633,491,495,492,494
632,490,494,493,492
615,489,494,494,494
527,491,493,492,493
432,490,494,491,492
391,490,493,492,494
374,492,493,491,493
375,490,494,491,492
383,491,492,490,494
417,490,493,492,493
475,491,493,492,493
538,492,492,493,494
614,492,494,491,493
637,491,495,492,492
628,491,494,492,492
584,493,495,491,492
481,492,494,492,493
407,490,493,491,493
374,492,494,493,491
371,490,493,492,494
378,489,493,492,493
393,490,493,492,493
442,491,493,491,492
505,490,493,491,493
570,490,492,491,492
631,491,494,491,492
633,492,492,491,493
620,493,491,493,493
543,491,493,491,494
442,492,495,491,492
393,490,493,493,495
369,489,493,493,492
375,491,495,493,492
381,491,492,492,492
413,492,494,492,494
467,492,496,490,493
527,491,493,490,494
607,491,491,490,494
636,490,493,491,493
627,492,494,491,491
590,490,493,493,492
496,492,495,492,492
413,490,493,492,493
383,490,494,493,492
372,492,495,492,494
376,490,494,490,492
392,490,493,493,492
434,491,493,491,493
495,490,492,491,493
559,490,492,489,494
627,492,492,492,493
635,490,494,491,493
622,491,494,494,492
556,491,493,494,492
452,491,495,492,492
400,491,493,492,493
368,492,493,491,493
374,490,494,491,493
379,490,493,491,494
404,490,493,492,493
459,491,493,491,493
519,490,494,490,493
598,492,493,493,493
638,490,492,492,493
632,492,494,491,491
604,492,495,491,493
510,492,494,491,492
419,490,493,493,493
384,491,491,494,491
373,491,493,491,493
375,489,494,492,493
387,489,493,494,493
428,491,492,493,493
486,491,495,492,492
551,490,493,491,492
622,492,494,491,492
635,491,492,491,493
625,491,493,489,493
573,492,495,492,493
464,491,494,493,492
405,490,492,492,493
369,490,493,493,491
372,491,494,494,491
381,491,494,491,492
398,490,493,491,492
452,490,493,491,493
511,490,493,491,492
585,491,493,491,493
632,490,492,492,494
632,489,494,490,492
616,489,494,494,494
525,491,492,492,492
431,491,495,492,492
391,491,496,493,492
373,490,494,491,493
375,489,494,491,493
383,491,493,493,493
420,491,493,492,493
477,491,494,492,494
539,490,493,492,495
614,492,494,490,492
636,490,494,492,494
625,490,492,492,491
583,492,496,492,492
477,491,494,492,492
409,491,493,491,492
375,493,493,494,492
372,491,489,493,493
381,491,494,491,493
393,490,493,491,493
443,489,494,491,493
504,490,493,491,493
572,491,492,493,492
632,491,492,492,494
633,492,493,490,492
618,493,494,491,492
538,491,493,492,493
441,491,494,492,492
393,490,493,493,492
373,492,493,492,493
374,490,494,492,491
383,490,495,493,493
413,491,494,492,493
467,491,494,492,492
529,490,494,493,495
609,493,492,491,493
635,491,493,493,494
626,490,493,492,495
588,490,493,493,492
494,492,495,492,493
412,490,492,492,493
379,491,495,492,492
372,492,495,490,492
379,491,493,491,492
392,489,493,492,493
434,492,494,491,493
497,490,494,491,493
561,490,492,490,494
624,489,493,492,493
635,489,494,491,494
621,492,492,495,492
554,490,495,492,493
451,491,494,492,491
398,492,493,492,491
371,492,492,492,492
374,491,493,490,494
380,490,494,491,491
408,491,493,492,493
460,490,493,491,493
520,490,494,492,492
600,490,494,493,492
636,490,493,492,493
629,491,493,490,495
599,489,492,489,493
505,492,495,491,493
420,491,494,492,493
383,490,493,493,491
373,492,493,493,492
377,492,494,491,494
389,490,495,493,493
430,492,495,492,493
487,491,495,492,493
553,489,493,492,492
621,491,493,492,492
636,491,493,492,494
624,490,492,493,495
567,490,494,492,493
462,491,494,491,493
404,490,493,492,492
369,491,492,492,491
374,491,494,490,491
382,492,494,490,491
402,492,493,490,493
451,491,493,490,493
512,490,493,491,493
586,491,495,492,492
634,490,494,492,493
632,491,494,493,491
612,491,494,494,493
520,491,494,491,493
429,491,495,490,494
388,490,493,490,492
373,492,492,490,492
374,491,491,492,492
382,490,495,492,491
423,490,493,491,493
479,490,494,491,493
543,490,493,492,493
618,491,495,491,492
635,491,495,490,494
626,489,494,491,493
580,493,495,493,493
474,492,494,492,493
408,490,492,491,493
372,490,492,491,493
370,489,492,492,494
381,492,494,490,492
397,490,495,491,493
445,491,495,492,493
507,491,494,492,492
577,492,495,490,492
630,491,492,493,493
635,491,490,491,494
620,491,496,492,494
534,491,494,493,493
437,492,493,494,493
393,490,493,493,492
372,492,493,492,491
376,491,493,492,493
382,490,495,490,492
415,492,493,491,492
471,490,492,492,492
530,489,495,492,492
608,490,492,492,491
636,492,494,493,494
629,490,494,493,494
588,490,495,493,493
490,491,495,492,492
412,491,492,492,494
378,492,496,491,492
369,490,495,493,493
377,491,492,491,493
390,491,492,491,493
436,492,493,492,493
499,491,494,491,493
565,490,493,491,492
627,490,494,492,492
636,491,495,491,492
623,492,496,491,492
552,490,494,493,494
448,492,493,492,491
396,492,495,492,492
369,491,493,491,494
372,490,493,492,494
382,490,493,491,492
408,491,493,493,493
462,491,494,491,492
523,490,494,491,491
604,491,494,490,493
636,492,493,490,492
628,491,493,490,494
600,490,494,492,494
504,491,495,492,492
419,490,494,492,494
384,490,493,493,494
372,491,495,493,491
377,490,492,492,494
390,491,495,491,494
429,490,492,493,492
490,490,487,493,493
554,491,494,488,493
621,491,493,491,493
636,492,491,492,495
625,492,494,490,491
565,491,495,494,493
460,491,494,493,492
403,491,494,491,492
368,490,492,492,491
373,491,493,493,493
382,491,493,492,493
400,490,492,492,493
454,491,493,491,493
514,491,494,492,494
590,492,493,491,494
636,490,493,492,494
630,490,492,491,492
613,492,496,491,492
520,492,493,493,493
427,492,494,491,493
388,490,493,490,494
371,491,493,490,491
375,490,493,492,493
385,489,492,495,493
423,490,493,492,493
480,490,493,491,492
545,491,493,492,493
615,490,494,490,493
635,491,493,490,493
625,491,492,491,492
577,492,496,492,492
474,491,493,492,494
409,492,494,491,494
372,489,493,493,493
372,491,494,494,493
381,492,493,492,491
399,492,496,492,494
444,491,494,493,493
507,491,493,494,492
576,491,492,491,494
630,489,490,491,494
632,490,495,491,493
618,493,495,491,494
533,490,493,491,492
433,491,494,492,492
392,491,495,493,492
372,491,494,490,492
375,492,493,492,493
382,491,493,491,492
415,490,494,492,492
470,490,493,492,493
531,490,493,491,494
609,489,492,492,492
636,491,493,493,492
628,491,491,491,494
584,491,494,492,492
486,491,495,493,493
412,490,493,491,492
379,492,494,491,493
370,490,495,492,493
377,489,492,491,491
394,491,492,492,493
437,490,492,492,493
500,490,493,492,493
567,490,493,491,494
626,491,495,492,492
633,490,493,493,492
620,493,495,491,492
547,491,493,493,493
447,491,493,491,491
396,491,495,493,494
369,489,494,491,493
375,490,494,492,492
382,490,494,493,494
409,490,493,491,495
464,491,494,491,493
524,491,494,494,493
602,489,491,492,492
634,492,492,493,492
627,490,492,492,494
594,490,494,493,494
502,492,494,493,492
416,490,494,492,493
383,492,493,490,492
372,491,495,492,491
378,491,492,494,492
390,491,495,489,494
430,490,494,491,492
491,490,492,492,492
557,490,490,492,493
621,490,491,493,494
633,489,495,491,495
624,491,494,490,493
562,491,495,494,493
456,491,493,493,493
401,492,494,493,491
371,492,495,491,492
372,491,491,493,492
381,491,493,490,494
401,491,495,492,493
455,491,494,491,493
514,491,494,493,493
592,489,493,493,492
634,490,494,493,493
629,490,493,492,491
610,492,493,493,494
516,492,495,492,492
424,491,494,492,492
386,491,493,491,493
371,491,495,491,491
375,489,494,492,492
387,493,493,493,492
425,490,494,492,493
482,490,494,492,492
547,491,494,491,493
616,490,492,490,494
635,490,494,492,493
625,490,493,491,493
575,491,493,493,493
471,491,494,493,493
409,492,494,491,493
373,490,491,492,493
372,490,492,491,492
383,491,493,491,492
401,491,491,492,493
449,490,490,494,493
510,489,491,492,493
580,489,489,493,493
635,489,493,491,495
633,488,496,491,493
617,490,493,494,494
533,492,493,492,493
435,493,495,493,492
393,491,494,493,495
375,492,494,490,492
375,492,493,491,492
383,491,493,491,493
418,491,494,494,494
473,491,494,492,493
537,492,492,493,494
612,490,490,493,493
637,491,491,490,492
628,492,489,490,495
582,493,490,492,492
482,492,493,494,493
411,494,493,491,492
376,495,494,492,492
369,493,497,494,493
378,489,497,490,490
394,490,495,492,493
438,490,494,490,493
502,491,492,491,491
568,492,495,491,491
628,492,492,491,493
633,490,492,493,494
618,492,494,494,494
545,491,496,492,495
443,492,496,492,495
394,490,496,494,496
369,489,497,491,496
373,491,495,492,494
381,490,488,493,492
412,491,488,490,493
465,491,489,491,491
524,491,492,491,492
604,490,495,491,492
633,490,494,492,491
629,489,496,492,494
592,490,494,492,492
498,491,496,492,492
414,490,495,493,492
380,491,493,491,491
371,492,495,493,493
376,490,493,491,492
388,492,493,490,492
430,490,494,491,492
491,490,495,491,492
559,489,494,492,494
625,491,495,491,493
636,491,495,492,492
624,491,494,492,492
560,492,494,492,494
454,491,491,494,492
399,492,494,492,493
369,492,495,491,494
373,490,496,491,494
379,490,496,492,494
402,492,498,490,493
457,490,499,491,493
517,491,499,494,492
597,490,500,493,492
636,493,489,491,493
630,492,484,491,495
607,493,489,495,493
515,493,491,491,494
423,490,488,492,495
387,490,491,490,494
372,490,496,492,492
378,490,499,492,495
387,493,499,490,492
428,492,498,490,494
483,491,497,494,494
550,492,498,492,493
621,493,501,493,495
635,491,500,493,494
626,490,502,491,492
577,492,498,494,492
467,491,483,492,491
404,490,489,491,492
371,490,490,490,493
370,489,492,491,492
382,490,491,491,495
401,492,491,491,493
450,491,492,491,493
511,491,495,490,494
581,490,495,491,494
635,491,498,491,495
633,490,496,492,494
617,490,498,497,495
530,491,491,493,495
434,492,494,491,493
393,489,494,492,494
374,492,493,490,491
376,490,489,491,492
383,490,486,489,494
417,490,494,491,494
475,491,498,492,493
539,491,497,493,495
615,492,501,491,495
639,490,505,492,494
630,491,495,491,492
587,492,493,491,493
483,490,488,491,493
412,491,487,493,492
378,490,493,490,494
370,489,494,493,494
380,489,492,492,492
394,489,492,492,492
442,491,492,491,493
505,490,493,491,493
570,490,493,492,492
632,491,494,491,492
635,491,493,490,494
621,492,493,493,493
546,490,492,493,493
445,490,494,491,493
395,490,494,493,494
372,489,494,492,492
378,491,494,491,492
383,490,492,491,491
415,491,492,491,493
467,490,493,490,492
529,490,491,489,493
608,491,492,491,494
637,490,494,491,492
632,489,494,492,495
595,493,494,491,493
498,491,492,492,494
418,490,496,491,493
386,491,495,492,491
375,493,494,492,494
380,491,497,490,494
392,491,502,492,494
435,489,503,491,495
498,488,500,491,495
563,489,499,490,495
628,490,491,490,493
638,491,473,491,493
623,491,486,491,491
560,492,489,491,494
457,491,493,490,492
402,491,495,492,492
372,492,493,492,494
377,492,492,490,494
381,489,494,492,494
406,489,493,491,493
460,490,493,491,492
519,490,493,491,493
600,490,496,490,496
636,492,497,489,495
631,492,495,492,495
606,492,495,492,496
513,492,497,491,494
424,492,494,491,496
387,490,482,489,493
373,492,493,492,493
380,490,495,492,492
389,491,491,491,491
428,491,490,491,493
483,490,493,491,494
551,490,494,492,493
619,492,491,492,494
634,490,491,492,494
625,489,494,491,493
572,493,497,492,495
465,490,497,491,493
404,490,493,492,492
372,490,498,490,493
373,491,494,489,493
381,490,492,491,495
399,491,489,489,494
452,489,494,490,492
510,490,493,492,494
584,488,493,492,494
634,490,495,491,492
632,492,491,492,493
611,491,491,494,491
524,491,492,490,493
430,491,494,489,494
390,491,493,489,493
371,491,490,490,492
376,491,494,491,494
384,489,494,489,493
419,489,491,490,493
475,489,491,491,494
539,489,492,490,493
615,489,491,491,495
636,492,493,490,493
628,491,494,490,493
579,492,494,490,494
478,491,494,491,494
410,490,493,489,492
377,493,493,491,493
372,491,492,489,494
381,491,493,490,492
397,491,493,490,493
442,491,494,490,494
503,491,489,489,493
572,490,490,490,493
628,490,492,489,492
634,489,493,491,495
619,489,496,493,496
541,490,499,491,495
442,491,501,488,493
395,490,498,490,494
370,490,488,488,492
374,492,492,489,493
382,490,490,489,493
410,490,489,490,492
469,491,490,490,493
528,491,490,489,492
608,490,492,491,492
636,491,494,492,492
629,491,496,489,493
589,490,496,490,493
494,491,497,491,493
413,490,492,490,493
379,491,491,489,492
369,489,489,491,494
377,489,491,492,494
390,492,492,489,492
436,490,497,491,493
497,491,496,490,492
564,491,497,488,492
627,490,489,491,493
634,491,492,490,493
624,490,492,491,494
553,491,495,491,493
451,491,488,489,493
397,490,483,492,492
369,488,490,491,492
373,490,489,490,492
383,491,492,490,494
404,488,492,489,492
461,491,493,489,492
519,490,494,489,493
597,490,496,491,493
636,490,495,490,495
630,491,495,489,494
603,489,493,492,494
509,490,489,493,493
422,490,486,491,492
387,491,490,490,494
371,489,492,491,491
376,489,497,490,492
386,491,491,488,493
427,490,492,489,492
487,490,493,490,493
553,491,493,488,494
620,490,494,489,494
634,491,494,491,491
627,492,495,491,492
571,492,494,490,493
465,490,493,491,494
404,491,493,489,493
371,490,494,490,494
372,489,492,492,493
380,489,493,491,494
400,490,496,492,493
453,491,494,490,493
512,490,490,489,494
585,490,490,489,492
634,491,492,489,493
630,492,492,489,494
613,492,491,491,493
525,491,493,490,493
428,491,491,491,492
391,491,492,491,493
371,490,494,490,492
377,490,493,491,492
386,491,490,491,495
418,492,494,488,492
477,490,497,490,494
541,491,495,490,493
614,491,494,490,494
635,489,492,492,493
627,492,493,492,495
580,491,488,491,493
477,491,491,491,493
410,491,493,491,492
376,492,493,491,492
371,490,492,491,495
379,491,492,489,493
398,490,494,490,495
444,491,493,491,493
504,490,493,490,494
574,490,492,491,495
632,489,491,489,494
633,491,494,490,492
618,490,491,491,492
539,492,494,492,491
438,492,494,493,491
394,492,493,490,495
371,489,493,487,494
373,490,491,491,492
385,489,492,490,495
412,489,492,490,493
469,490,491,491,494
531,491,493,489,493
611,490,493,491,494
636,490,493,492,492
631,492,493,491,492
591,494,494,491,494
493,492,493,491,494
413,491,491,490,495
379,493,493,492,492
369,490,491,493,494
379,490,492,491,494
392,490,495,492,492
437,490,494,491,493
498,490,494,489,492
565,492,493,491,494
625,491,494,490,495
635,491,492,489,495
621,491,491,492,495
552,492,494,492,493
450,492,494,490,492
398,492,494,492,494
371,489,493,493,492
375,491,493,491,492
382,491,495,490,496
405,490,494,492,494
462,490,490,493,493
522,491,492,490,493
600,491,492,488,495
635,490,492,489,494
632,491,494,489,495
600,490,492,490,493
506,492,493,492,493
419,490,493,492,492
386,491,494,491,492
373,491,493,489,492
377,490,492,492,493
387,492,490,489,492
430,491,494,489,493
489,491,490,491,493
553,489,489,490,495
621,489,492,488,494
634,491,493,491,492
627,490,490,491,493
569,492,495,492,492
463,491,495,491,493
404,491,492,489,494
370,489,495,490,495
371,489,493,490,492
382,491,489,493,494
401,489,494,493,495
455,490,497,490,494
514,491,496,490,493
587,490,497,491,492
634,490,491,491,492
631,492,485,490,493
612,492,488,491,493
521,492,490,491,492
429,491,490,491,493
390,491,490,490,496
371,492,491,490,493
377,490,491,493,492
386,490,494,490,492
423,491,494,490,492
478,489,493,491,493
542,490,492,492,493
617,489,495,490,494
634,489,496,491,495
625,489,496,491,495
578,490,499,491,492
475,490,499,492,494
408,490,497,490,492
375,490,489,491,492
371,491,485,491,492
380,492,490,490,493
396,489,493,491,493
445,489,493,491,493
507,490,493,491,494
575,489,489,492,494
631,489,489,491,493
633,491,494,492,492
616,492,488,495,492
536,492,495,490,494
437,492,496,490,493
392,492,493,490,493
371,492,491,490,494
373,490,494,491,492
384,489,492,493,494
416,492,495,491,493
469,491,494,493,492
532,490,496,491,493
610,490,492,490,494
634,490,490,490,493
627,491,492,494,494
588,492,491,491,493
487,491,493,491,493
411,490,491,491,494
378,492,494,490,492
370,490,494,492,493
378,490,492,491,491
393,490,495,490,492
438,490,494,491,493
497,490,491,490,493
564,491,491,494,493
626,491,491,491,493
635,491,496,489,494
620,489,493,492,494
548,490,493,492,494
448,491,492,492,492
397,491,493,492,492
372,490,493,492,494
373,493,493,491,492
381,492,493,490,493
406,491,492,491,493
462,491,494,492,493
521,489,493,491,493
604,491,495,491,493
636,490,496,492,492
631,491,497,491,492
600,491,497,492,494
503,491,493,492,493
418,490,490,496,494
383,492,493,489,493
370,491,493,491,494
375,490,491,492,493
387,489,489,492,491
432,492,492,491,493
489,490,492,490,493
555,491,493,491,492
624,491,495,491,492
635,490,493,491,493
624,490,493,493,494
564,493,491,493,493
460,490,491,490,493
401,490,491,491,494
368,489,488,494,494
373,490,494,489,493
381,491,493,492,491
404,490,489,491,493
457,491,491,493,492
516,492,493,490,492
591,493,492,491,494
636,492,493,491,493
630,492,492,491,492
612,490,494,493,494
518,490,494,492,492
426,490,493,493,492
388,490,495,493,493
373,490,492,491,494
376,492,494,491,492
385,490,492,490,492
422,492,493,491,492
480,490,492,491,494
543,491,489,492,491
619,494,492,492,493
634,494,492,491,493
628,492,494,493,493
578,488,495,491,493
472,487,494,492,493
406,488,493,491,492
374,492,492,493,493
371,490,491,491,493
378,490,493,490,494
395,490,493,491,493
445,489,494,491,493
508,490,493,492,492
578,491,492,490,493
634,491,493,490,492
633,492,493,490,492
618,492,494,491,492
532,492,493,492,493
436,491,494,491,492
391,491,495,493,491
369,490,492,492,493
374,490,492,492,492
383,490,493,494,494
413,492,486,491,493
472,491,492,489,493
532,489,495,489,491
612,491,494,491,493
635,491,491,491,493
625,490,492,493,492
588,490,495,491,493
486,491,495,492,493
411,490,493,492,493
378,490,493,492,492
371,490,494,492,494
377,490,492,491,491
394,492,491,491,493
437,491,493,491,493
500,490,493,490,494
566,490,491,490,494
626,490,491,493,494
634,492,491,493,491
622,490,493,491,491
546,491,495,492,494
446,490,494,491,493
397,491,494,491,491
372,491,493,493,493
373,492,491,491,493
382,491,493,493,493
406,490,489,492,493
462,491,491,490,493
522,491,493,492,493
602,491,492,493,493
637,491,494,491,494
627,491,495,490,492
598,492,494,490,493
502,491,492,491,493
416,490,492,492,492
381,491,490,492,491
372,491,495,492,493
376,489,494,493,493
389,489,492,495,493
432,492,492,493,493
490,492,495,491,494
556,493,495,490,491
622,491,495,493,492
635,493,495,491,493
624,493,496,490,493
562,491,496,491,493
459,491,497,491,494
401,491,486,490,491
371,487,487,492,492
374,488,491,492,492
382,490,492,491,490
405,488,492,492,492
456,490,492,491,492
515,489,494,491,491
591,489,493,490,493
633,489,492,491,494
630,488,493,489,492
609,491,493,494,493
517,491,485,491,492
425,490,490,492,492
388,490,494,491,491
374,490,494,490,492
376,491,490,493,492
385,489,494,489,493
423,491,496,491,492
482,490,492,491,493
545,488,490,491,492
617,490,494,491,491
635,490,493,491,494
627,491,495,491,494
573,490,494,491,492
470,491,493,492,492
407,491,493,490,493
372,492,492,492,491
372,490,490,494,492
378,491,492,490,491
397,488,492,492,493
447,489,492,490,493
508,489,489,492,491
578,489,491,490,492
632,491,491,492,494
633,490,492,490,493
615,491,493,492,493
529,491,497,490,492
436,490,495,489,492
391,491,494,489,491
370,490,493,494,491
374,490,492,492,490
384,490,494,492,491
417,491,492,491,491
473,490,493,491,493
534,489,491,490,493
610,489,495,491,492
634,490,493,493,493
625,489,492,493,494
584,489,494,493,493
483,491,494,492,493
411,489,494,492,493
376,489,494,491,492
370,491,493,491,493
378,491,488,491,493
392,492,495,490,492
440,491,494,490,493
501,491,494,489,493
568,490,493,493,493
628,490,494,493,492
634,491,494,491,492
622,491,495,492,494
543,490,494,492,492
444,490,492,491,492
394,491,493,491,492
369,491,491,492,494
372,490,491,491,493
383,491,493,491,493
408,489,492,490,492
464,490,493,491,492
525,489,495,492,491
605,490,494,490,492
636,490,494,492,493
629,491,494,491,493
595,490,496,492,494
497,491,494,492,492
415,490,492,492,494
382,489,491,493,491
371,491,491,492,491
378,490,491,491,493
388,491,493,490,492
432,491,492,492,493
491,490,493,491,493
557,491,491,490,492
624,491,495,491,493
633,489,493,489,492
623,491,492,493,494
559,490,494,493,493
455,490,490,493,492
401,490,492,491,493
368,491,494,491,491
372,489,492,492,493
380,491,494,489,493
403,490,494,490,493
456,490,494,491,492
518,491,496,492,493
593,488,494,491,493
633,490,488,492,491
632,491,490,490,491
608,491,494,491,492
515,491,492,491,492
424,491,492,491,493
386,489,487,491,493
371,490,494,491,492
375,489,496,492,494
386,488,496,492,494
426,489,497,490,492
483,490,498,492,492
547,489,492,491,491
620,491,494,490,492
634,491,494,490,493
624,490,487,489,492
575,491,490,491,493
467,491,486,492,492
406,490,492,491,493
371,489,493,491,492
372,489,494,490,493
381,489,493,490,495
401,491,497,492,495
449,489,494,495,494
511,491,495,494,493
581,490,492,490,494
631,490,491,490,492
632,492,490,493,493
616,493,492,492,493
528,491,497,491,492
432,491,498,489,491
391,491,498,490,492
373,491,496,489,493
375,490,496,490,492
382,491,497,491,491
419,489,492,490,491
473,490,490,490,491
534,489,489,492,491
610,491,489,491,492
635,490,491,494,495
625,489,492,497,493
585,493,500,496,494
483,493,501,499,494
411,492,506,497,495
379,491,505,490,496
370,491,510,492,493
380,490,491,495,492
394,490,485,491,493
441,490,488,492,493
502,490,492,489,492
572,491,495,490,494
628,489,489,490,493
633,491,492,491,493
618,491,490,492,494
541,490,495,494,492
442,490,493,494,491
394,490,492,494,491
371,492,492,493,492
375,491,495,494,491
384,491,496,496,492
410,491,494,497,494
465,490,491,497,493
526,490,494,493,492
605,491,492,493,494
635,490,493,500,494
628,489,494,503,494
594,491,496,496,493
497,489,496,496,493
415,490,497,498,493
384,492,499,504,492
372,493,496,506,494
377,493,494,499,492
392,492,494,489,493
434,492,496,489,492
495,491,494,493,492
559,490,495,489,493
624,490,496,487,492
635,490,500,489,495
622,489,505,489,493
559,489,501,491,496
454,491,490,491,495
399,491,488,492,495
370,491,489,495,495
376,493,490,500,494
383,496,492,506,493
406,501,492,510,494
461,500,497,503,494
520,500,495,503,492
598,498,492,499,493
635,495,492,487,493
631,492,495,495,495
603,492,491,497,495
511,489,491,492,492
421,488,492,480,493
385,489,492,480,493
373,486,491,480,494
374,489,493,480,492
388,491,494,486,492
427,491,494,491,492
484,490,494,495,493
551,490,495,502,494
618,490,494,502,493
635,492,495,506,494
628,491,495,506,492
573,492,494,503,492
467,491,494,499,493
404,491,492,494,493
370,489,492,495,494
371,490,493,480,493
379,489,494,481,494
398,488,495,485,494
452,489,494,492,494
511,489,491,495,492
584,488,491,497,492
635,490,496,498,492
633,494,491,500,490
616,494,493,506,493
526,495,497,503,489
430,496,496,500,487
388,495,498,504,491
369,495,496,496,493
376,497,496,494,490
384,498,492,492,492
415,494,493,489,491
472,491,492,485,492
537,492,490,481,492
613,492,490,486,495
634,490,492,491,493
627,490,495,493,496
581,489,494,496,493
480,494,494,496,493
409,495,495,495,492
377,493,495,492,491
371,491,491,484,493
380,497,492,482,491
394,497,492,489,490
440,495,492,501,491
502,495,492,500,493
570,493,495,495,490
629,492,496,496,492
633,489,493,495,495
620,487,497,500,494
541,488,496,496,493
440,490,495,500,490
394,492,497,498,492
370,497,495,491,494
373,503,494,507,491
384,506,497,516,492
410,508,497,500,491
466,509,496,498,492
527,505,494,509,491
608,499,496,494,490
632,490,494,483,490
624,486,493,484,490
588,489,497,490,493
493,487,498,495,494
412,482,496,498,495
379,484,502,499,493
369,486,501,497,493
377,489,496,480,494
391,489,493,486,492
432,489,489,506,494
496,488,489,496,493
561,488,490,492,493
624,489,495,501,487
632,488,498,501,487
620,490,497,501,486
552,495,497,499,483
449,499,498,503,481
393,501,496,499,489
368,500,502,499,491
371,503,504,506,492
380,502,505,503,497
404,497,500,495,503
459,492,494,492,492
517,490,490,493,493
596,491,492,507,489
634,490,495,511,487
625,482,494,498,484
601,484,496,492,494
506,487,497,480,492
418,489,498,485,499
386,492,495,490,496
373,494,492,492,494
379,492,489,482,494
390,492,491,483,494
429,485,493,496,492
487,481,495,503,491
553,483,492,503,491
623,493,496,521,492
636,508,493,514,488
627,517,493,482,493
570,522,500,490,494
467,520,503,504,494
406,514,502,496,496
372,501,501,481,489
370,481,499,483,491
377,475,497,487,493
402,476,502,491,498
453,479,500,501,492
514,487,502,505,503
589,490,497,506,505
640,494,500,470,499
633,488,495,484,493
616,493,503,505,504
530,498,503,513,496
434,492,497,516,492
393,486,492,521,489
372,487,497,516,492
378,488,494,503,490
385,482,491,509,487
419,485,497,513,480
476,486,501,511,476
536,486,502,490,476
613,491,510,482,490
634,500,511,481,490
626,516,502,483,496
583,531,490,504,506
480,537,483,505,505
413,536,491,510,499
378,528,500,504,494
371,496,505,514,485
377,479,503,505,482
394,481,503,503,473
436,479,504,515,476
499,479,499,492,475
567,489,496,494,490
626,498,492,470,493
627,495,490,453,495
614,496,495,513,491
536,495,505,540,499
438,488,514,543,498
391,485,515,549,501
367,480,509,510,493
372,485,507,479,483
378,490,508,502,484
406,494,499,504,486
466,500,500,532,496
528,496,499,535,500
608,494,499,530,500
637,487,494,444,496
625,487,493,464,496
591,487,495,476,491
491,492,496,491,486
410,504,494,509,477
378,511,497,517,479
368,514,497,523,497
376,515,499,535,501
392,511,499,490,502
433,487,500,491,487
493,486,497,527,482
563,491,505,515,491
623,494,505,490,496
636,508,503,526,491
624,515,505,528,475
549,508,501,493,466
439,503,502,466,468
384,485,497,483,480
356,471,490,472,498
365,471,487,486,510
375,482,492,501,511
404,485,496,510,502
461,489,495,534,489
521,498,510,536,493
600,497,507,499,483
635,498,511,487,481
627,494,509,482,489
598,495,503,475,500
507,497,496,529,503
419,498,495,537,497
386,511,500,530,503
375,518,506,493,494
379,520,506,489,496
389,507,494,499,494
431,496,491,490,486
487,481,497,509,490
553,482,501,488,487
619,486,503,466,490
631,484,507,474,479
619,487,515,525,463
559,491,509,533,469
454,495,506,522,481
394,489,491,547,498
364,489,481,530,498
368,491,486,517,492
374,486,499,514,484
396,487,503,486,498
450,508,508,464,513
516,520,513,481,504
591,524,518,501,494
637,528,514,487,483
632,519,504,537,475
607,490,495,528,487
517,479,488,521,486
424,489,496,566,474
382,502,498,533,481
364,504,499,500,495
372,501,504,460,495
377,499,491,423,496
415,503,496,464,501
477,501,505,505,502
543,491,499,509,502
616,486,495,517,491
634,478,485,506,474
620,477,488,466,474
572,483,502,504,478
469,484,504,510,505
406,490,506,516,501
373,501,515,548,499
375,511,512,527,486
379,506,503,518,477
393,502,513,502,484
439,493,512,483,477
497,504,508,498,495
573,516,503,499,502
628,515,488,479,492
627,516,480,474,483
613,513,492,522,482
532,491,499,573,499
437,501,516,575,511
395,496,520,556,508
374,483,513,511,483
373,498,505,452,469
376,506,487,454,471
404,509,495,448,477
460,505,504,459,480
526,513,508,531,499
606,512,505,558,497
635,501,506,607,500
630,492,508,554,513
586,487,482,484,497
485,491,482,470,478
405,491,477,422,471
370,492,489,456,478
362,485,502,491,487
373,482,503,491,486
383,484,506,499,493
434,496,499,511,503
500,510,504,543,518
573,519,504,502,511
634,519,497,493,494
638,496,503,495,483
621,495,504,459,474
544,502,505,473,468
440,491,508,509,469
387,496,506,522,463
356,491,499,542,478
362,476,498,529,507
375,478,496,529,509
407,480,500,537,511
465,502,514,526,509
527,509,515,495,501
603,514,506,488,500
639,522,504,509,495
632,504,486,468,496
595,480,492,497,486
503,484,498,509,486
417,500,500,499,464
378,498,511,541,444
358,525,508,523,448
362,514,500,505,473
372,499,489,495,510
422,508,498,474,532
488,501,490,477,529
558,489,497,530,506
624,485,491,518,498
637,481,487,470,492
625,491,495,443,487
566,485,511,465,485
457,491,513,518,480
401,497,518,552,480
367,501,510,562,487
369,508,501,554,467
372,510,498,477,465
387,487,504,484,461
438,484,504,482,488
504,492,503,511,495
585,500,494,519,507
631,517,481,503,510
632,515,494,496,512
611,503,510,487,501
519,478,511,514,493
428,479,499,557,507
391,489,495,512,503
375,507,495,476,495
379,511,489,467,481
385,490,492,491,484
419,479,492,494,490
479,482,492,471,492
543,507,494,470,485
618,530,503,501,488
635,523,505,517,476
621,505,503,585,477
578,504,517,550,491
465,484,501,485,485
398,482,495,492,480
366,493,491,447,487
361,496,497,449,504
378,502,501,467,505
397,502,504,533,494
446,498,499,540,490
505,485,507,518,490
577,493,494,534,490
630,517,499,501,502
633,506,494,509,503
619,488,491,487,499
532,474,491,433,487
431,468,485,477,477
387,492,496,498,472
365,496,508,508,490
373,500,530,525,492
378,495,517,544,468
406,489,505,567,483
465,490,495,512,487
525,492,485,469,501
608,500,482,429,512
635,504,495,448,502
629,513,507,487,498
591,509,512,510,497
491,509,516,566,503
416,511,490,541,505
382,484,480,445,496
366,467,469,446,474
373,477,491,482,481
391,496,505,514,493
439,511,512,541,501
505,513,502,526,503
573,529,501,577,484
630,514,493,534,471
627,500,493,505,478
618,510,496,478,478
537,498,499,435,492
437,463,504,458,493
388,468,512,482,488
366,488,514,482,489
371,498,512,495,495
380,502,506,506,512
411,503,497,484,506
465,494,483,490,500
525,484,486,491,502
603,480,496,556,497
641,500,509,569,491
634,498,504,542,494
597,485,495,551,493
504,485,500,497,488
415,490,493,417,465
374,491,490,457,466
362,498,493,487,473
366,511,506,491,482
385,513,501,517,504
430,521,508,548,502
489,498,498,531,485
550,479,485,468,490
617,493,486,438,490
629,506,489,475,509
628,521,498,512,504
566,508,501,528,489
459,517,504,522,480
400,534,504,528,465
365,495,502,505,460
358,458,501,490,469
368,484,501,475,483
393,490,510,478,512
452,490,500,478,529
515,487,494,474,515
597,476,492,538,506
638,488,482,496,486
631,502,487,495,483
607,512,488,465,485
514,495,498,509,489
424,487,509,513,483
382,481,507,533,472
368,489,509,503,477
371,487,497,497,504
383,480,495,490,508
422,482,482,507,508
483,498,479,499,503
550,516,483,504,497
619,494,487,488,482
632,482,501,481,469
620,482,507,482,475
570,496,509,474,482
466,500,497,488,520
408,510,494,523,511
379,528,505,529,486
374,524,498,500,493
379,502,500,516,502
399,485,506,507,500
451,496,502,507,494
508,491,502,481,491
580,482,507,499,488
631,501,498,468,500
634,513,486,486,506
621,485,479,489,503
533,493,489,496,492
434,479,488,482,483
389,483,495,518,486
375,489,508,567,492
378,494,509,538,475
380,497,499,489,480
412,500,494,472,489
468,491,489,441,505
534,488,490,476,519
617,489,490,499,509
640,488,490,479,492
629,488,498,474,468
580,484,506,488,473
479,476,509,503,485
406,484,503,529,494
378,501,506,529,500
376,510,503,534,500
382,507,502,502,498
398,515,491,491,501
441,499,483,477,494
502,505,484,504,488
568,499,498,512,476
628,490,502,498,486
631,495,500,464,507
624,497,504,484,503
548,503,493,496,493
443,495,494,474,472
390,497,492,516,482
369,484,493,506,504
373,485,494,498,509
386,517,498,500,509
413,507,495,498,504
469,471,490,494,499
528,487,487,468,495
608,487,488,475,496
641,489,493,484,494
633,482,495,490,493
595,479,495,497,489
500,482,501,494,471
412,489,507,509,468
375,496,506,514,462
361,492,503,519,483
371,488,493,538,497
384,474,493,506,510
430,487,488,475,502
493,490,489,456,492
557,494,495,459,473
622,499,501,477,482
631,497,508,482,487
618,499,512,490,483
559,497,508,526,509
456,505,511,539,514
406,517,503,522,505
376,520,494,523,504
376,520,482,499,496
386,499,489,489,489
401,484,500,494,491
459,501,491,505,484
516,494,479,485,481
588,475,487,493,487
631,472,485,455,494
629,479,494,474,496
606,483,498,495,498
516,483,490,490,497
424,478,488,499,488
384,484,493,489,487
373,488,496,488,490
377,489,496,495,498
386,494,493,488,506
428,493,494,487,508
489,498,495,501,497
552,493,493,504,499
626,498,499,493,500
641,497,496,512,499
633,497,504,521,497
581,488,495,481,494
472,491,492,484,493
406,488,491,482,495
375,488,493,491,495
373,491,494,499,498
383,489,495,505,499
403,488,494,499,494
451,489,495,510,496
514,492,494,498,495
584,495,493,471,490
633,488,494,475,494
633,491,493,484,497
619,505,502,496,497
531,510,496,502,495
437,503,497,509,496
392,492,496,504,491
371,479,497,485,480
374,486,495,497,480
380,487,506,522,485
417,485,499,503,495
474,484,496,490,499
535,487,486,483,498
612,490,487,471,495
634,490,487,472,488
628,496,494,476,493
582,493,494,477,489
482,492,500,485,482
407,490,499,494,487
375,488,497,510,492
373,495,496,506,506
381,498,493,489,502
395,493,489,491,489
440,484,493,496,490
502,486,495,490,493
569,490,498,495,488
630,492,503,499,491
633,492,499,501,495
622,490,503,492,500
544,490,498,484,503
445,494,496,487,495
395,488,483,491,490
370,484,483,502,494
377,484,489,509,495
383,485,495,514,495
409,491,496,507,495
467,492,487,484,499
529,494,490,493,500
610,495,495,488,503
639,490,492,482,496
632,491,495,493,496
597,504,499,488,499
503,514,501,494,498
420,502,497,492,497
383,496,496,496,495
374,488,493,488,495
379,476,492,485,496
393,486,493,494,496
437,493,492,491,495
497,480,491,490,497
560,471,492,486,495
629,492,494,488,497
638,502,492,484,496
625,489,495,487,494
564,488,493,494,495
457,491,493,493,496
403,489,494,498,495
373,488,494,497,494
377,492,494,493,495
387,495,495,490,496
406,492,492,491,495
461,494,497,491,495
522,492,496,493,494
597,492,496,493,496
637,493,496,495,497
635,493,499,491,497
607,487,499,491,497
513,489,495,489,497
424,486,497,486,496
389,488,496,489,494
376,488,494,490,495
381,490,493,489,496
391,490,493,493,498
429,492,492,495,496
487,491,490,496,497
552,488,493,491,497
624,487,491,493,496
639,488,491,491,499
628,492,495,493,495
577,492,495,494,494
470,490,493,495,496
408,490,491,495,497
376,488,495,496,496
373,488,499,496,496
386,490,496,498,498
403,487,496,495,496
453,487,503,490,497
514,488,506,483,497
587,492,503,483,496
635,488,500,488,497
635,487,494,484,496
617,488,486,489,498
528,490,482,495,496
435,491,479,491,495
392,490,489,493,494
375,488,494,492,496
381,489,494,492,496
389,489,496,494,497
424,488,494,493,499
480,487,496,492,498
543,486,497,492,498
618,488,493,492,499
639,486,498,490,498
631,486,501,494,499
587,488,498,491,499
486,493,491,490,498
413,494,489,490,497
382,494,488,490,495
377,493,486,490,495
383,489,489,492,496
400,487,491,490,496
446,490,492,489,496
508,489,499,491,497
577,489,500,491,497
635,489,501,491,496
638,488,498,492,497
626,486,502,495,498
542,487,493,492,497
445,489,484,490,496
398,490,483,490,495
373,490,489,491,495
380,490,492,490,497
386,491,494,488,496
415,488,493,489,498
472,489,495,489,497
532,489,494,490,497
612,486,496,489,500
640,485,489,489,498
632,487,485,493,498
597,489,491,491,498
499,490,490,490,498
418,489,497,491,499
385,491,514,491,497
378,488,516,492,498
382,488,510,491,497
398,489,510,491,498
441,491,505,491,499
500,490,483,490,499
565,487,463,489,497
629,489,479,491,496
638,488,486,491,498
627,488,487,491,498
560,488,487,492,497
456,489,492,490,497
404,489,495,490,497
372,488,494,491,496
378,491,489,491,496
387,491,494,492,497
409,490,501,492,498
464,488,504,488,499
525,487,501,487,499
605,489,503,487,501
643,488,494,489,500
638,490,497,489,498
610,488,492,489,499
514,487,494,491,498
425,489,497,491,497
389,489,492,491,496
376,488,490,491,497
380,487,483,493,495
392,489,482,491,495
432,490,487,490,496
490,490,490,491,497
557,489,489,489,497
628,489,492,490,497
640,489,494,492,498
631,488,496,491,499
576,489,499,492,498
468,490,496,491,499
407,487,492,492,499
374,484,488,489,497
376,485,488,488,497
384,491,492,490,496
408,493,487,491,497
457,490,494,490,497
518,487,496,485,497
592,487,498,488,497
637,485,496,491,500
637,489,496,488,497
621,492,493,490,500
528,492,492,490,500
437,488,488,489,500
394,486,487,489,499
374,489,490,490,498
380,487,481,490,494
388,489,491,490,495
424,487,493,489,497
482,487,493,488,496
546,488,488,489,498
619,487,488,487,497
641,487,497,490,497
633,486,496,491,498
588,487,498,491,498
484,489,498,490,497
411,489,498,491,498
379,490,489,491,497
375,489,480,491,498
381,489,486,491,499
398,488,477,491,497
447,487,484,490,497
508,488,491,490,498
580,488,499,488,498
638,488,506,492,498
640,489,507,489,498
627,490,506,488,499
542,488,493,491,497
442,488,478,491,496
398,488,487,489,497
372,488,489,490,497
378,487,482,491,497
387,489,486,489,495
417,486,494,488,496
473,487,496,489,495
534,488,492,488,493
613,488,493,488,495
639,488,491,489,497
631,488,494,490,500
596,488,493,491,500
498,489,498,490,497
416,488,498,491,499
384,487,499,492,499
377,488,500,490,499
381,487,493,491,499
397,489,494,490,500
442,490,487,490,496
500,488,481,489,497
566,488,492,489,497
631,488,495,487,495
639,486,490,489,496
626,488,484,491,496
558,488,480,489,496
452,488,485,490,496
403,488,489,489,497
373,487,492,488,496
377,488,493,490,496
385,488,491,488,497
407,486,488,489,497
464,487,488,490,495
524,487,487,490,494
604,488,490,491,496
641,488,492,489,498
633,489,493,487,496
606,489,493,489,497
512,489,490,489,497
424,488,485,490,496
386,488,484,490,497
376,487,494,488,497
380,485,497,489,497
391,486,496,491,497
433,487,491,489,497
492,487,494,489,496
557,486,493,489,498
629,489,493,488,496
638,488,482,489,496
627,488,489,489,497
575,489,496,489,497
465,488,494,489,496
407,488,488,490,498
375,485,487,488,496
376,487,485,489,495
384,486,484,491,495
408,487,490,491,497
456,489,494,488,497
517,487,501,486,495
591,487,499,487,496
636,487,492,490,498
635,487,493,488,497
619,490,493,492,499
526,489,484,489,497
432,488,489,489,497
394,488,500,490,496
377,487,508,488,496
380,487,490,489,495
388,488,490,490,496
425,487,482,487,495
482,487,488,488,495
545,486,494,489,497
618,486,494,488,496
641,488,495,490,496
629,488,480,489,496
585,490,487,490,497
480,489,483,488,496
410,488,483,487,497
377,489,484,490,494
376,488,486,489,494
379,488,491,489,494
398,487,492,489,496
447,487,490,488,496
508,487,488,490,495
579,487,485,487,495
635,489,491,490,497
637,487,495,489,495
624,490,502,488,497
539,489,506,489,496
441,488,509,490,497
398,487,488,489,497
375,487,481,488,497
378,486,481,489,495
387,487,486,491,494
416,487,489,488,496
472,487,496,487,496
536,489,496,489,497
612,489,503,488,498
640,488,491,488,497
631,487,481,489,497
590,488,495,489,498
496,489,498,490,497
416,487,498,489,497
381,488,502,491,498
377,487,511,489,496
384,488,498,487,495
395,488,494,489,495
440,487,473,487,493
499,486,475,487,493
565,485,471,487,495
629,487,486,489,495
636,488,484,490,496
625,490,490,491,496
556,489,494,491,495
450,488,499,489,497
402,489,501,488,496
376,488,501,488,495
376,486,501,490,496
384,487,494,487,495
411,488,497,489,496
464,488,486,488,495
524,487,474,488,495
603,485,478,489,495
637,486,483,488,496
632,488,491,488,493
599,488,493,489,495
508,488,488,489,497
422,488,487,487,495
386,489,491,487,496
374,487,492,488,496
378,487,492,488,494
391,487,490,490,496
433,488,490,490,495
493,488,490,488,495
557,487,496,487,497
628,486,499,487,497
638,486,500,487,496
627,488,498,488,495
569,489,490,489,495
463,489,486,490,494
404,487,483,490,496
371,485,488,487,494
373,481,484,489,495
383,486,491,488,495
407,490,493,489,494
456,491,487,488,495
514,489,491,487,493
592,489,488,489,493
637,488,486,490,494
632,489,490,489,496
612,489,493,488,496
522,490,495,489,495
429,485,495,490,494
390,488,492,490,495
375,488,494,488,495
380,489,489,489,494
388,489,486,489,495
423,486,487,487,494
483,487,495,489,495
545,487,497,488,496
617,487,493,489,496
639,487,486,488,495
627,488,484,488,495
581,488,484,491,495
475,489,488,488,494
409,489,487,488,494
376,489,488,487,494
373,489,490,488,495
380,488,487,491,493
397,486,488,486,494
449,487,489,488,494
507,486,489,490,495
580,486,495,488,495
635,487,495,488,495
633,486,497,489,493
621,486,496,488,495
534,489,492,488,494
436,488,488,487,495
393,487,483,488,494
374,487,490,488,495
374,486,489,487,493
385,489,491,491,495
416,488,491,489,495
472,488,490,487,496
536,488,488,487,496
610,489,491,488,494
639,488,494,490,495
629,488,499,489,496
586,488,503,491,496
491,489,506,491,496
415,488,503,490,495
380,489,488,492,496
374,487,484,488,496
381,486,491,488,493
394,485,488,487,492
440,486,476,486,492
499,488,479,486,491
566,489,483,489,492
631,488,487,488,494
633,488,489,489,494
623,488,488,490,496
551,489,489,488,494
447,489,490,489,494
397,488,488,488,493
374,490,489,490,492
374,490,488,489,494
382,489,485,488,494
410,488,491,488,495
463,487,491,489,493
525,486,490,488,494
604,486,494,487,493
636,487,494,489,493
632,487,494,489,493
595,488,484,488,493
503,489,490,490,494
417,488,490,488,493
383,490,489,487,492
371,490,489,488,494
377,488,490,487,492
390,487,489,488,495
434,489,491,489,494
492,489,488,492,493
556,487,494,489,494
624,487,494,489,495
635,486,493,487,493
625,488,492,491,495
565,489,490,488,494
458,489,488,488,494
400,488,483,489,494
369,488,487,487,490
372,487,491,488,494
381,489,491,489,494
405,488,494,488,492
456,488,493,489,493
515,489,497,486,493
593,489,494,488,493
634,489,494,487,493
632,489,483,489,496
608,489,486,490,496
517,488,496,489,494
426,487,495,489,494
390,489,486,489,494
371,487,481,488,494
375,488,487,487,492
387,487,489,487,492
423,487,488,487,493
481,485,488,487,493
545,486,489,487,491
619,486,489,490,493
636,486,487,489,493
626,487,489,489,494
576,488,493,489,494
473,490,496,489,494
406,489,496,490,494
375,488,498,490,492
373,489,494,488,493
380,488,502,487,494
397,487,502,488,495
450,485,508,488,493
509,486,503,488,491
580,484,472,491,492
632,485,471,485,491
633,488,481,487,492
619,490,483,488,495
533,490,489,489,493
433,488,488,487,493
392,489,489,487,492
370,488,491,488,493
372,487,493,488,492
386,488,497,490,496
415,489,498,489,493
473,487,491,489,494
537,487,495,489,492
612,488,487,488,491
635,486,477,489,492
628,489,487,490,492
585,487,490,490,493
485,489,490,489,494
410,488,489,488,494
376,487,488,490,493
370,489,491,486,494
379,488,493,489,494
391,489,492,489,492
442,488,494,487,493
501,488,495,487,492
567,488,491,489,494
629,487,489,488,493
633,489,488,488,491
620,486,490,489,495
546,488,493,490,493
445,489,491,491,492
395,489,493,488,492
372,488,485,488,493
371,486,488,488,492
382,489,488,487,491
409,489,489,487,492
463,489,490,489,493
524,487,489,488,494
606,489,492,488,494
635,488,491,490,493
631,488,492,490,494
596,489,493,491,493
500,489,492,490,493
414,488,490,491,492
382,488,490,490,494
369,488,491,486,493
376,488,491,487,493
387,488,492,489,494
433,487,496,489,493
492,487,495,490,492
557,489,494,489,492
625,488,490,487,491
635,490,483,487,491
624,491,485,490,494
560,490,487,489,493
455,488,490,490,493
399,489,490,489,494
369,488,487,490,494
373,488,489,490,491
381,490,490,491,493
406,487,491,486,493
456,488,488,489,492
517,488,491,487,491
595,489,491,488,491
632,489,489,488,492
632,489,491,489,494
607,488,489,488,492
515,490,490,490,493
425,489,491,490,492
388,488,492,490,492
372,488,489,488,493
375,489,491,487,492
385,487,490,491,492
424,490,491,490,492
484,488,492,488,493
546,488,493,488,491
620,489,498,491,494
636,487,500,489,493
625,489,496,495,492
574,488,486,488,494
469,489,487,488,492
406,489,482,489,493
373,490,488,488,493
372,488,488,488,492
377,488,488,489,493
397,487,487,488,493
448,488,487,488,492
507,488,489,488,491
581,486,488,490,493
632,489,490,488,491
633,490,493,489,491
618,490,493,490,492
530,490,492,490,492
432,488,489,490,493
390,489,488,492,492
372,489,488,491,494
373,488,489,490,494
385,487,490,490,493
416,489,493,489,491
474,488,491,489,493
536,488,491,487,491
613,489,493,489,491
635,489,492,489,493
626,489,494,491,493
585,488,492,491,494
483,488,487,489,492
408,488,492,489,493
376,487,488,492,492
371,485,488,489,491
380,489,491,489,493
390,491,490,489,492
441,491,490,489,492
501,490,490,489,492
568,489,489,488,493
628,489,488,489,493
633,490,489,490,491
620,487,492,490,492
544,490,493,491,492
442,490,492,491,492
395,490,493,491,492
372,489,492,490,493
372,488,490,489,492
381,489,489,492,492
408,489,490,489,492
463,489,491,490,492
524,488,490,489,493
606,489,490,489,491
634,488,487,490,492
627,488,491,488,490
593,490,493,489,491
497,490,491,490,492
415,490,491,489,492
381,489,491,491,493
368,488,490,490,491
379,490,491,490,492
386,488,490,491,493
432,489,490,490,492
493,488,489,489,491
556,489,491,490,491
625,488,490,490,493
634,491,490,488,492
621,490,491,488,492
558,491,490,491,493
456,490,491,491,492
399,489,491,489,492
372,490,489,490,492
373,489,491,490,491
380,489,490,492,490
405,489,488,489,491
455,489,491,489,490
515,488,489,491,491
595,490,489,488,492
631,489,490,490,493
627,488,490,491,492
604,489,489,490,490
513,491,491,490,493
424,490,490,489,494
387,489,488,494,491
370,489,491,488,491
376,489,494,489,492
386,487,493,490,491
424,488,493,490,492
484,489,492,489,492
546,489,492,488,492
616,489,490,490,492
635,490,489,489,492
623,490,493,491,490
569,489,488,492,491
466,490,487,490,491
404,490,491,489,491
370,491,490,489,492
372,489,488,490,492
377,489,491,489,492
400,489,490,489,492
449,489,491,490,491
508,488,492,491,492
582,487,491,491,492
631,489,490,489,491
631,490,491,493,490
613,488,492,489,490
525,491,493,489,492
430,491,491,490,492
389,490,490,489,491
372,489,488,490,492
373,490,491,489,491
385,489,489,491,491
417,489,490,489,491
473,489,489,490,492
536,488,487,490,490
613,491,492,489,492
635,490,491,489,492
625,489,489,489,492
580,489,491,490,493
480,490,492,490,492
408,488,493,491,491
373,490,492,492,491
372,490,493,490,490
379,490,492,489,491
394,491,493,489,491
440,488,490,490,492
501,490,491,489,492
570,490,492,490,493
628,490,491,490,491
632,489,491,491,491
619,488,490,494,492
539,490,490,491,491
438,490,491,489,491
392,490,491,489,490
372,490,491,488,490
371,490,491,489,491
380,489,491,493,490
407,489,487,490,490
464,488,492,487,492
526,486,490,489,492
603,487,489,490,491
633,488,491,488,492
627,490,492,490,491
592,491,491,490,491
494,490,492,491,491
414,490,492,489,491
380,491,493,488,490
369,491,491,489,491
377,489,491,489,491
386,489,493,490,490
433,488,490,489,491
493,488,490,490,491
558,487,489,490,492
623,488,489,490,492
635,490,492,491,491
620,489,489,492,490
557,492,494,489,491
453,491,491,490,490
397,491,492,492,491
369,488,487,490,492
370,490,492,489,490
378,488,491,490,493
403,489,492,490,493
457,490,491,489,492
517,490,490,488,491
598,488,491,488,492
631,489,492,490,490
630,490,491,488,491
604,491,492,489,491
509,490,492,490,491
419,489,491,490,491
384,490,490,489,490
370,489,492,491,492
374,487,491,490,492
385,488,491,490,492
425,488,491,490,491
483,489,490,490,490
549,489,490,488,492
620,489,491,489,491
634,490,491,488,491
623,490,492,488,491
570,489,493,493,492
464,489,491,491,491
402,487,493,489,493
368,487,487,491,492
371,489,489,491,491
379,489,491,488,491
397,490,492,492,489
449,490,492,490,490
510,489,493,490,490
584,489,491,490,490
631,490,492,489,492
628,490,490,491,488
615,490,488,492,492
522,490,494,489,492
427,489,492,490,492
389,489,492,490,493
369,490,493,490,490
372,489,491,491,490
385,490,493,489,492
415,488,491,490,491
476,489,491,490,491
538,490,491,488,490
612,491,493,491,490
635,488,491,491,492
626,491,492,490,493
578,489,489,493,492
478,490,492,490,492
408,490,492,491,491
372,490,491,492,490
372,490,490,491,491
377,491,492,489,491
394,491,491,489,492
441,490,491,490,491
502,489,489,490,492
572,488,494,490,493
629,488,491,489,491
631,490,493,491,491
619,489,493,493,491
539,491,493,491,491
437,491,491,490,492
392,491,493,491,489
367,489,492,491,490
371,491,492,490,492
381,489,491,489,492
408,490,492,490,491
467,490,493,491,492
528,489,491,489,490
607,488,490,492,491
634,489,493,491,491
628,490,493,491,490
590,489,492,490,491
492,489,493,491,490
411,489,489,492,490
378,491,495,487,490
369,490,492,488,492
375,489,491,490,491
386,487,494,490,490
435,488,491,489,492
495,490,492,489,491
560,487,491,493,491
625,490,493,491,491
635,491,492,490,493
619,489,490,489,491
555,492,495,492,492
449,490,494,490,491
396,490,492,490,492
368,490,492,491,492
371,491,494,490,490
379,489,492,493,490
405,492,493,492,490
458,490,492,492,492
518,490,493,489,491
599,490,493,489,493
632,489,492,491,492
627,490,493,492,491
597,491,492,491,491
505,491,493,492,491
418,489,490,492,492
384,490,494,490,490
369,490,493,491,491
377,489,491,490,492
384,490,495,490,490
427,490,493,490,491
485,489,493,490,491
549,489,492,491,492
618,490,492,490,491
635,491,493,491,492
622,488,492,492,493
567,489,493,492,492
462,490,493,490,491
401,490,494,491,490
370,490,491,490,493
371,491,493,490,491
377,490,489,492,491
399,491,493,488,491
452,489,492,491,492
509,489,493,489,490
587,491,492,492,492
632,489,493,493,491
631,490,493,493,492
614,490,497,491,491
523,490,495,491,491
427,490,495,491,492
389,489,494,490,491
368,490,493,491,492
372,489,493,492,493
384,490,491,491,490
419,493,493,492,492
476,490,494,490,493
542,490,493,490,491
614,490,490,493,490
635,491,495,489,492
626,490,493,492,491
578,492,493,492,492
476,489,494,491,491
406,490,494,491,492
371,489,492,490,492
369,489,493,490,490
379,490,492,492,490
394,491,492,489,491
444,489,493,489,491
503,490,493,493,489
573,490,493,490,492
629,490,494,490,492
632,490,493,490,492
615,491,495,492,489
534,490,494,491,493
437,490,494,492,492
392,488,494,493,493
370,490,492,489,491
373,490,495,491,493
381,489,495,490,491
412,492,493,491,491
467,490,493,490,492
528,490,493,491,491
608,489,491,491,492
635,490,492,490,492
628,489,491,491,493
587,489,492,495,491
490,489,496,491,491
411,491,495,491,488
378,491,493,491,492
368,491,493,489,492
375,490,492,490,491
386,490,492,490,492
434,489,492,490,491
496,490,494,489,492
561,488,492,489,491
625,490,494,490,490
634,491,494,491,490
621,491,495,492,490
553,491,491,493,492
447,491,496,489,492
396,490,494,492,493
367,491,490,491,492
370,489,494,491,492
380,489,494,492,490
405,491,492,491,491
459,489,493,490,491
518,490,492,491,489
601,491,494,490,491
632,490,492,490,493
626,489,495,491,490
595,490,493,491,490
504,490,495,492,492
416,490,493,491,492
383,489,493,492,493
370,490,494,492,490
376,490,492,491,491
383,491,495,491,491
426,489,493,491,491
488,490,493,490,491
550,490,492,489,492
618,489,492,491,492
635,490,493,492,492
623,490,493,490,490
566,491,495,492,492
461,491,494,490,491
402,490,494,491,491
370,489,492,490,493
371,491,492,488,492
380,489,494,490,491
400,490,492,491,491
452,489,493,490,491
510,489,493,489,491
588,491,493,492,491
633,490,492,491,492
631,491,494,490,490
613,491,495,490,491
520,491,494,491,491
426,490,493,491,491
389,489,494,489,492
368,490,495,489,491
375,489,492,492,492
385,489,494,495,492
420,491,494,491,493
477,490,493,489,492
543,491,496,490,492
613,489,493,490,491
635,491,493,490,492
624,491,493,489,492
576,491,492,493,492
476,490,495,490,491
406,491,494,491,490
373,489,493,492,492
372,490,494,492,491
379,490,494,491,489
393,489,493,491,490
446,491,493,491,491
503,489,489,491,491
574,490,494,488,491
629,489,493,490,493
630,488,493,491,493
617,491,495,490,491
535,490,495,492,491
436,490,493,493,492
393,490,495,491,490
372,490,495,489,490
372,491,494,492,492
383,489,493,488,491
410,489,494,490,491
468,490,493,490,492
530,489,492,490,492
606,489,493,491,491
634,490,493,491,491
629,492,495,491,494
583,491,496,491,492
489,492,496,490,492
412,492,493,491,491
376,491,495,492,491
371,489,493,491,492
377,491,491,492,492
389,488,494,491,494
438,490,493,491,492
497,491,494,490,490
564,490,494,490,493
625,487,494,489,491
633,489,495,491,492
620,491,494,490,492
549,492,493,491,491
447,491,494,491,492
397,491,494,491,493
369,489,493,490,491
371,491,495,491,491
382,490,494,492,490
409,490,494,490,490
460,490,493,491,492
519,491,494,489,491
601,489,494,491,492
632,489,492,490,493
627,489,492,491,494
595,490,493,493,491
502,491,495,492,492
416,490,494,491,492
381,491,495,491,490
370,491,494,491,491
377,491,492,490,490
385,492,493,491,492
429,489,495,491,492
489,489,494,491,491
553,490,491,491,493
621,488,493,492,492
635,490,495,491,490
624,490,492,491,493
562,491,496,490,492
457,490,495,491,491
400,490,492,493,492
370,492,494,489,492
371,489,494,490,490
380,490,495,491,494
400,488,493,490,490
454,489,492,490,492
513,490,494,490,491
591,490,495,490,491
633,490,494,491,491
629,492,492,490,491
610,490,495,491,493
515,491,495,491,492
426,490,493,492,492
388,489,492,492,493
369,490,493,492,492
374,490,493,492,490
384,490,494,488,490
422,491,495,491,491
480,490,493,490,492
543,491,492,488,492
616,489,494,491,493
634,489,494,490,490
626,489,494,493,493
576,490,496,493,493
472,491,494,492,492
407,491,494,491,492
374,490,495,491,492
370,489,492,492,491
377,491,494,490,492
395,492,494,491,492
445,490,494,492,491
506,490,493,492,493
576,490,493,489,491
631,489,495,492,491
632,490,496,491,491
618,491,496,491,491
533,491,495,492,492
432,490,494,492,491
391,490,493,493,492
370,489,492,492,493
370,488,495,489,494
383,489,494,491,494
413,491,494,490,490
470,489,493,492,490
532,490,492,490,490
610,491,495,490,491
634,491,494,490,492
627,490,492,492,492
585,490,493,492,492
486,490,495,491,492
409,490,495,491,492
375,489,494,493,494
371,490,495,493,492
376,491,492,492,491
393,492,498,492,494
437,490,495,491,491
498,491,495,491,491
564,491,493,490,492
626,490,493,491,493
632,492,494,491,491
621,490,494,493,491
548,492,494,493,492
444,491,494,493,490
395,491,495,493,491
371,490,495,490,493
370,489,495,490,492
381,489,494,493,494
407,491,491,491,491
461,490,493,490,492
521,489,491,490,493
604,491,495,489,492
633,489,494,490,491
628,491,495,492,491
596,491,496,493,491
501,490,495,492,492
418,490,494,491,493
381,492,494,490,491
370,490,495,492,492
375,490,493,492,492
385,490,493,491,493
429,488,493,492,492
491,489,490,492,491
553,490,495,491,491
623,489,494,491,493
635,492,496,490,492
624,492,496,490,492
563,492,494,491,493
458,491,495,492,492
399,490,492,492,491
372,491,493,492,493
372,489,495,493,492
380,489,495,492,493
404,489,491,491,493
454,489,495,490,492
513,490,492,493,490
592,491,494,489,491
631,492,494,491,493
628,491,493,491,491
611,492,496,492,493
514,489,495,492,492
424,489,494,492,491
388,490,495,492,491
371,489,495,492,491
376,490,495,490,490
385,489,493,492,491
421,491,493,492,492
481,491,493,490,492
544,490,492,491,493
614,487,493,493,493
635,489,493,490,493
625,491,494,493,491
573,491,494,494,491
471,490,495,491,492
406,491,495,489,492
372,492,493,490,492
372,491,495,490,492
376,490,495,491,492
399,490,493,492,493
447,491,493,491,491
506,492,494,492,491
579,491,492,490,492
632,491,495,490,493
630,489,492,492,492
616,492,493,489,492
529,491,496,491,492
432,491,492,493,492
391,490,494,490,491
373,489,494,491,492
374,491,494,490,492
385,489,494,492,491
416,490,495,491,491
472,490,493,491,493
534,489,493,488,491
611,492,493,492,491
636,491,492,491,492
626,490,494,490,494
582,490,495,492,493
485,491,495,491,492
410,490,495,492,492
375,491,493,492,491
372,490,495,490,491
379,492,494,490,490
392,492,494,492,492
440,490,493,491,491
499,489,494,491,491
566,488,493,491,493
627,489,493,492,492
632,490,495,492,491
621,489,494,494,493
544,489,493,492,491
444,489,495,490,493
394,491,494,491,491
371,492,493,490,492
371,491,493,492,491
379,491,495,491,491
407,491,493,492,492
464,491,494,492,493
525,490,496,491,491
604,490,496,491,491
634,491,497,492,494
628,489,496,489,491
593,489,496,493,492
498,491,495,492,492
415,491,492,491,493
380,489,493,492,493
371,492,492,489,492
378,490,492,490,492
386,490,493,493,491
434,489,491,492,491
492,491,494,490,490
556,492,493,489,492
623,489,495,491,492
632,491,493,492,490
623,491,496,492,494
559,490,494,492,492
455,492,493,495,492
399,490,493,491,493
369,490,495,489,491
373,489,494,491,493
381,491,493,490,491
404,493,495,492,491
455,492,494,492,492
516,491,495,492,494
593,490,493,491,491
634,491,492,493,492
632,490,494,492,492
608,490,497,493,491
514,492,495,493,492
422,491,493,492,492
385,489,493,492,492
370,490,493,490,493
375,491,493,491,492
384,490,493,490,492
422,489,492,493,492
484,490,492,492,492
547,490,494,490,491
620,488,495,492,491
636,490,494,490,491
626,491,494,492,491
573,488,494,493,492
469,490,495,491,492
404,491,494,492,493
370,491,491,491,493
370,491,494,493,492
380,489,492,492,491
398,489,496,490,492
448,490,494,490,492
509,490,494,490,491
583,491,494,490,491
631,492,493,490,492
632,492,495,492,494
615,491,496,492,491
529,490,495,493,493
431,489,494,493,493
392,490,494,493,493
371,491,495,492,490
372,490,491,494,490
385,492,496,492,495
415,490,494,490,492
474,490,493,491,492
535,490,492,490,492
609,490,495,491,490
636,488,494,492,493
627,491,492,490,493
584,490,494,494,492
484,490,494,492,492
410,491,495,491,493
374,490,493,491,491
371,492,494,492,491
379,490,493,491,493
391,489,492,491,493
440,490,492,491,492
502,491,494,491,492
570,489,491,493,492
628,491,492,489,491
633,491,494,490,492
621,492,495,490,491
543,492,495,492,491
442,491,495,493,492
394,490,493,491,493
372,491,495,490,493
372,489,494,492,492
382,490,495,495,492
410,490,494,492,492
462,491,494,490,492
526,490,493,490,492
603,492,494,490,492
633,490,493,492,492
627,489,493,492,493
590,491,497,491,491
496,489,492,493,492
416,491,494,492,491
380,490,495,494,492
371,490,494,491,491
378,492,494,492,491
386,489,493,491,492
432,489,490,491,492
492,490,495,489,493
556,489,493,491,492
623,489,494,492,493
634,490,494,492,493
620,490,493,493,492
560,491,494,491,493
452,491,494,492,492
399,491,495,491,492
371,492,493,490,492
371,491,495,492,491
378,489,493,491,491
406,492,494,492,492
456,490,493,491,492
516,489,493,493,492
596,490,494,490,492
631,489,495,489,493
630,490,495,492,493
604,492,494,492,493
510,491,494,494,492
422,489,493,492,493
387,492,496,490,494
370,490,493,490,492
375,491,495,491,491
386,491,496,492,492
426,491,495,492,492
484,491,493,491,491
547,489,494,491,492
617,491,492,491,491
636,491,494,492,493
623,489,493,493,495
571,490,492,493,493
467,491,494,491,491
403,491,495,492,490
372,490,491,491,494
372,491,492,492,492
378,491,494,490,491
398,491,492,489,493
450,489,494,491,492
508,489,492,491,491
584,491,492,492,492
632,490,495,492,491
632,491,495,492,490
616,491,493,491,494
524,491,496,492,492
430,490,494,492,492
389,492,493,490,492
368,490,493,493,493
373,489,490,494,493
384,490,494,490,492
417,492,495,492,493
475,490,492,490,492
539,491,496,490,491
614,491,495,491,492
635,492,494,490,492
627,491,495,493,493
579,491,493,492,492
482,491,494,491,493
407,490,494,493,491
373,489,492,495,492
370,490,493,490,493
377,490,495,490,491
392,488,492,490,492
443,490,494,490,492
501,490,492,492,492
569,490,492,489,492
630,491,496,491,493
631,489,495,491,492
620,489,493,493,493
540,490,495,492,492
441,490,494,492,492
395,490,495,492,491
369,488,494,492,492
373,491,494,492,492
383,489,493,489,492
407,489,493,490,492
465,490,493,491,493
527,489,493,490,491
606,489,493,492,492
634,491,492,492,491
630,493,493,493,490
591,492,496,491,492
495,491,496,491,493
413,490,492,492,493
379,492,496,493,492
372,490,493,493,492
377,490,490,495,493
388,490,495,493,493
435,491,495,491,493
494,490,493,493,493
558,488,493,491,492
628,491,495,489,493
633,491,493,490,493
621,491,494,491,493
556,491,494,493,492
453,490,495,491,492
400,489,495,490,494
369,488,493,491,493
373,489,494,493,492
382,491,494,494,492
404,491,492,493,490
459,490,495,490,493
518,491,492,490,492
598,493,494,489,493
633,492,493,492,493
628,492,494,490,491
601,490,493,492,492
510,491,494,491,493
423,490,493,492,491
386,491,495,492,492
372,491,496,492,493
376,489,494,489,492
386,489,494,494,493
427,491,493,491,492
487,491,493,491,493
548,489,491,491,493
618,489,494,492,492
635,491,493,491,492
626,491,492,491,493
570,491,495,492,492
466,491,494,492,491
404,491,494,491,492
371,489,493,492,493
370,491,490,494,491
381,491,494,491,494
399,489,493,491,492
450,490,493,491,491
510,489,494,490,493
584,490,493,493,491
634,490,493,492,493
633,492,492,490,493
615,494,493,490,492
524,492,494,493,492
431,490,493,491,494
390,490,495,490,491
373,492,494,492,493
377,490,494,492,492
386,490,495,492,491
418,489,494,492,492
476,489,493,491,493
539,490,493,490,491
613,491,494,492,492
634,491,492,491,493
624,489,491,493,495
578,489,495,490,493
480,492,495,491,493
408,491,493,491,493
376,490,495,491,492
373,492,493,490,491
379,492,494,490,493
395,490,495,492,492
442,491,494,491,492
503,490,493,491,493
572,489,492,491,494
631,490,494,492,492
633,490,493,491,494
617,490,495,493,492
536,490,492,491,492
439,490,494,492,492
394,491,494,489,491
371,492,494,489,493
372,489,493,491,491
384,491,493,492,494
409,491,494,491,492
467,489,493,492,493
530,489,494,491,492
608,489,494,492,491
633,489,493,493,492
628,491,494,492,494
588,489,494,491,493
492,491,494,491,492
413,491,492,492,492
378,491,496,491,491
371,490,494,492,492
376,491,493,491,492
391,491,496,492,492
437,491,494,492,493
496,491,494,491,493
560,489,493,489,492
626,491,495,490,492
634,490,493,493,494
621,489,492,493,495
554,490,493,494,493
450,491,493,491,493
398,491,494,489,492
372,489,495,491,493
371,489,495,491,491
382,491,494,490,491
406,492,493,491,491
459,491,493,492,493
519,490,491,491,493
600,491,495,490,493
634,489,494,492,493
630,490,494,494,491
602,490,495,492,493
505,491,494,491,494
422,490,494,491,493
383,492,494,491,492
370,490,493,491,493
376,490,493,491,494
385,490,495,491,491
427,489,493,491,492
489,490,493,492,493
551,490,492,493,492
622,490,493,490,492
635,492,496,490,491
624,492,494,493,494
568,492,494,491,493
462,491,494,492,492
402,490,493,492,494
369,490,491,492,493
372,490,494,492,492
379,490,492,493,494
404,491,494,490,493
451,490,495,492,493
513,491,494,490,492
588,491,492,491,491
631,489,495,492,491
630,489,492,491,492
614,491,495,492,494
522,490,495,491,493
428,490,493,491,492
391,491,495,490,492
368,490,495,491,492
377,489,493,492,493
385,490,494,490,492
419,490,493,492,492
479,489,493,490,493
540,489,492,490,491
616,490,493,492,493
637,490,492,490,493
625,491,494,495,492
581,491,493,492,492
478,491,494,491,492
408,490,495,492,493
374,492,494,490,492
373,492,495,492,493
377,490,493,492,494
395,490,494,492,493
444,491,493,491,492
504,490,493,492,492
576,489,492,490,494
631,491,494,491,492
632,491,493,490,494
618,492,493,490,493
537,491,495,492,493
437,490,493,491,492
394,492,493,492,492
369,489,493,494,492
374,491,494,493,493
384,491,495,493,491
413,489,491,492,493
469,490,494,489,494
530,489,493,488,493
607,488,492,492,494
634,488,490,493,493
628,489,493,489,492
589,493,492,495,494
492,491,494,492,492
412,490,496,490,492
379,491,496,490,492
372,492,493,490,492
377,490,494,491,492
389,492,492,493,492
438,491,493,490,492
497,490,494,491,493
561,489,493,492,494
626,490,493,490,493
632,491,495,493,492
621,490,493,491,492
553,492,495,492,492
448,491,494,492,492
397,491,493,490,493
370,492,493,492,491
374,491,493,492,494
381,492,495,491,492
406,490,494,493,493
460,490,493,492,493
521,490,494,492,491
599,490,492,491,492
635,491,494,492,493
631,490,492,491,493
598,492,493,491,493
504,491,494,492,492
419,491,494,491,491
385,489,494,493,494
371,491,491,490,491
379,490,495,490,492
388,490,496,490,492
430,490,493,491,493
489,490,493,491,492
551,491,493,492,493
623,491,492,491,493
633,490,493,493,493
623,489,492,493,494
567,490,494,493,491
461,492,494,492,491
402,490,494,492,495
369,490,495,489,492
372,492,493,491,493
379,490,490,492,493
401,492,497,491,493
455,491,494,492,493
515,491,493,490,494
590,489,493,492,492
634,490,494,492,492
632,491,494,491,494
610,490,492,492,490
521,492,494,492,493
427,492,493,491,492
388,492,493,491,493
369,490,491,492,494
375,491,492,491,492
385,490,494,492,491
421,491,494,491,493
481,490,494,490,492
543,490,495,491,491
617,490,494,491,492
635,491,494,492,492
626,491,492,492,494
579,490,494,492,493
474,491,495,491,492
405,491,494,492,494
373,489,492,492,492
371,491,492,492,491
380,491,492,492,493
395,491,494,491,491
446,491,493,491,493
506,490,493,490,493
575,490,494,493,490
629,491,491,493,492
633,491,494,494,495
620,490,494,493,494
535,491,496,493,494
436,491,494,491,494
393,490,494,492,491
373,490,493,493,494
374,491,491,492,493
383,492,493,490,492
412,490,494,491,492
470,490,493,491,492
533,491,493,491,494
609,489,494,490,493
635,491,495,491,491
629,491,495,492,492
588,491,495,493,493
490,490,493,490,494
412,491,493,491,493
378,489,493,491,492
369,490,491,492,493
376,490,493,493,493
389,489,493,490,492
438,491,493,492,492
499,490,493,491,492
567,490,495,491,491
629,491,494,490,492
632,491,493,490,492
623,489,494,492,494
547,490,494,492,493
447,489,494,491,494
397,491,493,492,494
370,491,494,492,492
374,491,494,492,492
382,491,493,491,495
409,491,495,492,494
461,490,492,491,492
523,491,493,490,492
601,491,493,490,493
632,490,492,492,491
631,493,493,493,495
596,492,495,490,493
503,491,494,492,493
417,490,494,492,492
384,490,496,493,492
369,489,492,492,492
379,491,493,492,492
387,489,493,490,493
429,491,492,492,491
490,490,493,491,493
551,489,494,490,492
624,488,494,491,493
633,489,490,493,491
625,491,495,493,491
567,492,495,492,492
460,491,495,492,492
401,490,494,494,493
371,489,492,491,493
370,491,493,492,491
380,489,494,491,495
402,489,493,491,493
454,490,493,491,492
514,491,492,491,491
592,491,493,492,493
633,489,494,490,493
631,492,493,491,493
610,492,493,491,493
518,491,494,492,493
427,490,492,494,493
389,492,495,491,494
371,489,494,491,493
378,490,494,492,491
387,491,495,494,494
421,490,492,492,493
482,491,493,491,492
543,491,493,489,493
616,491,492,491,494
635,490,493,492,494
625,489,494,492,495
578,492,494,491,493
473,490,494,491,492
406,490,493,492,492
376,491,495,490,492
373,492,493,490,492
379,492,493,492,493
399,492,492,490,493
447,490,494,491,492
506,490,493,492,493
578,490,492,492,493
632,491,494,493,494
630,490,493,491,492
619,492,493,493,494
530,492,495,493,492
435,491,492,491,493
392,491,493,490,493
370,490,494,491,492
373,489,491,492,492
384,492,493,495,494
415,490,495,492,494
472,490,493,492,493
535,491,494,491,491
611,491,492,493,494
635,491,493,489,494
628,490,495,492,494
583,491,493,491,494
487,491,494,491,493
411,491,493,492,492
379,492,494,493,493
372,490,493,490,492
376,490,495,491,492
394,491,495,491,492
440,491,492,493,491
498,490,492,492,493
566,490,489,491,492
629,491,496,490,494
632,489,493,492,495
621,488,493,492,494
547,490,494,492,491
445,491,494,492,493
397,491,493,490,494
371,491,495,490,493
373,491,493,490,493
381,491,492,490,492
406,491,493,491,492
463,490,493,491,494
524,489,493,489,491
604,489,493,493,493
636,490,494,492,492
631,492,496,491,492
597,491,493,493,494
502,492,494,491,493
416,490,494,491,493
381,491,493,491,493
370,490,492,491,494
376,490,493,490,492
388,493,490,496,491
432,492,494,490,491
491,490,494,492,493
556,490,494,490,493
626,491,494,489,493
634,490,494,493,493
621,491,492,495,492
565,492,493,491,493
455,491,494,491,494
401,489,493,492,494
370,490,493,493,492
373,490,491,492,493
383,490,495,489,495
402,489,493,490,492
456,490,493,492,493
516,491,493,490,493
591,491,492,493,491
635,491,493,492,494
631,492,492,491,492
607,490,494,493,493
517,491,493,494,493
426,490,493,491,491
387,490,495,491,492
373,492,492,494,493
377,490,493,490,493
384,491,492,492,495
422,490,493,491,494
484,490,494,491,492
546,489,493,492,494
618,492,492,490,492
637,491,492,492,491
626,492,494,491,492
578,492,495,490,493
473,491,494,492,493
405,490,493,492,493
372,490,495,492,491
369,489,493,492,494
379,489,490,492,495
399,489,495,490,493
447,491,493,491,492
508,490,494,492,492
579,489,494,490,491
630,491,493,491,493
631,490,492,491,494
617,491,495,493,491
533,490,493,493,493
436,491,495,490,494
392,489,493,492,493
371,491,493,494,491
376,492,493,492,493
383,490,493,489,491
416,492,493,491,493
473,491,493,490,492
534,490,492,491,493
609,490,492,491,495
636,489,493,491,495
628,492,492,491,494
585,490,496,492,494
486,492,493,494,492
411,491,495,491,492
378,492,495,490,493
372,490,494,492,492
379,489,493,492,495
396,491,496,490,494
440,490,494,491,493
499,489,493,492,493
568,488,493,493,493
628,490,491,492,492
634,492,494,491,494
621,494,495,490,492
544,492,495,491,492
444,491,494,491,493
396,492,494,491,492
368,490,490,494,492
374,492,490,495,492
384,491,496,490,493
409,490,495,489,493
464,490,492,491,492
525,491,493,491,493
602,492,490,491,493
637,490,494,491,494
627,490,493,492,494
592,489,494,493,494
500,491,494,492,493
417,492,494,492,492
382,490,493,491,492
369,492,494,492,490
377,491,492,494,493
387,493,494,491,494
432,490,495,490,493
492,490,493,490,492
557,490,494,491,494
623,490,493,491,493
634,491,494,493,492
623,491,494,492,493
559,492,495,492,492
455,490,494,491,494
401,492,493,490,492
371,493,494,490,492
370,491,492,491,494
380,489,492,490,492
406,491,495,491,493
455,489,491,493,493
517,490,494,491,492
595,489,495,493,492
635,490,494,491,492
630,489,491,492,493
607,493,494,490,493
514,491,494,492,493
424,492,493,492,493
385,490,492,492,494
369,489,494,489,493
377,492,495,492,492
387,491,492,491,493
427,491,494,490,492
484,491,493,491,492
546,491,493,490,492
618,489,493,492,493
635,490,493,492,492
626,491,493,492,495
573,489,494,492,494
469,490,495,492,493
405,490,494,493,492
374,492,493,490,494
373,493,494,491,494
380,490,493,491,493
400,493,492,492,493
448,492,494,491,493
509,491,491,490,492
583,490,492,490,493
631,491,490,493,493
634,490,495,490,492
617,491,495,492,492
529,491,495,492,493
432,491,493,491,491
391,493,494,493,494
370,490,492,491,494
374,490,492,492,492
383,490,491,492,494
415,489,492,490,494
475,490,493,491,492
536,490,493,490,492
614,490,494,490,492
637,491,494,490,492
627,492,493,490,492
584,492,493,493,493
484,491,494,491,492
409,490,494,492,492
375,489,492,491,494
372,490,494,492,493
378,491,494,493,493
393,492,493,492,491
443,492,494,491,493
501,489,493,490,492
571,491,493,489,492
630,491,493,491,494
632,490,495,491,492
623,490,492,492,494
544,492,495,492,494
443,490,493,491,493
397,490,494,493,493
372,490,493,492,494
372,489,493,491,492
384,491,492,494,493
409,491,492,490,492
467,491,493,491,492
526,491,492,490,493
603,490,493,492,494
637,491,492,489,493
630,491,494,491,492
592,492,495,493,493
499,491,494,491,493
416,491,494,491,492
381,492,493,492,494
371,492,493,491,493
378,490,493,496,494
387,489,489,490,495
433,490,495,488,492
494,490,494,491,492
558,491,491,493,493
627,490,493,490,494
633,491,494,492,492
624,492,495,491,492
560,492,493,492,493
454,491,494,492,494
400,490,493,492,492
372,492,495,494,494
372,490,493,495,493
382,491,496,493,493
405,491,496,492,492
456,491,494,492,494
516,491,494,490,492
594,489,493,493,493
634,490,492,491,494
629,491,492,492,494
604,491,492,492,492
514,492,494,492,493
422,491,493,493,492
386,490,494,494,494
373,490,494,493,491
378,492,495,493,490
387,490,492,494,495
427,491,493,489,494
485,490,494,490,493
547,490,492,490,495
618,491,492,492,494
636,490,494,491,493
625,491,494,493,494
575,492,493,491,493
467,490,494,492,493
405,488,494,492,492
374,492,495,490,492
372,492,493,490,492
381,491,494,491,494
398,492,494,493,492
450,490,488,495,492
510,489,495,489,494
584,489,493,490,494
633,491,493,492,494
635,492,495,491,494
613,490,493,491,492
527,491,494,492,493
432,492,492,491,492
391,492,493,492,492
372,490,493,491,494
375,491,493,491,491
384,489,492,494,493
418,489,493,493,492
475,490,493,492,492
537,490,492,490,491
615,491,495,491,494
636,490,493,489,493
626,491,490,493,493
581,491,494,491,493
483,491,494,491,493
409,491,494,492,492
376,489,491,493,492
371,491,491,493,492
380,490,495,491,491
397,491,495,490,492
442,491,493,491,492
502,490,492,490,493
570,490,494,492,492
628,490,492,495,492
632,489,489,497,492
621,490,495,490,495
540,492,494,490,492
441,490,493,491,493
394,490,493,491,492
372,491,493,492,492
374,491,493,490,493
382,492,496,492,492
411,490,493,490,494
468,490,493,491,493
527,490,491,491,493
605,489,493,491,493
637,490,493,492,491
630,491,495,491,494
589,490,496,491,492
497,491,493,492,492
414,491,494,491,493
379,491,493,490,493
370,490,491,491,494
379,491,495,490,493
388,489,492,491,492
435,491,493,492,492
495,490,494,491,492
560,490,494,491,491
627,491,493,492,493
633,492,493,491,493
624,490,494,493,493
554,490,493,492,493
452,491,493,491,493
399,490,493,492,492
371,492,494,494,492
373,489,490,493,494
381,492,496,491,492
406,493,495,491,492
459,492,494,491,493
519,492,493,490,493
597,489,495,493,494
633,490,493,491,492
631,493,494,493,493
602,491,493,495,493
511,490,493,492,493
422,490,493,491,493
385,491,495,492,492
371,490,492,494,492
376,492,492,492,492
386,491,493,489,493
426,490,493,490,492
486,491,494,491,493
549,490,492,491,492
622,490,493,492,491
636,491,495,492,492
626,492,494,493,492
574,491,493,492,493
466,491,495,491,494
404,490,494,490,493
370,491,493,491,493
370,490,493,492,494
380,489,493,492,494
400,489,493,489,493
450,490,492,491,493
512,491,489,493,490
586,491,495,490,491
632,492,495,489,494
631,491,493,490,492
616,492,496,492,494
525,491,494,493,493
431,490,493,491,493
389,490,494,493,493
371,490,493,492,492
377,490,492,491,494
385,492,495,494,494
418,489,490,494,493
477,491,496,488,492
538,490,493,489,493
613,491,491,491,492
637,491,494,492,493
626,491,493,490,492
582,490,494,493,492
480,491,494,493,492
409,490,494,492,492
377,492,494,491,493
371,490,493,491,492
378,490,494,491,491
397,490,492,490,493
442,490,493,491,493
503,490,491,492,494
572,492,491,491,492
631,490,493,491,494
632,490,491,490,491
621,492,494,491,491
539,492,496,492,492
441,490,495,493,492
395,491,493,491,493
367,490,494,491,491
373,490,492,492,493
382,491,495,494,493
410,490,495,493,493
467,491,493,491,492
528,491,494,492,494
605,489,493,490,492
636,491,492,490,493
626,490,493,492,494
589,490,492,492,494
495,491,495,492,492
413,490,493,493,492
380,492,493,493,494
372,490,495,491,491
379,491,495,492,492
391,491,491,495,493
434,490,495,489,492
494,489,493,492,492
560,489,490,489,494
624,489,494,490,493
634,489,494,493,493
623,492,494,490,492
556,492,495,491,493
450,491,494,491,493
400,492,493,491,492
371,493,493,491,493
371,491,491,494,492
383,491,491,491,492
406,491,495,489,494
459,490,493,490,493
519,490,493,492,492
598,490,494,493,492
635,491,494,492,494
629,490,493,490,492
604,490,494,494,493
509,491,494,491,494
419,491,494,491,493
384,490,492,491,494
373,492,491,491,493
377,490,493,494,493
385,491,497,491,492
430,491,495,491,492
486,490,494,491,492
