Sensor0,Sensor1,Sensor2,Sensor3,Sensor4

558,491,495,492,493
454,491,494,492,493
403,490,494,493,493
619,491,492,491,494
638,492,494,491,494
627,489,493,493,1
493,480,491,493,490
492,544,490,493,493
493,619,491,492,491
494,638,492,494,491
494,627,489,493,493
496,578,490,494,3
3,0,492,544,490
493,493,493,619,491
492,491,494,638,492
494,491,494,627,489
493,493,496,578,490
494,493,493,473,491
493,492,492,405,491
492,492,492,373,491
493,491,495,369,493
494,491,493,377,491
493,491,493,396,491
492,490,493,446,490
494,491,493,506,490
490,491,492,582,492
491,494,494,634,490
494,492,492,635,491
495,491,490,622,491
495,493,491,534,492
494,492,494,433,491
494,491,493,391,491
494,494,492,367,491
492,492,494,372,489
493,492,494,382,490
493,492,492,413,491
493,493,493,471,491
492,491,492,534,491
494,491,491,614,492
494,491,492,637,492
493,491,493,628,491
494,493,492,584,491
492,492,493,486,491
494,492,493,408,491
493,492,493,375,490
493,494,493,371,492
495,492,494,375,490
494,492,492,392,490
492,492,494,439,492
494,491,492,499,491
492,491,493,567,490
488,493,492,630,490
493,490,491,635,491
495,492,493,625,489
494,490,492,547,490
494,492,493,443,491
493,493,492,396,492
493,493,491,371,491
494,493,494,371,493
494,491,493,383,491
495,491,494,405,491
493,491,494,463,491
493,491,493,525,490
492,489,492,605,492
493,493,492,639,491
492,491,494,632,492
494,490,491,598,492
495,492,492,501,492
494,491,492,414,491
494,492,493,379,490
493,493,492,371,492
493,492,494,374,490
493,493,493,388,490
493,494,493,432,491
493,492,493,491,491
492,491,493,559,491
493,490,495,625,491
493,490,492,635,491
492,492,492,623,490
491,491,494,562,491
494,491,493,456,491
495,491,494,400,492
494,489,493,369,491
494,492,493,372,493
496,493,493,381,492
494,493,492,401,490
491,493,493,456,492
495,492,494,518,491
493,491,493,595,491
492,491,493,635,489
493,493,494,634,489
493,489,492,609,490
494,493,493,513,491
493,491,493,423,491
494,491,491,386,492
495,492,492,372,491
493,490,493,374,492
492,493,492,385,491
491,492,493,422,491
492,491,492,483,491
493,490,493,548,489
493,491,494,619,489
494,493,492,635,490
491,493,491,628,492
494,492,495,573,491
495,491,492,467,492
494,492,491,403,491
493,491,493,368,491
495,492,492,372,491
494,493,494,378,492
493,490,494,399,490
495,492,492,449,491
494,492,493,510,491
494,491,494,584,489
492,490,492,633,491
494,493,493,635,491
491,492,494,616,491
492,492,494,526,491
493,493,493,431,491
492,492,493,390,492
494,490,494,370,492
495,493,495,373,491
495,491,492,384,492
495,490,491,416,492
494,490,493,475,491
493,491,493,539,491
492,491,494,617,491
495,492,494,638,490
492,494,493,629,491
493,495,494,584,491
496,493,493,481,492
495,491,492,409,491
494,492,494,372,493
495,490,493,369,493
494,491,494,375,492
492,491,494,390,492
495,491,493,441,491
493,492,492,502,491
493,493,492,574,490
493,493,492,633,492
494,492,492,635,492
494,491,492,623,492
493,493,495,542,493
494,492,493,438,491
493,493,493,393,492
493,490,494,367,492
494,493,495,372,491
493,494,493,383,492
493,493,494,410,491
493,491,493,466,490
493,492,492,530,492
492,492,491,609,492
494,491,493,638,490
492,492,493,629,492
492,491,492,594,492
497,493,494,494,491
494,491,493,412,491
493,492,493,379,491
494,491,493,369,491
494,491,491,378,490
493,492,494,391,492
494,490,492,434,492
493,491,492,495,492
494,491,493,560,491
491,491,492,630,492
493,492,493,636,490
494,491,493,624,491
493,494,493,558,491
495,492,492,450,491
495,493,492,398,490
492,492,494,370,494
495,491,494,371,491
495,491,494,378,491
492,491,494,402,491
492,492,493,457,491
494,492,492,522,491
493,492,493,601,492
493,490,494,639,491
493,492,492,634,492
494,490,492,605,494
493,491,492,509,491
493,492,493,418,492
492,493,492,383,491
493,491,494,368,491
494,494,494,375,491
494,493,493,385,491
494,493,493,426,491
493,491,493,486,491
494,491,493,551,489
493,490,492,624,492
493,490,493,637,491
492,490,493,625,491
492,493,492,573,492
493,491,493,463,491
494,491,492,401,491
493,492,494,370,491
494,492,493,372,492
496,491,491,377,490
493,493,491,402,493
494,493,493,450,490
493,492,493,512,491
492,492,493,588,491
492,491,494,634,490
493,491,492,634,490
492,494,492,615,493
494,491,492,523,492
495,494,493,428,492
495,492,493,389,494
496,492,492,371,494
495,494,494,375,492
494,492,494,383,493
496,493,492,418,490
493,492,494,479,491
492,491,493,543,490
493,492,492,617,492
493,491,492,639,492
494,492,494,627,490
494,492,492,583,493
494,492,493,478,492
494,491,492,408,492
494,492,492,373,492
493,492,495,372,493
494,490,494,377,490
495,493,494,395,490
493,492,492,444,491
493,491,492,503,491
490,493,492,579,491
491,491,493,632,492
494,491,492,633,492
493,491,494,621,492
492,490,494,536,491
493,491,493,437,491
494,493,494,392,490
491,491,492,370,493
495,493,492,374,491
495,493,492,383,491
494,491,491,413,492
494,491,493,467,490
494,491,493,533,492
494,492,493,610,491
492,492,494,638,490
493,492,494,630,491
494,493,492,589,493
494,494,494,490,491
494,493,493,411,491
494,494,492,378,492
496,493,493,370,493
494,491,493,377,491
495,492,494,388,492
492,490,493,437,491
494,490,493,497,491
492,493,494,564,489
490,493,494,628,490
493,493,493,636,491
492,492,493,622,490
495,494,492,549,491
494,491,492,446,491
494,493,492,397,491
494,492,492,372,493
493,492,494,372,491
494,491,493,379,491
495,492,492,408,489
492,491,493,460,490
493,491,493,523,490
493,492,493,604,492
492,490,493,639,491
494,492,494,631,490
493,490,491,600,493
494,491,493,503,491
494,492,492,416,491
493,492,491,383,491
492,491,494,367,493
495,491,493,375,491
495,493,492,386,490
494,494,492,429,491
493,492,493,488,491
493,492,493,554,489
492,490,492,625,492
494,492,493,638,491
492,492,493,623,490
492,491,494,564,490
493,492,493,459,491
494,491,491,399,490
493,494,492,369,493
493,493,492,372,492
495,492,492,379,492
494,492,491,404,492
493,493,493,453,490
493,491,492,514,489
493,491,492,592,490
491,491,493,634,490
490,493,493,633,490
494,494,493,611,492
494,490,492,517,491
495,491,493,424,491
494,491,492,387,493
494,491,491,371,492
493,491,493,373,491
492,491,494,383,492
495,492,491,419,490
493,492,492,481,491
493,492,492,547,491
494,493,492,620,490
495,492,493,639,491
494,493,494,627,490
493,490,491,577,490
493,493,493,471,492
494,490,492,404,491
493,490,494,369,490
492,493,495,372,492
494,491,494,378,491
494,492,493,396,491
495,493,492,448,491
494,491,493,508,491
492,492,492,583,491
491,492,494,634,491
491,493,492,635,491
492,493,494,617,491
494,491,495,530,492
495,491,493,432,491
494,492,494,391,490
493,490,493,369,493
495,494,493,374,491
492,494,495,384,492
495,492,492,415,493
494,491,492,472,491
493,491,492,536,490
493,492,492,612,491
492,491,492,639,491
492,493,494,630,490
494,492,494,584,490
494,493,493,484,491
493,492,492,409,491
494,492,491,372,491
493,492,494,371,493
494,492,493,377,493
494,491,493,390,493
493,492,493,441,491
494,491,493,501,491
494,491,492,572,490
492,492,495,631,491
493,492,493,636,491
494,493,492,624,490
494,494,492,544,491
492,492,492,441,491
495,491,493,393,490
494,489,492,370,493
494,493,493,371,492
491,494,493,379,491
495,493,492,410,491
493,490,493,465,490
493,491,493,527,490
492,492,493,606,490
492,492,492,638,491
493,492,494,629,490
492,491,491,598,493
493,493,493,497,492
494,493,493,415,492
492,491,493,378,492
494,491,494,367,492
495,491,493,376,490
494,492,494,387,493
493,493,494,433,491
494,492,493,494,491
493,491,492,560,492
494,491,492,627,492
493,494,493,637,491
491,491,494,626,491
494,494,494,558,490
492,492,493,453,491
493,491,492,397,490
493,492,492,371,492
494,494,495,372,492
493,491,493,378,491
493,494,491,406,491
494,491,492,457,490
493,491,492,517,489
493,492,494,598,492
492,490,492,636,491
494,491,493,631,489
492,492,495,606,490
492,492,494,512,491
494,491,492,421,491
493,493,493,386,492
493,491,493,370,492
495,492,492,375,492
493,491,492,386,493
493,490,492,423,491
493,491,493,484,490
492,491,493,549,490
494,491,492,622,490
493,492,493,639,490
494,492,492,628,491
494,493,492,574,491
492,492,494,467,491
493,492,493,402,492
493,492,492,369,493
493,493,494,370,493
493,491,494,377,492
492,494,492,401,491
491,493,494,449,491
494,490,492,510,490
493,492,493,587,489
492,492,493,636,490
493,492,491,632,490
493,493,491,619,492
493,493,494,524,491
494,492,492,428,491
493,491,492,388,491
492,493,493,369,492
492,492,493,372,491
495,491,493,384,490
492,492,492,417,491
492,492,493,475,490
492,492,493,541,491
494,490,491,617,491
494,492,493,637,490
492,491,493,628,491
494,492,492,579,491
493,491,493,478,491
493,491,493,408,491
493,491,493,373,492
493,492,492,370,491
494,492,493,376,491
492,493,491,394,492
492,492,492,442,491
495,491,492,502,492
494,491,492,575,490
492,491,494,634,492
493,490,494,634,490
493,493,492,622,489
493,494,494,540,491
494,492,493,438,491
494,491,492,391,490
494,491,492,371,491
493,493,494,371,492
493,492,493,380,490
492,490,493,409,491
492,491,493,468,490
493,491,493,530,490
492,489,492,610,492
493,492,492,638,491
494,492,492,632,491
493,491,492,593,492
492,492,494,491,492
494,491,492,412,490
493,492,493,375,492
493,491,493,367,489
492,492,494,376,489
492,492,492,389,492
493,493,492,435,490
492,491,492,497,491
493,491,491,563,491
493,491,491,629,491
492,491,493,635,491
492,491,493,624,491
495,493,494,552,491
493,492,492,449,491
493,493,493,395,490
493,494,493,368,489
494,493,493,373,492
494,493,494,378,492
495,492,492,404,490
492,493,492,459,491
493,492,492,520,490
492,490,493,600,490
491,490,492,638,491
493,492,493,631,489
492,490,493,603,490
494,493,492,506,491
494,492,492,417,490
494,493,492,384,491
493,492,494,369,493
495,492,493,375,490
494,491,493,384,492
492,489,494,426,491
492,490,494,488,490
491,490,493,554,489
493,490,491,623,489
494,494,492,637,490
492,492,491,627,492
495,492,491,570,492
494,493,492,463,491
493,492,493,401,491
492,493,492,366,491
494,492,491,372,490
493,492,493,377,490
493,492,494,400,488
492,492,493,452,491
491,491,493,513,491
493,491,494,590,490
492,490,492,635,492
493,491,493,632,490
493,491,494,613,491
492,493,491,523,491
493,491,492,426,491
494,492,492,388,490
492,494,493,370,492
496,492,492,375,491
495,492,492,385,491
495,490,494,419,490
493,491,492,478,490
492,492,493,546,491
491,490,492,616,491
490,493,492,636,489
492,492,493,628,491
493,488,492,579,490
492,494,492,474,491
493,490,492,407,491
494,491,491,373,491
495,491,491,370,491
493,492,493,378,490
492,490,492,392,489
494,492,491,444,490
492,490,492,506,490
492,491,492,577,488
492,492,494,632,491
491,491,491,635,491
494,493,493,618,489
494,491,491,534,492
494,491,492,435,490
493,490,492,389,490
492,491,493,368,491
494,492,491,370,490
492,493,492,382,491
493,492,493,413,490
494,492,492,469,490
493,491,492,533,490
493,491,493,610,490
493,489,491,636,490
493,491,492,628,490
491,492,493,586,491
492,493,493,486,491
493,493,492,412,491
492,492,492,376,490
493,490,492,367,491
495,492,492,379,492
494,491,491,391,492
495,491,491,437,491
492,492,492,499,491
492,490,492,567,490
493,492,493,628,489
492,492,493,635,489
493,491,492,622,489
493,494,492,548,490
493,493,492,443,491
491,492,491,394,490
494,491,493,369,493
493,489,492,369,491
492,490,493,377,490
492,490,494,408,491
492,491,493,461,491
492,491,491,523,490
493,492,491,606,491
493,492,491,637,491
493,491,491,630,492
492,494,494,597,493
493,489,492,499,490
494,491,492,414,491
492,491,493,380,490
491,491,494,368,490
494,494,493,375,491
492,493,491,388,490
492,490,493,428,490
492,491,493,492,490
491,490,492,558,491
492,488,491,624,491
491,491,492,638,491
494,491,493,623,490
491,491,491,563,492
492,493,493,456,491
492,492,492,399,491
494,492,491,369,490
491,491,494,370,492
493,490,492,378,490
493,493,492,401,491
492,490,492,453,491
492,491,492,514,490
492,492,491,596,491
492,492,493,636,490
492,490,493,630,491
494,490,492,611,492
494,491,492,515,492
491,492,492,422,490
494,491,493,384,491
492,492,491,370,491
496,493,495,373,490
493,493,494,384,490
494,494,494,423,490
494,493,493,481,490
492,491,493,547,491
494,491,492,618,490
494,493,493,638,491
492,490,493,627,491
492,490,493,574,491
493,492,493,470,490
493,491,493,404,490
494,491,491,371,490
494,494,493,372,491
494,493,492,380,491
494,492,491,399,489
492,492,493,449,491
493,490,492,508,490
492,491,493,582,490
487,492,493,633,490
493,490,493,633,489
493,490,491,619,492
493,493,493,530,492
494,490,492,431,490
493,492,492,390,491
493,491,491,371,492
494,490,492,372,491
493,491,492,383,490
494,490,494,413,490
493,492,491,473,490
492,491,494,538,489
493,492,493,614,490
494,491,491,637,490
492,491,494,630,492
493,491,494,583,490
493,492,493,481,493
494,492,492,410,491
493,491,493,373,491
493,493,493,371,493
494,493,494,379,492
493,490,493,393,490
494,493,492,441,490
493,492,492,501,490
492,491,491,570,489
491,492,492,632,491
492,491,492,636,491
492,491,493,619,490
491,492,495,542,490
492,492,493,441,491
492,492,492,394,491
492,491,492,370,489
494,492,493,370,490
492,491,491,382,491
493,490,492,410,492
492,490,492,466,491
493,491,493,527,490
491,490,493,606,491
494,490,491,636,489
493,492,493,631,490
493,492,493,594,490
494,491,492,494,491
494,491,493,414,490
493,491,493,378,490
494,492,492,368,492
493,493,494,375,491
492,492,494,387,490
495,492,491,434,490
492,492,493,496,491
492,490,492,562,489
493,492,492,628,491
494,492,491,638,492
493,490,491,624,492
494,493,493,557,491
493,492,492,452,492
493,492,492,395,491
492,493,494,367,490
492,492,496,372,491
493,493,493,379,492
493,491,492,406,490
494,491,493,457,491
492,492,492,520,490
493,490,492,600,491
493,489,493,636,491
494,491,491,633,489
492,492,495,607,492
494,491,493,508,491
493,492,492,419,490
493,493,492,385,491
493,493,493,368,490
492,492,491,375,492
493,492,493,385,493
493,490,492,425,491
493,491,493,485,491
493,491,493,551,490
491,491,494,622,492
493,490,493,638,490
493,491,493,626,491
493,493,491,572,491
494,492,492,464,491
491,493,491,403,492
494,491,492,368,493
494,492,495,372,492
495,492,494,376,490
493,492,495,398,489
492,492,494,451,490
492,490,492,511,491
491,492,492,590,490
490,491,494,634,491
493,489,492,632,492
492,490,493,615,492
493,491,493,523,491
493,492,492,426,490
492,492,492,389,492
494,492,495,368,490
494,493,492,374,490
494,492,491,384,491
494,492,492,420,491
492,491,493,474,490
489,493,492,543,490
492,491,492,615,491
492,491,493,636,489
492,492,493,628,490
493,492,491,582,493
493,493,493,475,490
493,492,493,407,492
494,492,491,373,491
496,493,493,370,492
492,494,493,378,491
494,492,492,392,491
492,491,492,445,491
495,492,492,503,490
493,491,493,575,489
492,493,494,633,490
493,490,493,633,490
494,491,491,621,489
491,492,495,537,492
493,492,492,435,491
494,491,492,391,491
492,491,492,368,492
492,492,492,374,492
495,493,494,380,489
494,491,492,412,490
492,493,492,467,490
491,492,493,531,490
495,491,492,611,490
492,491,493,637,491
494,491,493,631,490
494,490,492,587,491
493,491,493,488,490
493,492,493,411,490
492,491,492,379,493
493,493,493,369,491
492,491,494,378,491
494,491,491,391,491
494,491,492,435,491
493,492,493,498,491
493,493,492,564,491
492,493,492,630,491
492,493,494,636,490
493,493,493,623,490
493,493,494,551,490
494,493,493,447,491
493,491,492,395,491
495,492,495,367,489
491,491,494,371,493
492,493,494,379,492
494,490,494,404,490
493,490,492,463,490
493,490,493,521,490
492,489,492,605,489
492,493,491,638,491
492,493,491,633,491
494,492,491,599,489
493,492,492,505,491
494,492,493,416,490
492,491,493,381,491
492,491,492,368,490
493,493,494,374,490
493,491,493,388,490
493,493,492,428,490
493,491,493,491,490
491,493,491,557,491
494,490,492,625,492
493,489,493,636,490
490,491,492,628,491
491,491,494,563,492
493,492,493,458,490
492,491,494,400,490
492,492,492,368,490
492,494,493,370,490
491,491,493,380,492
493,492,494,400,489
490,491,492,455,492
487,492,492,514,490
489,492,493,591,489
497,490,492,637,490
497,491,493,633,491
495,490,492,614,490
497,492,492,519,491
497,493,492,425,490
496,491,494,387,489
491,490,492,371,492
492,493,492,376,490
492,491,493,384,490
493,490,493,421,489
494,491,493,480,489
493,492,493,547,490
491,490,492,620,489
492,493,493,636,490
490,491,492,629,493
492,490,492,579,493
493,491,493,472,492
493,492,493,407,491
493,491,494,372,491
496,492,495,370,490
493,493,493,379,490
493,492,492,397,490
495,493,493,445,490
492,491,492,508,491
492,491,493,580,491
493,490,492,633,491
494,490,493,633,490
494,491,494,618,491
495,491,492,531,490
494,491,492,432,491
493,491,493,391,490
494,492,492,371,492
494,492,491,373,493
495,490,492,382,491
492,494,494,414,492
493,491,492,471,490
493,492,493,535,490
492,491,494,611,490
492,491,493,638,490
494,493,493,628,491
491,493,492,588,491
492,492,493,483,491
494,491,493,411,491
493,490,492,376,492
494,490,493,367,490
492,492,492,376,490
492,492,491,393,492
494,492,494,439,490
491,492,493,502,490
491,492,492,570,490
494,491,494,628,490
495,490,492,636,490
493,492,493,621,492
493,490,493,544,492
492,492,492,443,491
491,491,493,393,490
489,493,492,371,493
490,494,494,372,492
490,492,494,378,492
492,493,493,411,492
496,492,493,465,491
499,491,492,526,489
498,493,493,607,491
495,492,491,638,491
498,492,494,630,489
494,493,495,594,490
492,492,493,498,491
492,491,492,414,491
492,492,492,381,492
492,490,493,369,491
494,491,492,377,491
490,491,492,387,492
491,489,492,432,490
493,492,492,493,490
490,492,491,560,492
490,491,494,624,490
490,492,493,637,491
492,492,491,626,491
494,493,491,560,491
491,492,493,454,492
490,492,493,397,491
491,491,493,368,492
493,491,494,369,490
488,491,494,378,490
493,491,491,405,491
498,492,494,457,491
500,492,494,518,490
495,493,492,599,490
496,491,491,637,491
497,491,492,632,490
500,494,494,606,492
502,494,493,512,491
505,492,493,419,490
502,492,493,384,490
489,493,493,368,491
474,490,494,373,491
481,491,494,384,491
486,490,493,427,491
492,492,494,485,490
493,491,494,552,491
493,489,493,622,492
494,493,493,639,491
495,494,494,627,492
499,490,492,573,490
501,493,494,466,490
495,492,493,405,491
491,492,492,367,491
490,492,492,373,492
493,492,493,379,490
494,491,492,398,491
495,491,493,450,490
496,491,493,511,490
496,490,491,586,489
493,493,494,636,491
491,491,491,635,491
490,492,491,619,491
492,492,493,528,491
494,492,493,429,490
492,492,493,389,491
493,493,493,371,491
492,493,495,372,490
491,493,495,384,489
490,494,495,419,490
492,492,493,476,490
492,491,493,542,491
492,491,494,615,490
493,491,492,638,491
491,491,493,629,491
490,491,493,583,491
493,493,493,480,490
493,492,494,410,491
493,492,494,374,489
492,496,494,371,492
494,491,493,379,491
494,493,494,392,490
493,490,493,443,490
492,492,493,504,491
489,492,493,573,490
489,490,494,632,489
492,491,494,636,491
493,489,493,623,489
492,494,494,539,491
492,493,493,439,490
494,492,493,393,491
492,492,492,372,492
490,493,493,372,493
494,494,492,383,490
492,491,494,413,491
494,490,493,466,490
492,492,494,530,489
492,493,494,610,490
492,491,494,637,491
491,492,493,632,492
493,493,496,591,493
493,491,493,492,491
494,492,493,413,491
492,491,494,378,492
496,493,492,368,489
493,493,494,377,492
491,492,493,390,489
493,493,492,436,490
492,492,493,496,490
492,491,494,563,489
492,490,492,629,490
492,492,493,636,491
491,491,494,623,490
495,492,496,554,491
496,493,495,451,492
498,492,493,399,492
499,494,495,370,490
499,493,495,372,492
496,491,492,380,492
483,490,491,406,491
484,490,492,460,490
484,490,492,520,491
492,491,492,604,491
496,491,494,637,490
494,493,493,632,490
496,493,493,604,490
496,492,494,505,492
492,492,492,417,490
492,493,494,384,493
496,492,493,369,493
498,494,494,375,491
500,494,495,389,493
503,492,495,427,490
492,492,494,488,490
487,492,493,556,490
489,492,493,625,490
489,492,493,638,491
492,491,493,627,490
488,492,493,568,493
489,491,494,460,491
490,491,493,401,491
489,491,494,366,490
490,493,495,372,491
492,491,493,380,492
494,494,492,402,490
492,491,494,455,490
495,490,492,514,491
496,490,493,591,491
499,490,493,638,490
495,491,494,631,490
495,491,492,617,492
498,493,495,521,491
500,493,492,427,491
486,492,492,388,490
484,490,493,368,491
485,491,492,373,489
488,494,493,384,491
488,490,493,419,491
491,491,493,479,490
491,493,494,544,490
489,491,492,620,493
494,492,494,639,491
492,492,495,632,492
494,493,492,582,492
494,492,493,474,492
494,492,493,406,490
492,493,493,371,493
492,494,494,371,492
492,493,495,377,490
492,491,495,395,490
492,493,494,445,490
492,491,494,508,490
492,492,492,579,490
492,491,493,636,491
495,491,492,636,492
494,490,493,620,493
491,491,495,536,491
491,491,493,434,491
493,492,493,392,490
490,493,496,369,491
494,493,495,374,490
494,493,493,383,490
493,494,493,412,491
491,491,493,472,491
493,491,494,535,489
494,490,493,615,492
496,490,494,638,491
496,492,495,629,490
497,491,493,591,490
496,493,493,488,491
487,492,493,410,490
488,492,493,377,491
490,494,492,369,490
492,492,494,376,490
490,491,491,393,491
490,493,493,437,491
493,490,493,499,490
493,490,493,568,491
492,490,493,630,490
493,492,493,634,489
492,491,492,623,491
495,493,495,547,490
488,492,494,445,491
490,492,493,395,491
493,493,493,370,491
492,492,494,371,491
493,491,492,379,489
492,493,493,407,491
491,490,492,462,491
494,491,492,523,490
493,491,491,607,491
496,492,493,636,490
495,491,493,629,491
493,492,494,599,491
494,491,495,501,491
491,492,494,415,490
488,492,494,380,492
490,490,493,369,491
492,493,494,374,490
490,492,495,387,490
489,493,494,430,490
490,492,492,491,491
490,492,493,560,490
490,491,494,628,491
491,491,494,637,492
489,490,494,625,491
490,490,493,563,491
490,493,493,458,491
493,491,494,400,490
493,491,492,369,490
490,495,494,373,492
493,494,493,381,492
493,491,492,403,490
491,492,494,457,491
492,490,493,516,490
494,491,493,595,490
491,491,493,637,489
492,491,493,632,490
490,491,494,611,492
491,493,494,517,491
495,492,494,423,490
493,495,493,388,492
495,492,493,373,493
495,491,493,375,490
494,494,494,384,490
489,492,491,425,491
486,491,493,483,490
490,492,493,550,489
493,492,493,621,490
489,491,491,637,489
492,492,494,628,492
492,490,494,575,490
492,493,494,468,491
491,492,494,405,491
491,491,494,369,491
491,493,493,372,493
492,494,495,381,492
491,492,494,400,491
493,493,493,450,491
493,492,493,512,491
492,490,492,583,489
491,493,493,634,491
491,492,492,636,492
491,493,494,617,490
490,493,496,529,491
493,492,494,431,491
491,492,493,389,490
490,494,495,370,492
491,492,492,375,492
492,492,494,385,492
492,491,493,418,491
491,491,493,474,491
492,493,493,540,490
490,490,495,614,491
494,490,492,639,490
493,493,493,631,491
493,493,493,586,491
494,492,492,480,491
493,492,492,410,491
492,492,493,373,489
493,491,494,368,490
495,491,495,377,489
496,491,495,392,489
497,490,494,442,490
494,492,495,503,492
490,492,492,575,490
483,493,492,632,491
487,491,492,637,492
488,490,493,622,489
491,490,493,541,491
491,493,493,439,491
491,492,492,391,490
491,491,494,368,491
492,492,495,373,491
491,493,493,381,491
491,491,494,411,490
491,491,492,466,490
490,492,492,529,490
490,491,491,610,490
491,490,493,638,491
490,493,494,631,491
489,491,493,594,490
494,492,494,493,491
492,492,494,413,490
492,492,494,379,490
492,492,491,369,491
491,492,492,378,491
491,491,494,386,491
492,493,492,435,490
492,491,493,494,491
492,491,493,562,490
491,493,492,626,490
489,494,492,638,492
492,492,493,625,490
493,494,493,556,491
493,493,494,451,491
493,493,493,399,491
493,491,495,366,491
495,492,494,372,490
494,493,495,380,491
493,490,494,404,491
491,492,493,460,490
491,490,493,520,490
491,492,494,599,489
489,492,492,639,490
493,492,492,633,490
493,492,493,606,490
492,493,492,510,491
491,493,492,418,490
493,492,493,383,489
491,490,493,369,491
492,491,493,374,490
491,492,494,385,490
491,493,493,429,491
491,493,494,486,490
493,492,494,555,490
487,493,493,623,489
490,492,493,639,491
493,490,493,628,491
492,491,494,570,490
495,493,493,464,492
494,492,493,403,491
494,491,494,367,490
491,490,495,370,490
491,492,494,380,491
487,490,492,400,489
490,491,493,453,491
489,489,492,513,490
491,492,491,590,491
491,493,492,636,491
491,494,493,634,490
491,493,494,613,490
496,495,495,522,491
493,493,494,427,490
496,493,494,388,490
494,494,496,374,492
497,494,494,375,490
496,495,495,384,490
495,494,492,422,491
497,493,493,477,490
495,492,492,543,491
488,490,492,618,490
487,491,494,636,490
486,491,492,631,491
490,490,495,579,490
492,492,494,476,491
492,491,494,407,490
492,490,494,372,492
493,492,493,372,489
491,489,495,380,492
492,489,492,396,492
493,489,494,445,490
493,491,494,505,490
491,492,494,576,490
488,494,493,635,491
490,491,493,635,491
490,495,492,622,490
494,495,493,538,491
494,492,494,436,491
497,493,494,391,491
494,493,494,372,494
495,490,495,372,492
494,492,495,381,491
491,493,496,412,490
493,493,494,472,491
493,492,494,533,491
492,492,494,614,490
493,494,493,639,491
495,495,493,632,492
492,493,493,588,490
492,492,494,489,492
494,492,493,412,490
491,491,493,375,491
491,490,494,368,490
490,493,494,377,490
492,490,493,392,490
493,492,493,437,491
491,490,493,501,491
493,491,492,568,491
493,491,492,631,492
493,492,494,637,491
494,494,494,622,491
496,496,491,553,491
492,497,494,447,492
490,493,493,395,490
489,493,494,369,490
491,492,493,371,491
489,492,493,382,492
494,493,496,406,490
493,491,492,463,492
494,494,494,523,491
493,493,495,603,490
495,494,494,640,490
494,496,494,632,491
491,494,494,602,491
495,494,493,504,492
493,494,492,417,491
491,493,495,382,491
490,494,493,369,493
488,496,494,378,492
488,495,495,387,491
491,494,495,430,490
494,495,494,490,491
489,494,492,559,490
496,491,493,624,490
496,490,492,639,491
494,489,492,627,492
493,488,492,566,492
492,489,494,459,491
492,491,494,402,491
493,490,495,371,491
495,489,495,372,490
494,492,494,380,490
493,495,494,403,489
494,495,494,454,491
493,495,493,517,491
493,496,495,594,492
492,493,494,636,492
491,497,494,632,491
491,498,495,611,492
494,491,494,518,492
492,493,493,426,492
493,493,493,388,490
494,491,493,373,492
494,491,492,376,492
494,493,495,385,490
493,493,493,422,491
494,495,493,482,490
492,493,493,548,490
491,495,495,619,490
493,492,494,639,489
492,493,495,629,491
491,495,492,580,491
494,492,493,470,491
493,491,493,407,492
493,492,493,371,493
494,493,494,369,491
493,493,492,377,491
492,491,491,400,492
493,492,493,447,490
492,491,492,508,490
492,492,490,582,490
492,492,492,632,489
491,492,492,634,489
492,496,494,619,493
491,495,495,530,492
492,497,495,434,492
492,498,495,391,492
492,497,496,369,490
492,495,493,373,491
494,497,493,385,491
491,497,493,418,491
492,490,494,473,490
495,487,494,536,490
492,485,495,614,492
492,482,493,639,491
493,488,495,630,490
493,489,495,586,490
493,492,493,483,491
492,492,492,411,491
493,490,492,377,491
493,491,495,371,493
493,491,493,379,492
492,491,494,392,491
493,494,493,441,489
494,495,493,502,490
493,494,492,572,492
493,496,494,633,490
494,496,493,637,491
494,496,492,624,491
492,500,497,544,493
494,502,494,442,492
496,501,493,394,492
499,495,494,369,491
498,493,494,372,491
495,496,494,380,490
489,494,492,410,491
488,494,493,465,491
493,496,493,528,490
490,497,491,609,491
489,498,491,638,492
491,496,492,632,491
493,493,492,594,492
492,486,491,497,491
493,486,492,413,491
492,487,494,380,491
491,486,498,370,492
491,486,497,376,492
491,490,494,387,491
488,494,493,434,492
490,498,494,495,492
494,494,493,561,492
492,493,492,629,492
495,496,494,638,489
494,485,493,624,489
493,491,494,560,491
493,494,493,453,491
493,492,492,399,491
494,493,492,367,489
491,495,493,373,491
492,498,493,381,490
492,499,494,403,490
492,503,494,458,492
493,503,493,519,490
493,497,493,600,489
494,493,494,637,492
493,494,493,635,492
495,494,494,609,493
495,495,493,512,493
495,487,493,422,491
493,493,494,385,492
494,491,493,372,491
494,495,495,376,490
493,494,494,387,490
493,498,494,427,491
492,500,493,486,490
492,499,494,552,490
493,493,492,623,491
493,487,494,638,491
492,490,494,627,491
493,486,495,572,492
495,495,494,468,492
493,495,494,405,492
493,495,494,370,491
493,500,493,373,492
494,494,493,381,492
493,494,495,398,490
492,491,493,452,492
492,491,493,511,491
492,495,494,587,491
491,495,494,635,491
493,489,493,634,492
493,488,493,617,490
494,494,495,525,493
495,496,494,429,491
495,495,492,390,491
495,495,491,372,490
493,492,492,375,489
493,494,493,383,491
495,495,491,416,489
491,487,492,475,490
493,490,493,541,490
494,491,492,616,490
496,492,492,635,491
494,492,493,631,493
495,496,500,582,494
496,499,495,479,493
494,504,493,409,494
496,501,494,372,494
497,505,494,370,492
493,504,494,379,492
490,496,492,395,490
494,494,491,444,491
494,487,491,504,491
494,496,491,573,490
493,498,489,632,491
495,506,490,633,491
492,498,496,620,491
494,493,496,538,491
493,492,494,437,492
494,489,495,392,490
494,484,494,370,493
494,484,494,374,491
494,487,494,384,491
494,494,494,414,492
494,491,494,469,490
492,486,494,531,490
492,487,492,613,490
495,491,493,637,489
494,499,492,631,490
493,499,493,591,490
494,497,493,491,493
495,499,494,412,492
492,495,495,378,493
492,495,495,369,492
495,493,495,377,491
493,492,494,392,491
496,492,494,434,492
494,493,493,499,491
494,492,493,565,491
495,495,494,629,491
494,496,493,638,492
492,495,495,623,493
495,500,493,553,492
493,498,492,447,494
495,491,491,394,495
494,492,495,367,496
495,488,495,372,495
494,489,493,381,497
494,487,496,407,496
493,495,495,462,493
493,508,493,523,492
494,513,493,605,493
493,507,493,637,492
494,505,495,631,492
492,504,492,604,495
493,489,494,503,496
494,476,493,415,494
492,482,495,383,493
493,486,493,369,495
494,492,494,374,494
491,492,493,388,493
493,486,492,429,489
495,488,492,489,488
493,493,491,557,489
495,490,491,621,489
496,491,490,637,489
497,495,487,626,491
498,509,486,565,493
498,509,488,458,493
496,517,491,398,493
495,508,490,368,494
495,509,495,371,494
494,494,496,376,495
493,491,495,397,492
491,480,494,452,490
492,484,493,515,491
492,491,494,593,493
490,494,492,638,492
491,496,493,635,492
496,492,494,616,493
498,493,498,521,493
496,496,494,426,494
497,499,493,389,491
496,490,495,368,490
497,479,494,375,489
497,483,493,386,493
495,495,494,423,493
494,500,495,481,490
494,492,492,547,490
496,505,485,618,489
498,504,483,634,492
496,504,485,625,493
497,507,484,578,493
495,501,491,470,497
492,503,498,405,497
494,499,498,372,498
495,501,495,372,496
494,491,498,378,496
494,489,494,396,498
492,485,493,446,496
490,490,492,507,494
493,492,494,578,492
492,490,495,634,494
496,488,494,635,491
495,491,494,618,490
494,494,492,534,494
498,503,495,434,495
497,507,494,391,491
494,507,496,370,493
492,501,496,372,494
493,500,496,383,498
492,490,497,415,498
492,496,493,472,497
494,491,492,536,495
494,487,493,612,496
496,497,492,639,493
493,502,494,632,491
492,504,493,587,485
491,505,494,485,485
495,499,494,410,489
497,496,491,375,489
497,501,489,368,490
498,475,487,377,491
499,481,485,390,491
499,489,488,436,489
497,493,492,499,487
495,488,494,567,485
496,494,499,629,487
496,494,498,636,487
497,497,495,623,489
496,499,494,547,496
498,511,490,444,495
498,511,490,392,494
500,508,491,371,499
500,526,492,371,509
500,500,491,379,509
502,498,492,406,508
505,510,493,462,507
499,498,495,524,496
495,488,494,603,490
490,493,486,633,486
494,495,483,627,481
499,493,489,590,480
504,498,489,495,489
506,488,488,410,494
507,495,494,376,499
503,520,495,366,499
501,512,491,374,498
497,503,489,383,494
497,516,495,427,487
495,502,489,488,494
493,471,483,554,500
494,467,488,620,500
492,465,491,631,500
496,495,491,622,499
498,513,499,556,498
496,527,503,452,486
494,535,496,396,486
499,522,492,364,489
496,492,493,368,488
498,455,491,376,482
498,477,494,403,482
494,495,503,457,485
500,526,505,520,494
503,534,504,603,498
500,542,502,641,505
500,519,499,637,506
512,531,499,614,510
510,558,491,516,505
499,481,487,419,495
492,493,487,382,495
495,506,485,365,496
494,523,493,373,495
499,511,500,384,503
493,463,500,423,502
491,474,500,484,495
489,455,496,548,491
487,451,488,620,491
494,488,495,640,485
499,505,495,629,481
501,507,490,575,488
497,508,489,464,492
500,519,491,402,496
497,520,490,367,498
496,511,493,366,498
498,521,499,377,498
502,512,494,394,490
500,487,491,445,486
503,507,488,505,486
505,522,487,583,490
503,507,491,630,492
499,466,497,628,495
498,482,491,613,491
495,473,492,520,491
497,472,485,421,487
498,516,488,384,487
507,550,491,365,494
505,521,492,369,495
498,521,499,381,503
504,493,501,412,510
499,521,494,472,504
497,513,477,530,499
498,508,471,604,501
506,527,483,628,505
508,486,481,618,506
498,466,479,570,510
494,467,481,466,504
494,476,488,396,497
493,493,498,365,479
495,499,509,360,473
493,486,501,371,479
496,491,496,389,486
496,516,493,438,499
498,521,486,500,511
503,542,490,569,513
500,519,498,630,512
494,476,501,631,498
492,489,496,619,489
492,478,487,535,482
497,476,484,432,479
509,493,490,386,478
511,491,498,363,478
512,508,501,368,478
503,530,496,378,488
499,527,487,407,497
496,527,485,461,498
497,528,492,525,495
500,560,493,608,499
496,507,496,634,498
495,501,494,625,498
500,450,489,586,496
501,496,487,489,496
505,513,481,406,491
501,507,488,371,485
493,491,502,366,482
492,513,500,377,499
496,502,500,391,510
495,495,502,435,520
495,498,500,498,529
496,500,497,565,528
498,534,496,628,519
494,535,489,637,518
501,545,488,621,494
504,481,485,549,478
500,442,485,442,475
502,473,493,391,481
504,479,497,368,486
503,499,496,370,489
499,520,495,378,496
495,537,495,404,494
489,490,493,458,489
489,438,490,517,497
496,487,492,600,486
501,500,483,634,488
503,504,485,626,488
509,509,476,599,490
498,512,477,498,495
492,491,489,413,492
496,510,504,381,494
501,538,506,371,498
499,546,493,375,496
500,523,491,383,501
495,480,477,421,491
501,477,475,479,497
504,483,488,549,503
507,514,486,616,496
509,529,504,636,495
506,506,502,623,501
507,515,502,567,499
496,494,509,462,498
486,461,511,404,499
486,477,495,371,506
494,518,490,375,493
495,546,490,381,492
501,519,488,402,507
502,514,484,451,505
496,457,486,508,502
493,471,487,585,505
491,504,496,635,500
491,508,498,631,495
494,504,498,612,492
494,480,486,519,491
510,505,485,425,500
522,528,482,382,491
520,510,476,365,489
516,549,493,370,491
500,559,501,381,481
484,495,500,417,473
487,467,486,472,487
492,472,482,539,498
495,468,485,612,496
495,491,495,636,500
498,524,502,629,499
505,523,509,581,493
511,508,499,475,501
513,543,492,407,499
496,502,483,365,498
493,491,480,362,489
495,480,489,374,493
506,483,495,393,498
501,518,508,446,498
491,485,504,507,497
486,498,492,578,502
486,492,484,630,508
490,462,479,630,506
496,483,475,612,518
508,499,476,529,510
502,521,485,426,494
497,529,492,385,501
489,485,508,367,497
494,488,512,374,491
507,479,514,384,486
506,497,492,415,477
504,524,482,469,480
498,511,481,529,482
496,486,490,608,496
505,486,493,637,496
501,483,503,632,503
495,494,500,590,497
494,553,489,489,483
492,556,486,410,481
494,478,486,370,483
495,457,484,365,487
501,498,488,377,488
504,535,491,388,497
505,542,484,435,507
507,535,484,497,512
508,504,486,564,513
494,447,499,626,515
483,455,498,636,506
487,492,496,623,508
491,493,488,548,489
504,484,492,443,484
503,463,490,392,498
505,526,489,367,499
500,508,496,371,499
487,486,487,379,507
494,511,496,407,502
497,504,494,462,494
490,520,494,524,497
492,510,499,604,491
497,523,490,636,484
498,518,490,629,492
501,516,487,594,483
504,503,492,499,489
508,490,500,417,489
499,480,498,381,484
495,497,490,368,485
499,476,485,375,492
500,499,485,384,500
500,510,490,431,508
495,515,496,493,516
497,484,505,560,520
500,489,513,630,515
497,539,503,643,506
499,541,489,628,478
502,497,476,557,478
505,450,469,448,480
506,444,479,395,488
498,491,493,367,494
494,504,503,371,492
490,493,501,379,498
492,504,499,408,519
495,522,494,458,517
492,507,486,515,510
496,488,479,589,493
503,480,474,627,467
505,510,484,626,466
503,522,494,608,480
507,508,486,510,490
500,487,491,419,502
492,464,484,383,508
497,489,495,367,502
503,498,499,376,489
499,556,509,391,489
505,576,506,431,508
502,579,505,488,506
493,511,501,550,503
491,394,493,619,490
495,447,493,638,475
490,461,496,628,491
498,469,498,579,502
505,503,494,473,500
499,502,478,408,504
505,542,470,369,505
505,537,457,364,495
509,523,466,370,486
508,486,482,391,502
506,498,508,446,509
499,455,522,513,515
494,517,522,593,512
485,565,505,639,478
491,558,497,638,480
495,495,496,621,489
494,464,495,531,492
496,449,493,431,491
491,453,493,393,500
498,492,490,375,496
501,461,492,375,499
505,505,485,385,490
498,498,485,412,484
486,473,492,473,491
487,502,495,540,496
486,512,498,616,490
489,524,501,641,492
498,528,499,632,485
504,550,494,589,492
504,524,492,483,489
496,473,491,408,494
491,472,490,373,497
493,463,500,370,493
501,476,490,379,488
506,494,477,389,484
506,494,474,437,490
506,495,481,499,492
509,508,491,571,499
498,505,508,632,511
498,505,507,638,519
507,536,496,626,511
500,538,498,544,507
496,501,495,439,491
491,478,494,392,483
491,493,495,372,499
503,501,502,375,501
502,480,498,385,504
494,460,496,413,497
485,475,494,468,495
488,482,492,528,490
494,489,479,606,483
495,479,486,636,486
501,505,482,626,484
499,472,480,588,491
509,511,491,495,504
507,563,494,413,505
509,563,504,383,493
506,570,504,369,470
496,498,491,374,479
496,473,488,386,487
499,492,485,430,483
497,477,478,488,484
491,492,482,561,502
501,483,498,626,521
499,475,510,640,529
494,481,509,632,526
499,468,506,559,511
489,498,497,455,498
481,487,495,400,496
488,504,491,372,483
495,510,494,372,480
491,484,488,380,495
491,491,486,406,488
493,481,489,457,478
493,474,496,520,482
495,502,499,604,493
495,500,498,641,494
498,507,495,635,497
500,513,492,608,493
499,504,489,509,492
499,515,490,421,497
503,520,498,384,490
502,499,495,370,495
498,486,483,373,497
493,459,488,384,500
493,486,482,424,500
500,500,480,480,481
503,504,472,544,482
507,510,478,614,492
511,515,487,628,494
502,487,502,625,500
492,501,518,570,498
483,490,513,464,489
490,490,503,405,494
491,486,498,372,492
492,479,499,375,483
500,487,498,382,483
503,511,489,403,492
504,541,489,454,495
505,526,499,516,510
495,497,496,592,513
495,478,496,636,513
480,475,495,636,509
488,488,496,617,494
489,495,494,525,488
494,487,496,428,494
497,494,496,390,488
497,505,499,371,485
495,503,495,375,486
495,481,495,384,483
496,486,496,420,485
498,487,493,480,487
496,494,495,547,497
499,495,497,621,499
500,501,496,642,500
499,513,494,633,501
494,489,493,585,490
493,499,494,476,488
498,490,496,409,491
497,507,498,375,491
500,511,495,372,492
495,537,494,380,490
494,480,493,396,490
495,465,493,443,493
493,487,493,506,488
493,483,492,576,486
491,481,492,631,485
494,484,494,635,493
494,485,491,624,503
495,490,496,540,505
498,499,496,439,500
496,497,497,393,494
495,494,493,371,488
496,491,487,376,494
500,487,483,381,489
501,487,484,414,484
498,489,484,468,492
495,505,488,533,500
496,503,503,614,496
494,497,504,640,487
495,494,503,636,487
495,495,495,593,490
499,498,490,493,492
499,499,493,415,490
496,496,498,384,491
493,493,499,375,492
493,492,497,383,492
493,495,496,393,494
491,494,494,440,494
494,494,489,502,494
495,499,491,571,493
496,495,490,632,491
497,511,500,639,492
500,527,495,629,494
502,513,492,554,493
500,518,495,450,492
491,477,499,396,490
483,482,497,373,489
493,486,498,375,489
494,476,495,383,490
495,485,495,409,489
496,486,496,464,490
497,491,498,525,492
498,490,495,607,490
497,492,496,641,490
497,492,497,633,491
495,494,496,602,492
495,493,496,508,492
493,493,495,417,490
491,494,495,385,489
492,496,497,373,489
494,493,494,379,490
494,496,495,391,496
493,494,496,433,500
495,494,496,492,499
494,495,495,558,496
492,490,495,625,492
494,494,497,637,486
495,491,496,628,489
495,492,497,567,486
496,498,497,460,486
496,502,496,403,494
496,494,495,371,494
497,493,495,371,488
495,493,496,382,487
495,488,496,399,488
497,491,495,456,491
495,492,495,516,492
495,494,496,594,490
494,496,495,638,493
494,491,496,635,499
495,492,497,611,490
492,493,496,518,491
493,492,496,425,491
495,491,494,387,489
496,495,495,375,492
496,499,497,376,493
494,495,496,388,489
495,494,495,425,490
493,494,494,482,490
494,497,495,548,490
492,491,495,622,492
493,492,495,640,490
492,495,496,628,488
494,493,498,578,491
497,492,497,473,490
501,491,497,409,491
507,490,496,375,490
506,493,497,372,489
502,492,496,383,491
506,493,495,402,492
502,492,497,450,490
502,493,496,512,489
491,491,496,582,490
488,491,494,637,489
490,493,496,639,490
493,494,495,623,490
494,495,496,532,490
494,493,496,437,491
491,494,497,392,490
496,493,494,374,490
499,494,494,376,490
504,493,496,385,490
508,493,494,420,490
502,492,498,476,490
490,492,497,541,489
492,490,495,617,489
483,489,492,640,491
492,491,494,632,491
498,494,498,589,490
497,491,495,485,490
492,493,495,411,491
496,492,498,377,490
502,492,497,374,490
506,494,499,381,491
497,491,496,398,490
496,491,498,442,489
483,491,495,504,490
485,490,494,574,491
491,490,497,633,490
497,492,497,641,490
492,492,497,627,492
498,491,500,548,491
506,493,499,447,491
509,494,497,399,490
506,495,497,370,490
490,491,495,378,491
499,492,497,385,490
499,491,496,411,490
488,491,495,468,489
480,491,495,529,489
487,492,496,612,490
493,490,495,641,490
491,490,495,631,488
491,491,494,600,488
491,492,495,501,491
489,493,496,417,492
493,494,496,383,491
496,492,497,372,491
497,492,496,377,488
493,491,496,389,487
493,492,495,434,490
495,493,495,494,490
493,494,496,564,490
495,490,497,627,489
499,492,495,639,488
496,489,495,626,488
492,487,494,561,490
483,492,496,454,493
488,490,495,401,490
490,492,497,367,484
491,490,498,374,486
498,492,496,384,486
502,493,496,406,486
504,490,496,461,488
510,491,496,521,489
492,490,495,602,491
499,488,496,640,492
492,488,496,634,491
492,489,496,611,490
496,491,497,514,489
501,492,496,422,491
500,491,496,387,489
485,492,497,374,490
491,492,494,378,490
474,492,495,389,489
484,490,497,427,489
494,491,495,488,489
500,490,495,555,490
492,487,494,624,490
492,490,494,642,490
496,491,498,630,490
501,489,495,574,488
503,491,497,467,489
500,491,497,406,488
501,490,495,373,488
486,491,496,370,488
484,491,496,383,490
488,492,498,401,490
495,490,497,454,489
492,490,496,515,489
491,490,496,588,489
497,492,496,638,488
495,491,497,638,490
499,492,496,620,488
498,494,496,529,489
493,492,497,432,489
494,490,495,389,489
485,490,494,375,488
488,490,496,376,489
497,491,495,385,489
504,489,496,421,488
501,488,495,480,489
498,490,496,544,487
480,488,495,622,490
489,490,495,641,488
489,492,495,635,489
498,493,497,588,490
508,494,498,482,490
511,494,500,413,490
513,493,499,376,489
505,492,498,372,489
512,492,498,382,488
509,491,498,397,487
488,488,493,446,488
467,489,495,507,489
488,489,495,580,487
505,493,498,638,488
513,492,498,641,489
506,491,495,623,489
487,489,494,542,489
503,490,495,439,488
490,489,492,394,489
470,489,493,372,488
468,487,494,375,489
482,490,495,382,488
484,489,493,413,487
488,490,494,472,489
490,489,495,534,488
489,487,495,614,489
486,488,495,641,489
491,491,495,634,487
500,491,495,596,487
503,492,497,494,489
507,491,497,415,488
501,489,497,380,490
482,489,495,372,487
480,489,496,378,486
483,489,494,395,489
473,490,494,436,488
488,489,494,499,486
497,489,496,567,485
499,489,492,633,486
495,490,495,640,488
493,488,494,629,487
495,492,496,557,489
497,490,495,451,490
492,492,494,400,489
492,492,495,375,486
491,488,496,375,488
485,488,494,386,488
493,492,493,412,488
494,490,494,467,488
499,488,496,529,488
497,489,494,614,489
500,491,496,649,488
490,487,496,644,489
491,489,496,616,490
498,491,497,523,490
503,492,496,435,488
491,489,496,400,490
473,488,496,386,488
482,490,495,392,487
495,489,493,403,486
498,488,495,441,487
488,487,493,500,487
493,488,495,568,489
499,488,495,637,489
500,489,496,648,488
501,489,496,637,488
494,491,495,574,490
469,490,495,467,489
478,489,494,407,489
488,489,495,374,489
493,490,497,377,488
493,489,497,387,487
490,487,493,409,486
490,490,496,462,488
494,489,496,522,488
500,490,496,601,488
506,492,497,645,489
519,491,499,641,488
514,489,496,620,491
498,491,497,525,490
504,490,496,430,489
492,488,493,388,487
472,487,493,371,488
476,487,492,377,486
486,489,494,386,487
488,489,493,427,488
488,489,494,482,488
488,491,494,550,489
492,488,495,622,487
487,487,495,639,489
492,490,495,632,487
488,488,496,580,488
489,490,495,474,489
494,491,496,409,488
495,492,495,374,490
491,493,493,374,488
490,488,496,380,489
494,485,493,399,489
490,487,494,448,488
493,488,496,511,488
494,490,494,582,488
490,490,495,639,489
493,491,496,638,487
485,491,494,622,487
490,491,494,535,488
487,490,495,436,489
497,491,495,393,486
505,492,499,374,489
509,491,497,376,490
508,490,496,384,489
498,488,496,419,489
465,487,494,472,489
478,487,492,538,490
487,489,493,617,487
493,489,493,641,489
494,489,493,633,489
498,490,494,592,487
498,490,496,486,490
496,490,496,412,488
495,488,495,375,488
481,488,494,370,488
488,491,495,379,488
490,489,494,393,489
487,489,493,441,487
492,489,494,505,487
496,489,493,574,488
494,487,493,634,488
491,488,495,639,488
489,488,495,623,489
485,489,493,550,489
486,489,495,445,489
490,488,494,395,488
492,490,495,370,488
492,489,496,373,489
496,489,495,382,487
494,490,494,412,489
494,489,494,468,489
495,489,493,528,488
493,488,495,606,488
491,489,494,642,490
496,490,495,634,489
495,487,494,598,488
483,489,493,500,488
487,489,493,416,487
492,489,493,381,487
483,488,492,371,490
482,491,493,378,489
486,489,495,388,487
488,487,495,432,488
492,487,493,494,486
496,488,494,563,486
495,488,494,627,487
493,489,493,640,489
496,488,493,628,490
488,490,492,563,491
490,490,496,455,489
497,488,495,400,488
501,491,493,372,488
497,489,495,372,488
485,489,494,381,488
488,491,494,405,487
494,489,494,458,488
499,488,493,520,488
489,487,494,597,486
481,485,494,638,489
483,489,494,633,489
488,489,495,607,489
492,490,493,516,489
487,490,494,422,490
490,489,494,387,488
491,490,494,373,489
491,489,493,377,489
493,489,495,385,487
491,488,493,426,489
492,490,494,484,488
491,488,494,552,488
491,487,495,622,488
490,489,494,639,489
493,488,494,632,489
496,491,494,573,489
495,491,494,469,489
499,490,494,407,490
492,488,493,371,491
489,488,493,370,488
494,490,493,381,488
482,488,493,401,489
486,488,493,450,488
487,488,493,512,489
486,489,492,587,488
489,489,494,635,488
489,487,493,637,490
487,491,494,618,491
489,489,494,528,490
492,490,494,433,490
495,488,494,390,490
497,489,493,371,489
493,492,493,375,491
491,492,494,387,489
497,491,493,421,488
498,489,493,478,488
505,489,495,542,488
513,490,495,620,487
514,491,495,640,487
516,489,496,630,487
496,490,495,584,489
477,490,494,481,490
481,489,491,410,489
462,488,492,375,488
472,487,492,368,489
488,489,492,381,488
489,487,492,397,490
492,487,493,443,488
489,489,493,504,486
484,487,492,576,486
484,489,494,633,485
485,490,494,637,487
487,491,493,624,488
493,487,494,539,490
492,489,494,440,489
490,489,494,393,489
492,489,492,371,492
493,487,494,372,489
495,488,494,383,488
497,491,496,409,487
496,488,493,470,489
498,490,494,532,488
489,491,494,612,488
495,490,493,640,489
502,489,493,631,486
491,489,496,593,489
490,487,494,493,489
492,490,493,411,489
483,490,494,376,488
479,489,495,368,487
485,487,493,376,487
489,489,493,391,489
491,486,493,436,488
490,488,493,496,488
487,487,492,566,490
488,486,491,627,489
490,492,493,636,489
488,491,491,626,490
491,490,496,552,488
496,491,495,449,489
496,490,494,398,489
501,489,493,369,487
507,490,491,371,488
479,488,491,379,491
478,488,492,406,491
487,490,493,460,490
483,490,492,521,488
484,488,491,603,489
488,489,493,637,490
490,487,493,632,488
491,490,493,603,488
493,490,493,507,490
490,491,493,416,489
492,490,493,383,493
493,493,494,370,490
488,492,494,372,487
492,488,495,384,484
488,487,495,428,485
487,488,492,487,487
487,489,492,555,490
488,487,491,625,488
490,489,492,638,491
491,489,492,627,490
493,487,494,569,490
493,490,493,460,490
493,490,492,402,489
494,490,494,366,488
488,492,493,371,488
488,491,493,381,489
492,489,492,399,489
490,489,492,454,489
485,489,492,513,489
483,488,491,592,490
489,488,493,634,489
490,489,494,632,488
493,488,492,616,488
493,490,495,521,490
493,489,493,427,489
493,490,492,387,489
488,491,492,372,489
489,487,494,374,488
489,488,493,383,490
488,491,493,422,489
487,488,493,480,489
489,487,494,544,488
486,488,494,618,491
491,488,492,638,489
497,492,493,627,488
487,491,491,581,490
490,491,492,473,490
491,491,492,407,489
489,489,493,372,492
492,492,492,371,489
490,491,495,380,490
491,488,495,395,488
491,490,493,445,488
490,489,493,507,488
490,490,493,578,487
489,489,491,635,490
489,490,493,636,490
489,488,493,619,491
490,488,493,533,490
490,489,493,436,490
491,490,492,390,489
490,491,492,371,490
488,491,492,374,489
491,490,491,382,489
492,490,491,414,489
489,492,492,469,489
488,489,492,534,488
491,489,493,612,490
489,488,494,637,489
489,489,494,628,487
489,490,495,587,488
489,492,493,487,491
489,491,493,410,490
491,490,493,375,491
492,491,492,369,492
491,489,493,376,490
490,489,493,390,489
491,490,491,436,489
490,489,492,500,488
490,489,493,568,488
489,490,493,628,489
490,491,491,636,489
490,490,494,621,489
492,489,491,548,489
491,492,493,444,490
492,490,492,394,491
490,490,492,367,489
488,490,493,373,490
491,488,493,379,489
490,488,491,407,489
489,490,492,463,488
490,489,492,525,489
490,489,491,606,489
490,489,492,637,489
490,490,492,629,490
489,490,492,597,489
491,491,493,498,491
490,490,492,414,489
489,490,494,380,488
488,489,492,369,490
489,491,491,376,489
490,490,493,389,491
493,488,491,432,490
491,489,492,491,489
491,490,493,560,489
490,490,492,623,489
486,491,492,637,490
487,492,493,626,489
490,491,493,561,489
492,491,492,455,490
491,489,493,398,489
491,489,491,366,488
490,492,493,371,491
489,489,492,379,490
490,489,492,401,489
490,491,492,455,488
489,489,491,518,489
488,490,491,596,490
490,489,492,638,490
491,488,491,633,491
491,489,490,609,491
492,490,492,514,490
491,491,492,422,490
491,491,491,385,489
490,489,493,368,488
490,491,492,374,488
490,490,492,383,488
489,488,492,423,489
491,490,491,482,489
490,489,491,549,490
490,488,491,621,491
490,489,492,635,490
489,490,491,628,490
492,490,493,572,489
492,491,492,466,490
490,492,494,404,490
491,492,492,371,489
493,491,492,371,491
493,491,492,378,489
491,491,491,399,492
490,491,492,448,488
490,490,492,510,489
489,489,492,582,488
489,489,494,633,488
491,487,492,633,489
491,491,490,615,491
488,491,491,529,492
493,490,492,430,490
493,490,492,390,491
490,491,494,368,489
492,487,493,372,490
493,491,490,384,489
489,489,494,416,489
490,488,492,474,488
491,490,492,538,489
490,489,492,617,487
492,489,493,636,487
492,489,491,629,492
491,489,492,584,493
491,489,492,480,491
492,491,492,407,490
492,490,492,377,489
489,491,492,369,490
488,491,492,378,489
494,489,491,395,489
493,489,490,441,490
492,490,491,503,489
491,489,492,573,491
490,492,492,632,489
490,491,493,634,489
491,490,493,620,489
491,491,493,539,490
493,491,492,440,490
492,491,491,391,490
491,493,492,371,490
493,490,492,374,491
493,490,491,381,491
492,493,493,410,489
490,489,492,466,490
491,491,491,528,488
491,491,493,608,488
490,491,492,637,490
492,491,491,630,490
493,491,493,589,490
490,491,491,494,490
492,491,492,411,491
492,491,492,378,491
491,489,490,368,490
491,490,492,373,490
493,491,491,387,488
490,491,491,434,490
491,491,492,496,489
491,491,491,565,489
491,490,491,629,491
490,493,493,635,489
491,489,492,623,489
493,492,491,551,490
493,491,492,449,490
493,490,492,397,490
491,492,492,369,492
493,491,493,372,490
490,490,492,377,490
492,490,490,405,490
491,489,491,459,490
491,489,491,520,490
492,491,489,597,487
493,491,489,634,488
492,489,488,630,489
492,490,492,598,487
488,490,492,505,490
492,490,491,416,490
492,492,491,383,490
490,490,493,369,491
491,489,492,374,489
493,491,491,385,490
493,490,490,427,490
492,490,492,483,489
491,490,492,553,490
490,491,491,622,489
491,490,492,634,489
490,491,493,624,488
490,491,494,567,488
494,490,492,462,489
492,492,493,402,490
491,490,491,369,489
490,492,490,371,490
490,490,490,379,491
492,488,490,399,492
493,490,492,452,488
492,489,492,512,490
492,489,490,588,489
491,492,492,635,489
492,491,491,634,491
494,491,490,611,490
492,492,491,522,490
493,490,492,426,490
493,491,492,386,491
492,490,492,369,491
492,491,493,373,490
494,491,491,384,489
490,492,493,422,491
492,490,492,476,489
492,489,492,543,488
492,490,493,617,488
493,491,492,636,489
492,491,491,629,490
491,490,494,578,492
494,490,491,474,491
493,491,491,406,491
491,490,491,372,492
492,488,491,370,490
494,490,493,376,488
492,489,490,397,491
492,492,492,443,490
492,491,492,507,489
493,491,490,579,490
492,490,492,630,490
493,490,491,635,489
492,491,492,617,492
491,490,493,532,491
492,492,493,436,491
492,490,491,391,492
494,493,494,368,490
493,491,493,371,491
494,492,491,382,491
495,491,491,414,490
493,489,492,471,490
492,491,492,533,490
491,490,492,612,488
491,491,492,635,489
489,492,492,628,489
493,491,494,586,489
491,492,492,488,490
494,491,491,410,489
493,492,492,375,491
492,490,490,369,490
494,490,490,377,491
493,490,491,391,491
493,489,492,436,489
492,490,492,498,489
491,492,491,569,488
490,488,493,627,489
493,492,492,635,489
493,492,491,624,492
493,490,492,548,491
495,493,493,444,489
494,491,491,393,490
493,491,491,368,491
492,492,492,369,489
491,491,490,380,490
488,492,494,403,490
492,489,492,462,490
494,490,492,523,489
492,493,491,605,489
493,491,491,637,491
493,489,492,629,489
493,490,491,596,491
493,492,492,500,491
494,491,492,413,490
495,492,493,379,489
494,491,495,369,492
495,491,493,375,489
496,492,493,384,490
493,491,491,431,491
493,492,491,489,490
491,490,491,557,490
490,492,492,625,490
491,490,493,634,490
492,490,491,624,489
490,492,493,560,489
489,494,492,454,490
494,492,492,399,490
495,490,491,369,489
496,491,493,369,488
494,489,490,379,491
494,490,490,400,491
493,490,491,454,490
492,491,492,515,490
490,491,490,593,488
490,490,491,636,491
490,490,492,633,491
493,491,491,610,490
495,492,492,515,491
495,492,492,422,490
494,491,491,384,489
494,493,493,368,491
493,492,493,372,489
494,493,493,383,488
493,493,493,422,490
499,490,492,482,488
500,492,492,548,488
501,490,491,623,491
499,489,492,637,491
496,490,493,626,490
489,493,492,577,491
487,491,492,467,491
488,491,492,403,490
488,492,492,369,489
490,491,492,369,490
493,492,491,379,489
492,490,493,395,489
492,490,491,447,490
489,491,492,511,491
491,491,491,582,491
488,490,492,632,489
491,493,494,635,491
494,488,492,616,489
494,490,492,527,491
494,493,492,432,490
494,492,491,389,491
494,493,490,370,490
492,492,493,373,492
495,490,492,382,490
495,494,493,414,489
494,490,493,472,490
494,491,492,536,489
491,492,491,614,492
491,491,492,638,491
491,492,493,626,491
493,491,491,585,493
494,491,491,480,491
494,492,491,407,490
493,491,492,375,490
495,494,493,367,490
493,491,491,377,491
493,492,493,392,489
492,492,491,440,489
492,491,492,500,489
492,490,492,571,490
494,490,490,630,489
493,492,492,634,490
490,492,492,620,490
491,490,493,539,490
495,491,492,441,490
494,490,492,392,491
493,490,491,368,489
493,492,491,374,490
493,490,491,381,491
494,490,490,410,489
493,492,491,466,490
493,491,491,527,490
493,491,493,606,489
490,492,493,636,489
493,491,492,629,489
495,492,493,592,489
494,491,493,495,491
495,492,492,412,490
493,492,492,380,492
495,491,492,369,493
492,491,492,375,491
494,491,492,389,490
496,491,493,432,490
494,491,492,493,489
493,491,493,562,489
493,492,493,627,490
495,491,491,635,489
492,492,494,625,491
494,492,494,554,490
494,491,492,450,490
494,490,492,397,491
493,490,492,367,491
492,490,491,373,491
492,492,493,380,491
494,489,491,404,489
494,492,493,460,489
492,492,492,520,491
494,490,491,600,491
495,490,493,636,489
493,490,493,630,491
494,491,492,604,490
492,491,494,508,490
493,491,492,418,491
493,491,492,384,491
493,490,491,371,491
496,492,493,373,490
494,491,492,387,491
496,490,492,427,491
495,490,491,485,490
491,491,492,552,489
488,490,493,620,490
491,491,491,636,489
495,493,492,627,489
496,494,493,570,490
495,493,492,460,490
493,492,491,402,491
492,493,492,367,489
496,491,492,368,491
493,491,493,378,490
490,492,492,398,490
494,489,492,449,489
494,490,491,513,489
493,491,491,588,490
492,492,491,636,490
494,491,491,634,492
494,490,491,616,492
494,494,493,521,490
494,491,492,427,490
494,491,491,385,489
491,491,494,368,489
492,491,493,375,490
494,492,491,382,491
492,490,492,421,490
494,490,492,477,489
491,491,492,543,490
493,490,491,618,491
491,492,492,636,490
495,491,491,629,489
493,490,494,582,492
495,491,492,473,490
494,492,493,406,490
494,493,492,374,490
495,493,492,371,491
495,493,494,376,490
493,490,492,396,489
494,492,492,443,490
493,491,492,504,490
492,491,493,576,489
492,490,494,632,491
494,491,493,636,490
494,490,492,619,491
495,494,491,535,491
491,496,492,436,491
496,490,492,392,492
495,492,494,367,489
493,489,492,374,487
494,490,493,379,490
491,491,494,411,491
492,491,493,469,491
493,490,491,532,491
492,492,491,612,489
491,491,493,636,491
494,490,491,629,492
493,490,491,589,492
493,490,492,489,491
494,491,492,411,490
494,491,494,375,489
492,490,491,370,491
493,492,493,377,489
494,492,492,391,489
495,492,491,437,490
493,491,492,497,490
493,489,493,567,489
492,492,491,628,490
490,492,494,633,489
493,490,494,623,490
493,491,491,549,492
494,492,493,445,490
493,491,492,395,491
495,492,491,369,490
495,492,492,372,492
494,490,492,380,491
494,493,492,404,491
492,491,492,464,490
493,490,492,522,489
493,492,493,602,488
492,493,492,637,490
494,491,491,631,491
492,492,493,595,491
493,493,492,500,491
494,491,492,414,492
493,492,492,380,491
492,490,491,368,491
492,490,490,376,491
494,492,493,386,489
492,489,492,429,490
492,492,492,490,489
493,491,492,557,490
494,489,491,626,489
494,491,492,636,491
493,490,492,626,490
494,490,493,560,490
493,492,492,455,490
492,492,493,400,490
494,490,491,369,492
495,494,493,371,491
493,493,494,380,492
493,493,491,403,492
495,488,493,454,491
493,491,491,516,490
491,491,491,593,489
494,490,494,634,489
494,490,492,633,490
496,493,492,609,490
496,494,492,516,491
496,493,492,423,491
493,490,493,386,492
494,492,495,369,489
492,489,492,372,491
489,494,491,383,490
491,490,493,422,490
495,489,492,481,490
493,491,492,547,491
491,489,492,621,490
494,491,491,637,491
495,490,490,628,491
495,491,491,575,490
494,492,492,469,491
494,492,492,404,491
493,491,493,368,491
493,491,493,368,488
493,492,494,378,489
494,492,493,399,491
492,490,492,448,489
494,490,492,509,489
492,490,491,584,491
494,490,492,632,491
492,490,494,633,490
492,491,491,620,491
493,493,494,527,491
493,493,492,431,490
494,491,492,389,490
495,494,493,370,491
495,492,492,373,490
493,491,491,382,492
494,493,493,416,490
492,491,491,473,490
492,491,492,535,489
491,491,493,612,488
495,490,491,637,489
493,492,491,627,490
493,490,491,586,491
495,491,491,481,491
494,492,491,409,491
494,491,492,374,492
492,493,492,370,490
493,490,493,374,491
494,489,491,390,489
493,492,492,439,490
493,491,492,501,489
493,491,491,570,490
492,490,491,632,490
494,492,493,635,489
493,490,493,621,493
493,491,492,541,491
494,492,492,441,490
494,492,491,395,490
493,493,494,370,494
494,491,492,373,491
495,492,491,381,491
496,492,491,409,491
494,491,493,464,491
493,491,491,526,491
493,493,492,607,489
492,491,493,636,489
493,492,493,628,489
494,492,494,592,489
493,493,492,495,493
495,492,492,411,490
495,492,492,378,490
495,492,491,370,492
493,492,491,375,491
493,493,492,387,491
494,491,492,434,490
494,489,492,494,490
494,490,493,562,489
492,491,493,626,490
494,492,491,636,490
495,492,494,623,489
492,491,490,558,492
494,492,493,450,491
494,491,492,398,490
493,490,492,367,491
493,491,493,369,491
494,490,491,380,490
493,492,491,403,491
492,492,492,459,490
493,491,492,520,490
494,490,490,598,491
494,491,492,636,491
492,494,492,633,491
493,491,492,605,491
495,494,494,508,491
493,491,492,418,491
493,492,492,383,490
493,494,492,370,492
493,492,491,376,492
494,492,494,384,492
494,489,492,427,491
492,489,492,484,490
493,490,492,550,490
494,491,492,620,490
493,491,491,636,491
493,493,493,628,490
494,493,493,570,490
494,492,492,462,490
494,491,493,401,490
495,491,491,369,489
493,493,494,370,492
493,491,493,378,491
492,491,493,398,490
492,490,493,449,489
490,492,492,514,490
493,490,493,589,489
490,489,493,634,491
495,490,491,635,492
494,490,491,616,492
496,491,491,522,490
494,493,492,428,492
494,491,491,388,490
494,492,495,367,490
493,493,493,374,490
494,492,492,383,490
494,490,492,418,490
494,490,492,477,490
494,491,493,543,491
494,490,492,618,492
492,490,492,636,491
493,492,493,629,490
495,492,494,579,490
494,491,492,476,491
494,492,493,407,489
493,492,492,373,489
494,493,491,370,491
495,490,490,378,489
493,492,492,395,493
492,490,492,442,490
493,491,492,504,491
493,490,493,575,490
491,491,493,631,489
492,492,492,634,491
493,493,491,622,491
492,490,493,536,491
495,492,492,437,491
496,491,491,392,491
495,490,490,367,489
494,493,492,371,491
493,491,490,382,491
492,491,493,409,489
492,492,492,469,490
493,491,492,531,490
493,490,492,608,489
494,491,491,636,489
493,492,492,629,491
493,490,492,589,492
493,491,492,489,491
494,491,492,410,491
493,491,492,379,491
492,491,494,369,493
494,491,493,377,491
495,492,492,391,490
495,491,491,437,490
494,492,491,496,489
493,491,492,566,491
492,491,493,628,490
492,492,493,634,490
492,492,494,622,490
492,492,494,550,490
495,491,492,447,491
495,492,493,395,491
494,491,491,370,489
495,491,492,372,492
494,490,492,381,491
492,489,492,406,489
493,491,493,461,490
492,491,491,524,489
493,492,493,602,489
492,492,493,637,490
494,492,492,632,490
494,491,492,595,490
491,493,492,504,491
494,492,492,416,490
493,491,493,380,491
491,491,493,369,491
494,492,494,374,491
495,491,492,388,489
493,493,493,431,491
493,491,492,489,490
492,492,492,558,490
494,491,491,626,491
493,490,493,635,489
491,491,492,625,490
493,494,492,565,491
494,491,492,456,490
495,491,493,400,489
493,491,494,368,492
493,494,492,372,489
494,492,493,378,490
492,491,490,403,491
494,492,491,454,490
493,491,492,516,490
492,490,492,591,491
494,492,492,636,489
492,491,493,633,492
493,490,493,609,489
490,496,493,517,491
494,492,493,427,491
496,491,493,384,490
493,492,491,372,491
493,492,492,375,491
493,490,492,383,491
492,490,493,422,490
492,490,492,481,490
493,491,492,547,489
492,492,492,620,492
492,492,492,638,491
494,491,491,628,491
494,491,491,579,492
494,492,492,468,491
493,492,492,405,491
494,492,492,368,492
493,492,493,368,490
493,494,494,378,489
491,494,494,397,490
494,491,492,446,490
493,491,492,509,489
492,491,493,580,491
494,490,491,633,491
493,491,493,633,490
492,491,494,617,490
496,492,491,528,490
493,491,492,432,492
494,491,492,390,490
494,493,493,369,490
494,492,492,375,491
494,491,492,381,489
494,492,491,415,489
491,493,493,473,489
492,491,492,535,488
489,490,493,611,488
491,491,494,638,491
495,489,492,629,490
496,490,492,584,492
497,493,492,482,491
495,492,492,410,491
493,492,492,377,493
493,492,493,369,491
494,494,492,375,490
493,492,491,395,492
495,492,493,439,489
493,492,493,501,489
492,492,493,571,489
493,490,493,629,490
494,491,491,636,489
493,492,493,622,493
493,492,492,543,491
493,492,492,442,491
493,491,492,395,491
495,492,493,367,490
493,491,492,373,491
494,492,492,381,490
494,493,492,409,489
493,492,492,465,490
491,492,491,526,491
494,490,491,606,489
493,492,491,636,491
492,491,493,628,489
493,492,494,592,489
492,492,493,497,491
493,491,492,415,491
493,492,492,381,491
492,491,492,371,491
494,491,491,376,491
494,491,492,389,491
494,490,492,433,490
493,493,492,493,490
489,493,492,563,490
490,491,493,625,490
494,491,492,635,490
495,493,492,625,490
493,490,494,555,490
495,491,492,451,490
493,491,492,399,491
492,490,492,368,493
494,492,493,369,490
493,491,492,382,491
494,492,494,401,489
493,492,492,459,489
493,490,493,519,490
493,491,491,599,489
492,492,492,637,491
494,490,492,632,489
494,492,491,604,492
494,494,492,510,490
494,492,492,418,490
493,492,493,382,490
491,494,494,370,490
493,489,492,375,490
495,490,491,384,491
492,489,491,428,491
494,490,492,485,490
494,492,492,550,491
492,491,493,622,489
494,491,493,634,489
494,493,492,628,489
493,494,494,571,491
495,495,493,462,491
494,495,493,403,491
493,493,493,370,491
495,491,494,369,489
493,489,492,378,491
492,489,492,398,491
492,489,492,449,490
493,490,493,511,490
493,490,491,588,489
492,492,494,634,491
492,491,492,635,492
494,492,490,616,491
494,494,491,524,491
495,491,493,428,490
494,490,492,387,491
495,493,493,370,491
493,492,494,372,491
494,492,493,382,489
491,494,494,417,491
492,491,492,476,490
493,490,493,540,489
492,490,491,618,491
493,491,491,637,492
493,490,492,626,491
492,493,493,583,490
493,491,493,475,490
494,492,492,406,490
492,492,493,373,489
491,495,491,369,490
492,492,491,378,490
495,490,494,393,490
492,490,492,443,491
493,492,493,506,491
493,490,492,576,491
493,490,493,630,490
493,492,494,634,491
494,490,492,621,490
494,494,492,536,491
494,493,493,438,490
494,492,492,393,491
495,491,491,370,491
493,493,493,373,489
492,489,493,380,489
495,492,491,410,489
492,492,492,468,490
492,491,493,531,489
493,494,492,610,491
491,492,492,638,491
495,491,494,628,489
494,491,491,591,493
494,490,492,490,491
494,492,492,411,491
493,492,493,376,491
495,492,492,368,489
493,492,492,376,491
493,493,493,391,489
494,492,491,437,489
494,492,492,497,489
494,492,493,565,488
493,490,491,629,490
494,492,492,635,490
491,492,494,623,490
491,492,495,550,490
493,493,493,448,490
493,492,493,397,490
494,491,493,368,490
495,492,491,374,490
494,491,491,382,491
494,490,490,406,491
493,492,492,461,491
492,491,492,523,490
494,490,494,602,488
492,491,493,637,490
494,492,492,632,491
494,492,492,600,490
495,492,494,503,491
495,492,492,418,490
493,493,493,382,492
493,490,492,369,491
492,491,492,374,490
492,492,493,388,491
494,491,493,429,490
492,491,491,490,490
493,492,492,557,490
493,492,492,625,490
493,493,491,635,490
491,494,494,626,491
495,488,492,565,490
496,493,492,456,491
494,492,493,400,490
492,491,494,367,490
492,491,492,370,491
492,492,492,381,490
492,491,493,399,491
493,492,492,455,490
491,491,492,516,491
493,489,491,591,491
493,490,493,636,490
494,491,494,631,490
493,490,492,612,492
493,494,493,517,490
493,492,492,424,490
493,492,491,386,490
493,491,494,367,491
494,491,492,374,490
493,492,493,383,492
492,490,493,420,490
492,491,492,480,490
493,491,492,546,491
493,492,494,618,489
492,490,493,635,490
494,493,492,628,491
494,492,492,579,492
494,490,492,470,490
495,492,493,405,491
493,491,492,371,490
494,491,493,367,489
492,492,494,377,489
493,492,494,396,489
493,492,492,445,489
493,491,492,508,489
493,491,492,579,489
492,492,492,633,491
492,491,493,634,491
492,491,494,617,492
492,492,492,532,490
494,492,493,434,490
494,491,492,389,489
493,494,493,369,489
494,492,491,375,491
494,492,491,383,490
491,493,494,416,491
493,490,493,471,491
493,490,492,536,490
492,491,493,612,490
492,492,494,637,490
494,491,492,629,492
495,494,494,587,492
493,492,493,482,491
495,494,492,410,490
495,492,492,377,492
495,491,493,370,491
493,491,492,377,491
495,491,493,390,490
494,492,491,440,489
493,491,493,500,490
493,492,493,571,489
493,492,493,630,491
493,492,494,637,491
494,492,494,622,489
493,491,492,543,492
494,493,493,443,490
493,491,492,395,490
493,492,491,370,490
493,492,494,372,492
494,490,492,380,490
495,493,493,408,490
494,492,492,465,490
492,491,492,525,490
492,492,492,608,490
488,497,493,638,490
490,490,494,628,490
495,491,493,592,490
493,493,493,497,492
494,492,492,414,492
496,492,493,381,491
495,494,493,368,491
492,493,491,378,491
494,492,493,390,492
495,489,493,433,491
491,491,494,493,491
493,492,494,561,491
495,492,491,626,489
494,493,493,636,490
494,493,493,626,490
494,494,493,556,491
493,492,492,451,490
493,491,493,398,490
494,491,492,370,492
493,493,493,371,491
492,491,493,380,490
494,491,492,405,489
492,491,494,459,490
493,491,492,518,489
493,492,493,598,489
493,493,492,638,490
494,491,492,633,491
494,492,494,602,489
493,492,493,510,491
494,492,492,419,491
494,491,493,383,491
493,491,493,369,490
492,492,494,375,492
494,491,493,385,489
494,490,493,425,490
493,491,492,485,490
493,491,493,552,490
494,490,492,623,491
494,493,492,637,490
493,491,493,628,490
495,493,494,569,490
494,492,493,463,491
493,492,494,403,490
493,493,492,371,494
494,493,492,371,491
491,492,493,378,489
494,491,491,401,490
495,490,492,449,490
494,492,493,512,491
493,490,492,586,489
493,492,491,632,490
492,492,491,634,491
492,491,494,612,490
492,492,495,523,490
493,492,493,429,490
494,491,492,389,490
493,493,494,372,491
492,490,491,375,490
494,491,491,384,490
494,492,491,419,490
493,492,492,475,489
493,492,491,541,490
492,492,493,614,491
491,491,491,636,491
494,489,491,627,490
493,492,491,583,491
491,494,493,477,490
493,493,493,406,489
490,492,492,372,492
493,488,492,367,489
494,491,494,376,489
492,489,490,394,488
492,490,492,442,489
492,491,492,503,489
491,490,490,576,489
491,488,489,629,489
489,491,492,632,488
491,489,489,620,490
493,490,492,535,489
492,490,491,436,489
492,490,489,391,489
492,491,489,369,489
492,488,491,371,488
492,489,490,378,488
491,490,491,412,490
492,491,492,467,490
494,492,493,530,490
491,495,492,610,490
495,491,494,636,490
494,490,493,627,490
494,493,493,587,491
492,492,493,489,492
494,492,493,411,490
493,491,494,377,490
492,491,492,370,493
494,493,493,377,490
492,491,493,388,491
493,492,492,437,490
493,490,492,497,489
494,490,493,565,489
493,492,492,628,489
493,491,493,636,491
494,491,494,622,490
493,492,495,549,490
494,492,493,446,491
493,491,491,397,490
494,493,491,370,491
493,492,493,372,491
492,492,493,380,490
491,490,492,404,490
492,491,493,464,490
493,491,492,522,489
492,490,492,604,491
492,493,492,638,491
493,491,491,631,491
493,490,491,600,491
494,490,492,505,490
493,493,492,415,490
492,492,491,384,491
495,492,494,369,490
494,493,491,375,490
493,493,492,388,489
494,491,493,428,490
493,491,492,486,490
492,492,493,557,491
493,490,491,624,491
493,491,492,635,491
491,492,493,627,491
491,496,492,563,490
493,491,493,459,489
495,489,494,400,490
494,492,495,368,490
494,493,493,372,489
491,491,494,379,490
493,491,491,400,489
493,491,492,456,491
493,490,492,516,491
492,490,492,591,490
493,490,494,634,490
492,490,492,635,491
493,492,494,609,491
495,493,492,517,491
494,490,493,424,491
494,491,494,386,490
492,492,494,374,490
493,490,493,374,488
492,492,492,385,492
492,493,493,424,490
493,491,493,479,490
493,491,493,547,490
492,489,493,619,490
494,491,491,635,490
493,493,492,629,493
493,491,492,578,493
494,492,492,471,492
494,492,494,406,490
494,491,493,369,492
496,492,492,372,490
494,493,494,379,490
494,492,493,397,490
494,492,492,447,489
493,492,493,508,491
492,491,491,582,491
493,492,494,634,489
492,491,494,633,492
489,493,493,617,491
494,492,495,530,490
495,492,493,434,491
492,492,492,390,492
494,492,494,371,491
494,492,491,375,491
495,491,491,382,492
495,491,494,414,489
493,490,492,472,490
492,493,493,536,490
489,492,493,612,490
492,491,493,637,490
494,493,494,630,492
492,492,493,587,491
494,494,493,482,492
494,492,493,411,492
495,491,492,378,492
496,490,493,370,493
493,491,494,377,491
495,492,492,394,491
492,492,494,440,491
495,493,493,502,490
493,492,494,571,490
494,493,493,631,491
495,493,494,634,490
492,491,492,623,493
493,494,495,544,492
493,493,493,442,491
493,490,493,394,492
495,491,494,368,491
495,492,492,372,490
493,492,492,381,490
493,493,493,410,490
493,492,493,465,490
493,491,492,527,491
494,493,494,605,488
491,493,493,638,490
494,491,492,629,490
491,492,494,593,491
493,492,494,498,491
495,492,493,414,490
494,492,493,382,492
493,493,493,371,491
493,492,494,375,491
494,491,492,391,492
494,490,492,433,492
494,492,492,492,490
493,493,493,560,491
492,491,492,628,492
494,493,494,637,490
494,493,493,626,491
494,494,494,559,491
495,492,493,453,491
493,492,492,400,491
493,493,494,371,492
496,492,493,373,492
494,491,492,380,492
493,490,491,403,489
493,492,493,458,491
493,491,493,518,490
492,491,493,596,490
491,491,494,634,490
492,493,493,632,489
493,492,493,605,492
494,491,492,512,491
494,492,492,420,491
493,492,492,386,491
495,493,492,372,491
494,490,492,375,492
493,493,492,385,489
493,490,493,425,490
493,492,492,484,490
492,491,494,550,489
492,492,494,620,489
493,493,492,634,491
491,492,492,629,491
493,492,495,570,490
494,494,493,465,490
491,496,492,405,490
493,490,492,370,492
492,494,495,370,491
494,490,493,380,490
493,493,491,399,491
492,492,492,451,491
494,490,493,512,491
491,489,493,585,491
494,492,493,635,490
492,490,494,632,491
495,491,491,613,489
493,492,495,524,490
493,491,493,429,490
493,492,493,389,491
494,493,494,371,491
494,491,493,373,490
495,491,492,384,491
494,489,492,419,491
493,490,492,477,490
493,492,492,541,490
491,491,494,618,491
494,490,494,637,489
494,493,494,629,489
494,493,494,583,490
494,492,493,476,491
493,492,494,409,491
492,493,494,373,492
495,490,493,368,492
493,492,494,377,491
492,492,494,393,490
492,491,494,444,490
494,492,492,504,489
493,490,492,576,491
493,493,494,634,490
493,492,492,636,491
494,491,491,622,491
493,492,495,537,492
495,493,493,436,491
493,492,492,392,492
493,492,492,370,492
493,491,494,372,491
492,492,491,383,492
496,493,495,411,490
493,492,493,470,491
493,492,493,532,490
493,493,492,611,490
494,491,492,638,490
493,492,493,629,492
492,491,494,589,490
494,492,493,489,491
494,492,493,411,491
493,492,494,377,490
492,492,495,370,490
493,491,493,376,491
494,492,493,388,489
492,491,491,436,489
492,492,492,497,490
491,492,492,565,491
493,490,493,628,491
494,492,494,635,490
494,491,491,624,489
491,495,494,551,490
494,491,494,448,492
495,491,494,397,492
494,492,494,371,491
495,491,495,372,490
493,491,493,380,492
493,491,493,405,491
492,491,494,462,491
493,491,493,524,491
492,492,494,602,492
492,491,493,638,491
494,492,492,633,491
496,491,492,602,491
496,491,493,506,491
494,492,492,415,490
494,491,493,382,492
492,494,494,370,492
493,492,494,374,491
492,493,494,384,490
492,493,494,429,491
495,491,491,487,490
493,492,493,556,491
492,493,492,626,490
495,492,491,637,491
494,491,492,627,493
494,493,495,566,490
493,493,492,460,490
493,492,493,402,491
494,490,493,368,492
493,491,494,370,489
492,491,494,382,491
494,490,494,400,489
492,491,492,456,491
493,491,492,515,490
494,492,491,593,489
493,494,492,636,491
493,491,492,633,490
494,492,492,611,493
494,491,493,519,492
493,492,492,425,491
492,492,493,385,490
493,492,496,369,490
493,490,493,374,492
495,492,492,385,490
491,490,494,424,491
492,492,492,481,490
493,493,493,545,491
492,489,492,619,490
493,492,493,636,490
493,490,492,629,491
493,492,494,577,490
494,492,493,470,490
494,492,494,406,490
493,491,493,372,490
495,493,491,369,490
493,492,492,381,492
493,490,492,398,492
493,490,493,446,491
492,491,493,508,490
492,490,492,582,491
492,492,494,633,491
492,492,493,636,491
494,492,491,620,491
496,493,492,532,491
494,492,493,434,491
493,492,492,389,492
493,494,494,370,490
490,491,494,372,489
493,492,494,382,490
494,493,495,414,490
493,491,493,473,491
492,493,493,535,490
493,490,492,616,491
494,490,492,637,492
493,491,493,628,491
492,491,493,587,491
495,492,494,484,492
494,492,491,411,491
491,491,494,375,490
493,492,494,369,490
494,493,493,378,490
494,493,492,391,490
492,491,492,440,491
494,491,493,501,490
494,491,492,571,491
493,491,492,629,490
492,492,494,634,489
494,490,492,624,489
493,493,495,545,492
494,492,494,443,491
492,494,493,394,491
495,492,492,370,490
495,491,494,372,489
492,489,493,380,492
494,495,493,409,490
491,493,493,464,490
493,490,493,525,489
493,492,494,605,492
493,491,493,638,492
494,491,494,628,490
492,491,492,597,492
494,491,492,498,492
494,493,492,414,491
494,491,493,379,492
494,493,493,371,491
493,492,494,377,492
495,491,494,387,490
493,493,493,432,490
493,491,492,491,489
493,492,493,559,490
491,490,491,628,491
493,492,494,636,492
492,491,493,624,490
493,490,493,558,491
493,492,493,454,491
494,492,492,398,490
493,492,492,370,493
494,493,493,373,490
494,492,491,382,491
494,492,491,405,491
493,492,493,456,490
493,491,492,518,490
493,492,492,596,490
491,490,494,635,490
492,492,493,631,489
493,493,493,606,489
493,494,493,512,491
493,492,493,421,490
492,491,493,384,491
494,491,492,372,493
494,491,493,375,492
493,492,493,384,490
494,493,493,425,491
493,491,492,485,490
494,492,494,551,490
493,492,493,622,489
494,493,491,637,490
492,493,494,624,489
494,491,491,575,490
494,493,493,465,491
491,493,493,404,492
491,491,493,369,492
493,492,493,372,491
491,493,494,379,490
495,488,491,400,492
495,493,493,450,489
493,491,492,512,490
494,491,491,586,490
496,493,492,634,488
495,492,493,632,491
493,490,491,615,490
492,492,494,523,491
490,492,492,430,491
492,491,493,387,489
493,490,491,371,491
494,492,492,375,491
492,492,493,384,492
495,492,491,419,492
493,491,492,476,490
493,491,492,540,489
