Sensor0,Sensor1,Sensor2,Sensor3,Sensor4

4495,493,796,493,497
496,493,790,493,496
495,493,758,495,499
496,493,575,493,497
495,493,376,494,497
496,494,284,493,3
497,496,493,790,493
496,495,493,758,495
499,496,493,575,493
497,495,493,376,494
497,496,494,284,493
498,497,494,231,492
3,496,495,493,758
495,499,496,493,575
493,497,495,493,376
494,497,496,494,284
493,498,497,494,231
492,498,497,494,248
494,496,495,494,267
494,500,496,494,339
493,497,495,493,462
494,497,495,493,586
495,499,495,494,756
495,498,495,494,808
494,499,495,494,773
493,499,496,493,692
493,497,496,494,481
494,497,495,493,321
494,496,495,493,253
493,495,493,494,236
495,499,495,493,253
492,496,495,494,300
494,496,495,493,393
494,497,495,494,516
494,497,496,493,657
493,499,496,494,795
493,498,497,494,799
495,496,494,493,764
493,498,498,493,608
494,498,496,493,395
493,496,497,493,292
494,497,496,493,234
493,496,496,493,239
496,498,495,493,269
496,499,495,494,331
495,497,495,493,446
494,497,496,494,569
495,497,495,494,741
493,498,494,494,802
494,497,495,493,777
493,497,497,494,702
493,496,496,493,512
494,498,497,494,335
494,498,496,494,267
496,499,496,494,230
493,498,497,494,249
493,497,497,494,285
493,497,497,494,383
495,498,496,494,500
495,498,495,494,642
493,497,497,494,782
493,498,498,494,800
494,498,497,494,770
495,497,494,493,635
493,498,496,493,416
494,497,496,493,302
494,498,496,493,231
492,497,498,494,239
492,497,494,493,266
495,497,496,493,318
495,497,495,493,432
494,497,495,494,554
494,497,496,493,714
492,497,495,494,802
492,496,496,493,790
496,499,496,493,725
493,499,496,493,540
493,496,495,493,346
494,496,495,493,273
493,496,494,493,231
494,498,495,493,246
493,497,497,494,285
492,499,495,493,363
494,498,495,493,483
493,497,495,493,618
492,497,496,494,780
495,498,497,494,799
495,499,494,492,771
492,497,496,493,656
492,497,496,492,437
494,497,496,493,314
494,497,494,493,236
492,496,495,493,234
496,499,497,495,265
494,497,497,494,310
493,497,496,493,417
493,497,496,493,542
495,496,495,493,697
493,498,497,493,799
494,496,496,493,792
493,498,497,493,749
493,498,498,493,561
493,497,495,494,362
495,496,496,493,280
494,495,494,493,233
494,498,496,493,247
494,498,497,493,275
492,496,497,493,351
495,497,495,493,467
494,497,496,494,602
495,498,497,493,762
493,497,497,493,802
492,497,497,493,776
493,498,494,493,683
494,497,496,493,466
493,498,495,493,318
493,497,496,494,244
493,497,495,494,230
493,496,496,493,257
492,495,495,493,306
495,497,496,494,403
494,498,496,494,527
494,497,496,493,671
493,497,496,493,793
494,497,497,493,796
496,498,495,494,761
493,498,495,493,587
494,497,496,493,379
494,497,496,493,290
494,499,497,493,234
492,495,495,493,239
495,499,494,493,267
492,497,496,493,338
495,497,494,493,455
494,497,495,493,578
494,496,495,494,752
493,498,495,493,800
494,499,496,493,783
492,497,497,493,691
493,497,496,493,491
494,497,495,493,326
493,497,496,493,258
495,496,494,494,232
494,498,495,493,253
493,499,495,493,295
495,499,495,493,392
494,498,496,493,510
494,496,495,493,648
495,499,495,493,784
492,498,497,493,796
495,497,494,493,760
495,498,495,493,615
494,497,495,492,402
493,496,495,493,294
494,499,497,493,234
493,496,495,494,236
493,496,495,493,265
493,497,496,493,324
495,497,495,493,440
493,497,496,493,567
494,498,495,493,736
492,497,497,493,808
494,499,496,493,785
494,499,495,493,719
494,495,496,493,518
494,498,495,493,332
493,496,496,493,266
495,496,494,493,229
494,496,494,493,247
493,496,495,493,289
494,499,495,493,371
493,498,496,493,495
494,496,495,493,633
493,497,495,493,774
492,498,497,493,802
494,496,495,493,772
494,499,497,493,638
493,496,496,494,424
494,497,496,493,305
494,498,496,493,237
493,499,496,493,235
492,497,494,493,263
493,497,497,493,317
494,496,494,493,426
494,497,495,493,551
495,497,495,492,707
494,497,494,493,808
494,498,496,493,784
492,498,495,492,743
492,496,496,493,543
493,497,496,492,352
492,497,496,493,278
494,496,494,493,233
494,498,496,492,245
492,496,496,493,282
495,498,495,493,364
495,497,495,493,479
493,498,496,493,613
493,497,494,493,772
492,498,497,493,804
494,496,495,493,770
493,496,495,493,662
493,497,495,492,452
493,497,495,493,313
493,497,495,493,244
495,496,496,493,235
492,497,496,493,264
493,498,496,493,309
492,499,496,493,413
494,497,494,493,536
493,498,496,493,683
493,496,496,493,803
495,498,495,493,790
496,497,495,493,751
496,497,497,494,571
493,496,495,493,367
493,497,497,493,283
492,496,495,493,226
493,496,496,493,243
492,496,496,493,277
495,497,494,493,347
494,498,496,493,466
494,497,496,493,598
493,498,497,494,762
494,499,496,493,806
495,497,496,493,775
496,497,495,493,678
492,498,497,493,474
494,497,495,493,321
495,496,495,493,246
495,497,495,493,228
493,496,496,493,263
493,495,495,493,289
494,499,495,493,399
493,496,495,493,521
494,497,496,494,661
493,496,497,493,797
494,496,495,493,797
494,499,496,493,755
495,499,497,493,603
495,497,495,493,389
494,498,495,493,293
494,496,496,493,230
496,497,494,494,241
493,498,496,493,266
494,495,494,493,329
493,496,495,493,447
494,498,496,493,577
494,498,495,493,741
493,499,495,493,806
492,497,497,493,786
494,498,496,493,702
493,499,497,493,502
493,497,496,492,330
493,496,495,493,261
494,499,495,493,227
492,497,495,493,257
495,497,494,493,285
495,497,494,493,383
494,497,495,493,504
495,498,495,494,647
493,499,498,493,783
493,496,495,494,795
493,497,496,493,763
493,497,497,493,630
495,497,495,493,407
494,497,495,493,300
493,497,497,493,231
492,496,495,493,240
493,498,497,494,265
495,497,494,493,324
493,497,496,493,436
494,498,496,493,559
493,497,497,493,727
493,498,497,493,806
495,499,497,493,788
494,496,496,493,718
495,499,495,493,524
493,496,496,493,344
494,497,495,493,267
495,496,494,493,228
494,496,495,493,256
493,499,495,493,275
493,499,496,493,372
492,497,495,493,493
494,497,495,493,626
493,499,497,493,775
494,496,495,493,806
494,498,495,492,765
493,497,496,493,656
496,497,495,493,432
494,497,495,493,306
493,497,497,493,238
492,496,495,493,230
494,499,496,493,258
491,497,496,493,312
492,496,496,493,419
494,497,495,493,544
494,498,496,493,705
495,498,497,493,803
494,497,495,493,785
494,499,496,493,747
495,499,496,493,554
494,498,496,493,356
493,496,495,493,280
496,498,495,493,227
493,498,495,493,245
495,497,495,493,274
494,497,495,494,351
493,498,496,493,478
494,497,495,493,607
495,499,495,493,766
492,497,497,493,807
494,498,496,493,777
494,499,497,493,666
494,496,496,493,459
494,498,495,493,313
493,498,495,493,246
495,498,495,493,233
495,496,494,493,257
495,496,495,493,301
493,498,496,493,407
494,497,495,493,530
493,498,496,493,678
492,497,495,493,798
493,497,497,493,793
493,498,495,493,754
495,499,497,493,582
494,497,495,492,376
493,498,495,493,289
495,499,494,494,235
495,498,495,494,243
492,497,496,493,270
494,496,497,493,344
493,497,496,493,460
493,497,495,493,585
493,496,495,493,749
493,500,495,493,808
493,497,497,494,778
496,497,495,493,691
492,499,496,493,485
493,498,495,493,325
493,498,496,493,255
494,499,495,493,229
492,498,495,493,260
492,497,497,493,295
495,496,495,493,397
494,497,495,493,515
495,498,495,493,661
492,498,497,493,789
493,497,496,493,798
495,497,496,493,761
492,496,496,493,607
493,497,495,493,394
494,497,495,493,294
493,497,496,493,225
494,496,495,492,245
494,498,496,493,274
495,498,495,493,332
495,498,495,493,444
492,497,495,493,572
493,498,496,493,740
494,496,495,493,803
493,496,496,493,781
492,497,496,493,705
493,497,497,493,514
494,497,495,493,331
493,497,495,493,261
494,498,497,493,236
493,498,495,493,258
494,498,496,493,286
495,497,496,493,378
494,497,494,493,497
494,497,496,493,638
494,496,494,494,781
495,496,495,494,796
493,497,495,493,770
495,499,496,493,632
493,497,496,493,417
493,497,495,494,302
493,497,497,493,233
492,497,497,493,239
493,496,495,492,270
493,497,494,492,316
492,497,495,493,433
492,498,495,493,560
493,497,495,493,722
495,500,496,494,803
495,498,497,494,786
495,499,495,493,724
493,497,496,493,536
494,497,495,493,348
494,498,495,493,274
496,497,494,493,231
493,498,496,493,246
494,499,497,492,277
494,498,495,493,366
493,496,495,493,485
493,497,494,492,617
492,498,497,493,776
496,496,494,493,804
494,498,495,492,769
494,496,494,493,658
495,496,495,493,441
495,498,496,493,312
493,496,495,493,235
493,499,496,493,230
492,497,497,493,260
492,497,496,493,311
491,497,496,493,416
493,498,496,494,542
495,498,496,494,697
492,497,495,493,797
493,498,497,493,792
493,498,497,494,750
493,498,497,493,560
494,498,495,493,362
493,496,495,493,279
495,497,498,493,228
492,497,497,494,248
493,497,496,493,274
492,496,494,493,351
494,497,495,493,468
494,498,496,493,599
493,497,496,493,759
492,496,496,493,805
493,498,496,493,775
496,498,495,493,677
492,497,494,493,467
494,496,496,493,317
493,498,496,493,250
492,498,497,494,235
493,498,496,493,261
494,497,495,493,306
494,499,495,494,401
493,497,496,493,529
494,498,495,493,672
496,498,494,494,795
494,497,497,493,798
494,496,496,493,754
495,499,496,493,584
492,497,496,493,380
493,496,495,493,288
493,497,497,494,235
495,498,495,493,244
493,497,495,492,268
495,499,498,493,339
493,498,496,493,454
493,497,496,493,580
494,498,496,493,744
494,499,496,493,803
493,497,496,493,780
495,498,495,493,696
496,497,495,493,494
495,497,495,493,325
494,497,496,493,259
493,496,495,494,228
495,499,495,493,249
492,497,497,493,287
492,497,496,493,390
494,498,496,493,511
494,498,496,494,654
493,499,495,493,783
494,499,496,493,798
494,499,495,493,765
495,498,495,493,619
496,498,497,492,402
493,497,495,493,298
494,498,496,493,224
493,496,496,493,237
492,496,496,493,267
492,497,497,493,327
495,498,497,494,441
494,498,495,494,565
494,499,497,494,736
494,501,498,494,809
495,499,496,494,788
496,499,495,493,711
493,497,498,493,523
495,497,496,493,335
494,498,496,493,264
494,495,494,494,230
494,496,495,494,249
493,499,496,493,287
492,496,496,493,380
495,498,495,493,494
494,497,497,493,634
493,497,496,493,780
493,498,496,493,798
495,497,497,493,775
494,496,495,493,642
494,499,495,493,424
493,497,496,493,309
493,497,495,493,240
492,496,496,493,239
495,498,495,493,265
492,497,494,493,320
496,497,495,493,428
493,498,495,493,553
495,498,494,493,711
496,497,497,493,802
494,497,496,492,788
492,497,497,492,742
496,497,494,492,547
493,497,496,493,353
494,497,496,493,274
492,496,495,493,237
494,496,496,492,249
495,498,494,493,278
495,498,495,493,361
494,496,495,493,480
493,497,495,492,613
494,497,494,493,769
493,497,495,492,802
494,497,495,493,773
495,496,494,492,672
496,496,496,493,448
494,497,496,492,316
493,496,496,493,242
496,497,495,493,234
494,497,494,492,262
495,497,494,493,309
495,496,495,494,411
493,497,495,493,539
494,498,496,493,689
495,498,494,493,797
494,496,495,493,791
495,496,494,493,752
493,498,498,493,570
494,496,494,493,370
493,496,496,493,283
494,496,495,493,232
495,497,494,494,244
494,496,496,493,279
494,496,494,493,343
494,498,495,493,463
494,498,496,493,591
492,497,496,493,755
493,497,496,493,805
495,497,495,493,780
493,499,495,493,680
495,499,496,493,475
493,497,495,493,323
493,498,495,493,255
495,499,496,494,234
493,497,497,493,259
495,497,494,493,296
493,498,495,493,397
494,497,495,493,521
495,497,495,493,661
494,497,496,493,798
495,497,496,493,793
496,497,494,493,761
493,498,498,493,600
493,497,496,493,389
493,496,496,493,290
494,498,496,494,234
494,499,496,494,239
494,499,496,494,271
495,499,495,494,335
496,497,495,494,453
495,497,496,493,572
495,498,495,494,747
494,499,498,493,804
494,497,496,494,777
493,497,497,494,700
493,497,496,493,505
494,497,497,494,332
495,497,497,493,262
496,498,495,494,232
494,499,497,493,255
493,498,497,493,290
494,498,496,494,380
495,498,496,493,503
494,498,495,493,642
493,499,495,493,787
495,498,495,492,798
495,497,495,493,764
494,498,497,493,631
494,496,495,492,410
493,496,496,493,297
494,496,496,493,227
493,496,496,493,236
492,496,496,493,271
495,497,497,493,322
492,498,495,493,437
494,498,495,493,560
493,499,496,493,725
493,499,497,493,808
494,499,495,493,781
493,497,496,493,728
495,498,496,492,530
494,497,495,492,341
494,498,495,493,270
495,496,495,493,235
494,498,497,493,254
494,496,495,493,287
493,498,495,493,368
494,497,495,493,486
494,497,495,493,624
493,497,496,493,779
496,497,497,493,803
493,497,495,493,768
495,499,497,492,655
494,498,496,493,432
493,497,496,493,309
494,496,495,493,238
494,499,496,493,232
492,496,494,493,264
495,497,495,493,314
495,497,494,493,420
494,497,495,493,546
495,497,495,492,702
494,496,494,492,805
494,498,496,492,785
492,496,496,493,740
493,496,496,493,554
493,496,495,492,359
494,497,495,493,279
492,496,494,493,234
493,498,497,493,249
493,498,496,493,278
494,498,495,493,357
493,496,494,492,474
493,497,495,493,604
493,496,494,493,768
496,498,494,492,802
494,496,495,493,769
494,495,497,493,678
493,496,495,492,455
493,497,494,492,314
493,496,495,493,241
493,496,495,493,231
492,496,496,493,262
492,496,496,493,301
495,496,496,493,409
493,497,494,493,531
493,497,495,493,679
493,499,497,493,799
494,497,494,493,794
492,497,496,493,754
496,497,495,492,581
493,497,494,492,373
493,496,495,493,283
493,496,495,493,230
495,496,496,493,248
494,496,495,493,267
494,499,495,493,338
493,497,496,493,456
494,497,496,493,584
493,497,496,494,756
497,499,496,494,806
493,498,496,494,776
494,498,496,493,692
494,499,497,494,486
493,499,496,493,324
493,497,496,493,258
494,496,494,493,233
494,499,495,494,253
493,496,495,493,296
496,498,495,493,394
495,498,496,494,515
495,498,496,493,655
493,498,495,494,790
494,498,497,494,794
496,497,495,494,758
495,497,495,493,607
494,496,496,493,398
493,497,496,493,291
494,496,496,493,236
493,496,495,493,237
493,497,496,493,265
493,497,496,493,327
493,498,495,493,446
493,497,495,493,570
495,497,495,493,741
492,497,497,492,806
493,498,497,493,784
492,498,497,493,710
492,497,494,492,511
494,496,496,492,331
493,496,494,492,265
493,498,496,493,231
493,498,496,493,255
493,498,496,493,278
493,496,494,492,379
492,497,494,492,497
493,497,495,493,639
494,498,496,493,783
494,499,494,493,799
494,496,496,492,765
495,497,495,492,634
492,497,495,492,415
494,496,494,492,300
493,496,495,492,228
494,496,494,493,242
493,498,494,493,259
492,499,494,492,322
492,496,495,493,430
493,496,494,492,552
493,497,496,493,713
492,496,496,493,803
494,496,494,493,786
493,498,495,493,727
494,499,497,493,540
494,498,496,493,347
493,497,496,493,277
493,495,494,493,227
494,498,495,493,247
492,496,496,493,281
495,497,494,493,363
495,497,495,493,484
493,497,495,492,620
493,497,494,492,769
495,498,496,493,807
492,496,496,493,770
492,496,496,493,658
492,496,496,492,441
494,497,495,493,309
493,497,496,493,235
494,495,497,493,240
494,498,495,493,265
495,498,495,493,313
494,498,495,493,416
494,496,495,493,539
494,497,494,493,695
494,498,497,493,796
493,496,495,493,786
493,496,495,493,746
492,495,496,494,565
495,496,495,493,363
493,497,495,493,282
493,497,497,493,232
493,498,497,493,248
493,498,496,493,278
493,496,495,493,353
495,498,495,493,466
493,497,495,493,602
495,497,494,493,763
495,498,495,493,803
494,496,497,493,782
494,496,495,493,673
494,498,495,493,465
493,496,496,492,319
492,496,495,492,246
492,495,495,493,234
492,497,496,492,257
494,495,496,493,301
492,496,494,493,403
493,496,496,493,524
493,498,496,493,670
492,498,496,492,796
493,496,494,493,795
494,499,496,493,753
494,496,496,492,593
493,497,495,492,381
493,496,496,493,290
493,497,494,493,230
496,497,496,492,243
493,495,494,492,273
492,497,496,493,335
493,497,496,493,451
492,497,495,493,580
494,497,494,493,746
493,497,495,493,803
493,498,496,493,783
493,498,497,493,694
492,497,497,493,495
492,495,495,493,327
494,496,495,493,259
493,497,497,493,226
493,495,495,493,259
493,498,495,493,291
494,499,495,493,389
493,497,494,493,508
494,498,494,493,649
493,497,496,493,791
494,498,494,493,795
494,497,495,493,760
493,496,495,493,627
494,498,496,493,401
494,497,496,493,299
494,496,496,493,228
492,496,496,493,239
493,497,497,493,268
492,496,494,493,323
493,498,496,493,437
494,497,495,493,568
494,498,495,493,736
495,499,496,493,804
495,498,495,493,784
495,496,496,493,716
493,496,495,493,520
493,497,495,493,336
494,496,494,493,264
493,496,495,493,229
492,497,496,493,255
495,497,494,493,282
492,497,495,493,373
493,497,495,493,494
494,498,496,493,631
494,499,496,493,781
494,496,496,493,799
495,497,495,493,769
493,498,497,493,642
495,496,495,493,424
494,497,495,493,303
494,496,494,493,239
494,498,495,493,232
493,498,495,493,264
493,497,496,493,317
493,497,496,493,424
493,497,496,493,548
493,498,496,493,706
494,496,494,493,804
495,498,496,494,787
493,497,494,493,743
496,497,495,493,544
495,497,496,493,355
494,497,496,493,280
494,497,494,494,235
493,498,496,493,246
493,496,496,493,275
493,496,496,493,357
493,497,496,494,480
494,497,495,493,611
493,496,495,493,768
493,498,496,493,806
495,498,496,493,774
496,498,496,493,670
492,496,496,493,451
494,497,495,493,311
492,497,495,494,240
495,496,494,493,229
494,496,495,493,257
493,496,495,493,303
492,498,495,493,415
493,498,495,493,539
494,497,495,494,688
493,497,497,493,802
494,499,497,493,793
494,499,496,494,751
493,496,496,493,575
494,497,495,494,369
495,497,496,494,284
495,497,495,494,232
495,497,494,493,241
492,497,496,493,270
493,496,495,493,348
494,498,495,493,463
495,497,494,493,591
493,497,496,493,754
492,497,494,493,806
495,498,495,493,780
493,496,494,493,690
494,499,496,493,479
494,498,495,493,323
493,498,496,493,255
494,498,496,493,233
492,497,494,493,253
494,498,497,493,298
493,496,494,493,397
494,497,495,493,519
493,497,496,493,660
494,499,494,494,789
493,498,497,493,793
494,496,497,493,766
493,499,496,493,604
494,498,496,493,391
493,498,494,493,290
493,498,494,493,235
492,497,496,493,243
494,497,494,493,270
495,496,495,493,330
493,497,496,493,451
493,497,495,493,573
493,497,496,493,748
494,496,496,493,805
492,497,496,493,782
493,498,497,493,702
493,498,497,493,506
494,496,495,493,330
493,498,496,493,256
493,496,495,494,234
495,498,494,494,256
495,497,493,494,283
495,497,496,494,386
493,497,494,494,502
493,498,494,493,641
493,496,493,493,783
493,497,495,493,797
493,497,497,493,768
495,498,494,493,631
493,497,495,493,410
493,496,496,493,303
493,498,496,493,236
492,499,496,493,241
494,496,496,493,264
494,497,494,493,318
492,497,497,493,434
494,497,495,493,559
493,497,495,493,718
494,497,495,493,801
492,497,495,493,790
495,497,496,493,721
496,497,495,493,532
493,496,494,493,342
493,497,496,493,272
494,499,497,494,229
493,496,494,494,255
494,499,496,493,277
492,498,494,493,373
494,498,494,493,489
494,498,496,493,623
494,497,497,494,777
495,497,495,493,805
494,500,498,493,767
492,496,497,494,651
493,497,497,493,432
493,497,495,493,311
493,496,495,493,238
492,497,495,493,231
492,498,496,494,268
494,498,496,494,318
495,499,496,493,419
493,498,496,493,543
493,497,495,493,701
496,499,497,493,802
493,496,495,493,788
494,496,495,493,740
494,497,496,493,552
493,497,496,493,363
493,497,493,493,280
495,498,492,494,231
493,497,493,494,251
493,497,494,493,279
493,498,496,494,351
493,496,495,493,474
493,497,496,493,603
493,498,496,493,771
495,499,495,493,804
495,497,495,493,773
493,498,497,493,669
494,496,495,493,458
493,497,495,494,316
493,496,495,494,241
493,496,494,494,230
492,497,496,493,258
491,496,494,493,304
492,497,496,493,408
494,498,495,493,532
493,499,496,494,682
495,500,499,494,799
495,499,497,493,790
493,496,495,494,756
496,497,497,493,581
494,497,495,493,378
493,497,495,493,286
494,496,494,493,232
491,497,497,493,241
493,496,495,493,276
494,499,495,493,337
492,497,493,493,458
494,497,493,493,583
493,498,495,493,758
495,496,497,493,805
495,497,495,493,779
492,498,497,493,692
493,498,497,493,486
493,497,496,494,323
492,498,496,493,252
493,496,496,493,232
494,496,496,493,252
494,497,494,493,295
495,497,494,493,391
494,497,496,493,513
493,496,496,493,655
495,497,495,493,791
494,498,495,493,793
494,497,495,493,758
493,496,496,493,607
493,497,497,493,399
494,496,496,493,294
495,498,497,493,226
492,497,496,493,240
492,496,495,494,267
493,497,496,493,331
495,497,495,493,443
493,497,495,493,570
495,498,496,493,738
492,497,496,493,807
494,498,496,494,783
494,500,496,493,713
494,496,495,493,516
494,498,494,494,331
493,497,494,493,267
496,498,492,494,233
496,497,492,493,250
495,496,495,493,289
491,496,496,494,375
493,498,497,493,498
493,496,496,494,634
493,496,496,494,775
494,498,497,493,800
495,497,497,493,770
494,498,496,493,634
496,498,498,493,419
494,496,496,493,305
495,498,496,493,235
493,496,496,494,234
495,498,494,494,261
492,497,497,493,320
495,496,495,493,431
494,497,495,494,554
495,498,495,494,712
495,498,496,494,807
493,494,492,494,782
494,500,494,494,728
493,496,495,494,538
494,497,495,493,349
493,496,497,493,276
495,497,497,494,232
494,499,495,494,246
497,499,497,493,284
496,499,496,494,368
496,500,495,493,480
495,497,495,493,616
495,499,494,494,768
495,498,496,494,806
496,499,495,493,777
496,498,496,493,666
495,499,497,494,441
495,497,497,494,313
494,496,497,493,234
493,499,500,494,239
495,499,498,494,265
494,499,497,493,309
493,498,496,493,413
494,498,494,494,539
494,498,495,494,686
494,499,498,493,805
494,498,496,493,792
495,498,496,493,751
496,497,497,494,565
496,498,494,494,363
495,498,494,493,280
495,497,492,493,229
495,497,493,493,242
494,496,495,493,279
495,498,495,493,350
493,497,495,493,469
493,496,498,493,601
493,498,499,494,765
495,500,499,493,807
495,498,498,493,780
496,499,495,494,675
494,497,496,493,469
494,498,495,493,323
494,497,494,494,249
496,498,495,494,229
495,498,499,494,263
494,496,496,493,302
493,499,498,493,401
495,497,496,493,524
496,498,496,493,666
494,497,496,493,799
495,498,496,493,794
494,498,495,494,755
492,499,498,493,595
494,497,497,494,385
495,498,496,493,291
495,496,495,493,238
495,497,495,494,240
493,496,496,494,271
495,496,495,493,337
496,496,495,493,453
497,498,496,492,579
496,497,494,493,745
497,500,495,494,802
494,498,495,493,780
494,497,495,493,695
494,497,496,494,495
496,497,496,493,329
497,497,497,494,260
497,498,498,494,225
495,499,499,493,262
496,498,498,494,290
496,500,497,494,387
494,497,495,493,510
496,498,491,494,649
496,498,491,494,792
498,498,493,494,798
499,498,494,494,765
498,500,500,494,618
495,499,498,493,405
497,498,495,493,299
495,499,496,493,238
495,499,496,493,243
496,498,497,493,262
495,496,496,493,330
495,499,495,494,436
497,498,496,493,565
495,498,494,493,735
496,500,492,494,806
498,500,494,493,782
497,498,497,493,717
500,498,495,493,524
498,499,498,493,342
498,497,495,494,266
495,496,493,494,229
494,497,492,493,256
496,497,493,494,284
496,497,488,494,375
494,497,492,494,496
495,497,494,494,632
496,500,499,493,772
496,497,500,494,804
498,498,503,494,769
496,499,500,494,644
496,497,492,494,429
497,497,485,494,304
497,497,489,494,238
498,495,493,493,241
498,499,496,493,260
495,499,503,493,316
494,501,499,493,425
494,497,495,493,547
494,499,497,493,709
495,498,500,493,805
497,498,496,494,791
497,499,494,494,745
498,499,494,493,549
496,499,495,493,353
492,497,496,493,278
493,497,499,493,230
492,496,499,493,247
496,497,496,493,276
499,498,495,494,355
500,501,501,494,480
499,499,500,494,613
501,500,498,494,769
497,501,500,493,806
496,501,498,494,777
497,501,497,494,662
497,497,497,493,454
497,499,498,493,313
497,501,497,493,244
494,499,497,493,236
492,499,493,494,261
493,498,491,494,309
493,499,494,493,411
497,497,492,493,534
497,497,492,494,681
496,496,496,493,799
498,496,497,493,788
499,496,490,494,752
496,496,492,494,569
496,496,494,493,370
498,498,495,494,289
498,500,491,494,238
493,501,495,493,242
492,501,492,493,277
495,500,495,493,345
496,498,492,494,464
498,499,493,493,590
499,500,494,493,752
499,504,499,493,802
495,500,497,493,779
496,499,498,493,682
492,498,499,493,479
490,497,498,494,323
490,497,501,494,253
494,497,501,493,229
498,497,501,493,254
500,499,499,493,300
504,500,480,493,399
502,496,466,494,518
500,498,474,494,660
502,498,486,493,792
504,499,498,494,796
497,495,506,494,757
497,498,500,493,601
500,500,493,493,392
497,499,492,493,293
495,499,485,494,237
495,498,488,493,244
490,500,497,493,275
490,502,499,493,337
487,502,507,493,445
484,501,512,494,576
477,499,507,494,746
481,499,501,493,804
483,497,489,494,779
487,497,485,493,700
490,497,485,494,508
491,499,489,493,332
497,500,495,493,265
502,499,500,493,233
506,497,487,493,255
504,496,487,493,289
512,496,490,493,388
509,500,500,493,502
502,503,504,493,644
497,507,498,493,788
496,509,492,493,798
495,510,499,493,761
484,500,496,494,628
481,493,498,494,407
494,498,495,493,299
497,497,494,493,228
500,495,495,493,243
496,497,499,493,264
484,495,501,493,325
485,496,500,493,433
482,498,492,494,557
482,499,490,494,722
497,503,491,493,804
513,500,485,493,788
513,503,480,494,718
523,500,454,494,531
520,496,451,493,345
507,495,461,494,271
479,500,490,493,229
456,498,517,494,250
475,509,529,494,276
488,512,527,494,367
478,508,520,493,486
480,497,495,494,624
504,498,493,493,774
520,498,484,494,800
525,496,493,494,771
514,495,500,493,658
508,498,506,493,434
500,498,490,494,303
487,498,490,493,231
479,500,491,494,235
493,499,475,493,263
505,497,468,494,314
507,499,473,493,420
512,502,476,493,543
493,502,468,494,694
486,507,475,494,794
479,505,488,494,784
477,503,511,493,739
470,498,532,493,556
486,505,530,493,360
496,504,515,493,280
507,499,515,493,232
504,498,505,493,252
488,499,502,494,278
468,498,497,493,348
481,501,502,494,471
501,502,498,493,605
518,501,497,493,767
526,499,498,493,803
534,501,496,494,775
535,509,497,493,667
511,502,485,494,459
493,493,461,494,312
489,491,456,494,242
487,491,476,494,232
495,498,496,493,263
484,508,530,494,305
480,510,523,494,407
486,512,503,493,527
463,506,493,494,678
452,499,488,494,795
480,494,478,494,786
501,495,482,494,754
524,498,492,493,585
543,501,508,493,380
539,502,502,494,291
532,505,501,493,228
505,501,494,493,243
487,497,497,494,275
477,498,499,494,335
472,498,489,494,457
468,497,484,494,583
472,499,489,494,748
484,501,475,494,806
504,505,474,494,778
497,505,479,493,691
504,499,494,493,490
511,489,507,494,327
522,497,529,493,254
520,501,510,493,228
482,498,478,493,259
459,499,464,493,294
449,504,482,493,395
460,507,502,493,511
483,506,503,492,658
511,500,500,493,785
539,499,490,493,796
553,498,498,492,764
530,500,500,493,613
490,494,496,494,396
490,496,500,494,294
486,495,507,493,230
489,498,511,493,237
482,501,500,493,269
484,506,504,494,333
494,504,502,493,444
500,499,506,493,568
505,498,507,493,736
510,501,509,493,807
507,502,499,493,783
502,499,492,493,704
488,497,482,494,515
471,497,460,494,332
458,504,476,494,266
459,504,485,493,236
469,498,500,494,259
489,497,501,493,290
513,499,478,493,378
519,496,475,493,497
522,502,484,493,636
505,499,508,493,780
493,504,507,494,799
483,506,491,494,761
491,507,490,494,631
492,502,500,494,417
505,495,518,494,305
510,497,522,494,239
517,498,515,494,240
510,498,495,494,267
507,498,466,494,322
502,495,466,494,430
500,494,480,494,556
506,501,511,494,719
498,504,519,494,804
495,503,494,494,788
476,499,489,494,729
492,501,494,493,539
501,504,507,494,357
498,500,497,494,276
476,497,456,493,229
471,502,458,494,251
468,507,499,494,281
460,502,524,494,366
466,503,502,494,482
491,504,477,493,619
510,500,480,494,770
507,496,507,494,801
517,498,528,493,770
521,496,516,493,661
510,498,499,494,442
497,498,482,494,316
506,504,479,494,236
513,503,491,493,234
513,502,503,493,265
506,497,517,494,310
466,510,502,494,414
458,516,487,494,539
459,509,487,495,692
445,490,511,494,801
488,494,518,494,795
549,498,515,494,748
560,497,494,494,567
542,498,459,494,365
513,493,428,494,280
483,491,443,494,233
481,494,482,493,247
490,500,527,494,279
484,501,561,494,358
498,510,537,494,470
511,515,518,494,596
517,512,511,494,760
498,503,503,494,800
500,498,491,494,778
503,499,485,493,675
505,505,484,494,465
465,509,479,494,318
469,505,493,494,247
457,500,494,494,233
461,492,510,494,256
485,490,498,493,306
525,493,490,494,401
539,497,496,493,525
528,495,501,493,666
523,497,484,494,796
509,497,484,494,793
491,500,476,493,756
482,505,487,493,591
476,504,500,493,383
462,497,508,494,289
471,497,513,493,233
503,504,509,493,243
520,502,506,492,273
516,499,502,493,336
509,506,499,493,451
484,506,483,493,575
457,505,466,493,743
469,499,474,494,803
485,498,505,493,779
506,492,529,493,694
514,495,525,493,498
510,499,511,493,330
517,500,501,493,260
508,499,491,493,232
495,505,489,493,252
492,506,502,494,288
488,504,509,493,389
468,496,500,494,505
478,493,500,492,653
511,502,509,494,781
503,499,509,493,792
509,506,485,494,760
518,505,461,493,612
501,497,452,494,403
465,497,471,493,295
464,499,513,493,226
463,503,516,493,240
481,505,490,494,273
481,497,471,493,323
492,489,486,494,441
524,490,519,495,565
552,498,536,493,730
546,503,532,493,806
521,502,508,493,781
502,502,498,493,715
476,504,484,493,522
453,506,488,493,334
437,503,494,494,270
453,511,503,494,235
471,505,494,494,254
496,498,478,494,286
540,495,477,494,376
542,495,485,494,490
514,492,497,493,629
497,488,495,493,776
521,498,510,493,802
521,496,524,494,773
517,501,521,493,651
519,509,511,493,428
505,505,502,494,307
492,498,468,493,232
490,504,457,494,240
466,507,453,494,260
456,502,490,493,311
460,498,518,494,424
477,493,511,494,548
494,492,516,493,707
529,498,514,493,802
542,496,501,494,791
522,500,495,493,741
490,499,484,494,550
477,495,481,494,352
464,499,496,493,278
475,498,489,494,237
484,500,506,493,248
497,498,513,492,279
519,498,510,493,366
531,502,516,493,479
527,507,501,493,614
496,501,477,494,763
484,504,480,493,799
478,506,485,493,771
482,498,495,493,666
492,497,506,493,452
509,493,519,494,317
522,495,510,493,248
521,500,499,493,240
521,500,476,494,267
509,501,471,493,304
489,505,492,493,409
473,502,492,493,534
445,506,505,494,679
458,506,489,494,791
460,500,487,494,793
472,497,505,493,746
499,491,513,494,577
533,497,523,492,374
552,498,502,493,284
533,496,481,493,231
520,493,473,494,252
505,489,493,492,278
492,500,522,493,345
479,513,527,493,460
468,507,498,493,586
449,490,497,493,759
484,499,500,493,804
505,501,479,493,774
509,505,484,493,687
507,507,499,493,477
498,503,508,493,323
478,500,515,493,249
489,498,486,493,236
502,504,483,493,258
493,495,494,492,297
519,496,511,493,400
534,498,509,493,519
520,497,469,493,661
502,500,457,493,793
496,501,478,493,788
482,497,492,493,755
471,503,532,493,600
481,501,521,493,393
484,497,507,493,293
490,496,498,493,234
496,494,494,493,249
508,499,483,493,274
505,497,494,493,337
507,494,510,493,452
512,496,486,493,570
509,498,496,493,746
487,500,511,493,803
496,507,510,492,776
501,499,496,493,701
494,494,480,493,507
501,493,472,494,331
509,495,473,493,261
507,499,483,493,230
478,512,493,493,253
471,511,523,493,291
466,507,526,493,383
466,499,517,493,504
490,494,516,493,644
520,494,508,493,783
530,502,510,493,799
518,499,507,493,766
494,497,477,494,622
482,493,447,494,413
487,495,456,494,301
489,497,467,494,237
486,498,533,493,246
486,493,529,493,265
495,496,518,493,322
503,500,506,493,435
514,502,507,493,557
512,502,507,493,717
503,501,496,493,803
496,504,489,493,783
490,506,465,493,717
465,497,457,493,532
480,495,486,493,345
508,493,504,493,278
511,494,530,493,242
516,499,522,493,254
509,505,524,493,282
496,501,513,492,368
501,505,502,493,485
501,504,496,494,625
485,497,492,493,767
491,501,502,493,799
493,501,505,493,770
484,496,504,494,653
493,494,503,493,434
513,500,491,493,309
496,501,472,493,229
471,497,453,493,241
481,498,453,493,267
482,495,488,493,316
504,495,519,493,422
513,495,518,493,546
531,503,508,493,701
531,503,504,493,797
512,499,518,493,782
488,498,512,493,738
474,503,517,493,558
478,510,496,493,359
466,501,479,493,280
475,494,479,493,233
504,496,504,493,252
510,495,518,493,275
510,495,506,493,359
509,498,494,493,471
513,494,496,493,606
507,499,502,493,768
510,503,507,493,799
494,501,503,494,776
480,495,495,493,678
490,498,496,492,457
500,499,500,493,318
498,504,504,493,245
494,501,507,493,235
492,498,498,493,263
494,495,481,493,306
503,494,470,493,411
497,494,446,493,530
483,492,430,494,677
473,499,463,493,794
472,499,515,493,793
466,505,558,493,758
487,507,536,493,582
503,501,514,493,378
504,493,512,493,288
521,497,515,493,240
532,503,511,493,249
518,506,495,493,272
494,500,486,493,339
487,497,490,493,455
496,496,496,493,583
493,497,497,492,754
497,500,510,492,799
500,500,505,493,781
490,498,493,493,692
485,499,479,493,486
487,498,484,493,323
495,497,491,493,255
499,496,510,493,235
501,496,515,493,254
502,495,513,493,288
497,500,509,492,390
491,502,491,493,514
495,497,485,493,655
504,499,490,493,791
497,496,513,493,799
491,501,504,493,761
496,506,506,492,605
490,503,509,493,398
485,497,504,493,291
487,495,497,493,236
495,492,485,493,240
504,495,481,493,265
514,496,494,493,327
514,495,503,493,444
503,499,505,493,565
497,500,506,492,734
494,504,509,493,802
493,504,504,493,782
484,499,500,493,705
477,496,501,493,508
496,496,499,493,335
506,497,498,492,268
508,496,496,493,234
518,498,495,492,253
510,498,497,492,281
496,499,501,493,378
484,495,498,492,497
488,494,494,493,632
492,495,496,492,774
495,499,497,492,798
496,501,501,492,764
494,499,496,493,639
491,497,489,493,418
494,495,487,493,303
501,495,492,493,226
504,497,501,492,242
498,496,496,492,266
497,496,492,492,321
496,496,495,493,430
496,498,507,492,552
499,498,499,492,717
498,499,482,493,798
496,498,482,493,786
491,497,494,493,730
492,497,501,492,539
490,499,510,492,348
491,502,508,492,278
492,503,513,492,228
490,499,510,493,254
486,499,503,492,283
494,498,496,492,364
492,496,493,493,481
489,497,496,492,616
497,497,498,492,772
501,494,495,492,800
502,494,498,493,769
496,495,500,492,668
505,499,493,492,442
501,496,494,492,311
494,496,498,492,239
498,496,504,492,238
500,497,508,492,264
500,499,503,492,310
500,495,499,493,418
498,497,500,492,537
502,499,498,492,697
497,501,499,492,802
493,497,498,493,789
483,497,500,492,754
488,498,498,493,561
493,498,498,492,362
493,494,498,493,280
499,494,499,493,227
501,493,499,493,243
497,492,497,493,276
492,493,496,492,344
497,501,499,492,469
491,501,501,493,602
487,500,500,493,766
489,497,501,493,804
494,498,497,493,778
496,496,499,493,676
498,495,498,493,467
488,497,499,493,318
472,495,498,493,242
480,496,501,493,234
486,496,498,493,254
500,498,497,493,295
509,494,500,493,402
512,495,498,492,524
509,495,500,493,669
501,495,498,492,802
498,496,498,493,791
498,498,499,493,763
497,499,499,493,595
495,498,500,493,383
493,498,499,493,286
493,499,498,493,227
493,500,500,492,233
498,496,498,492,264
501,496,498,493,330
500,496,496,493,454
499,497,495,492,579
497,496,494,493,747
495,498,499,493,811
497,499,496,492,786
497,498,495,492,702
498,499,497,492,492
495,496,494,492,326
496,496,498,493,253
495,497,499,493,222
496,496,499,492,248
495,496,502,492,281
495,499,502,492,388
495,496,494,492,510
497,498,482,492,651
494,496,485,493,793
495,498,495,493,803
496,499,505,492,762
494,497,510,493,627
497,498,510,493,398
495,498,504,492,294
496,496,502,492,230
496,496,499,492,232
495,497,502,493,259
495,494,498,492,328
495,496,499,492,435
495,496,499,493,564
495,497,498,493,729
495,498,498,492,808
495,498,497,492,788
494,496,499,492,720
498,497,498,493,524
495,497,498,492,337
495,496,498,492,266
494,496,499,493,230
496,495,500,492,248
493,494,497,492,279
493,492,498,492,372
493,492,497,493,493
496,494,498,492,629
497,498,497,492,779
496,496,499,492,808
498,499,500,492,770
495,498,498,493,646
494,496,499,492,425
494,496,498,492,302
492,494,499,493,226
494,495,497,493,230
488,491,500,492,257
486,490,499,492,314
488,495,499,494,421
491,497,499,494,548
492,496,499,492,714
495,495,497,492,802
501,499,500,492,794
501,498,499,491,747
500,499,498,493,546
497,498,499,492,350
498,497,499,493,268
497,496,499,492,229
499,496,497,493,244
499,496,497,492,272
499,497,499,493,350
495,497,499,492,478
495,496,498,493,610
497,499,498,492,778
499,500,498,492,807
498,498,498,492,773
494,497,500,493,671
498,497,499,492,444
496,497,500,493,309
496,497,499,493,237
497,496,500,493,226
497,496,499,492,254
495,496,500,493,304
497,497,498,493,404
495,496,500,492,535
494,496,497,492,688
497,499,498,493,801
497,498,499,492,790
494,496,498,493,755
495,496,499,493,569
497,497,500,493,363
496,496,499,493,277
496,496,498,493,214
493,496,498,493,236
496,496,499,493,261
496,499,498,493,337
497,497,498,493,459
497,496,499,493,585
496,498,500,493,756
496,496,499,493,809
497,499,500,494,771
495,496,500,494,676
495,495,498,492,469
496,496,498,493,309
496,496,499,493,240
494,496,498,493,210
496,498,498,493,231
495,496,499,492,272
494,495,499,493,382
496,497,498,493,508
496,497,498,493,656
495,496,497,493,789
497,498,501,493,796
496,498,500,494,762
496,498,498,493,600
497,496,498,492,379
495,497,499,493,280
495,495,499,493,224
495,496,498,494,232
496,496,498,493,263
496,498,499,493,319
495,497,500,493,446
496,496,498,493,568
497,497,498,493,746
496,500,498,494,809
497,498,496,493,786
497,498,496,494,698
494,496,498,493,506
496,497,498,493,323
496,497,498,493,257
496,497,499,493,226
497,497,496,493,249
498,496,499,493,279
497,497,497,492,379
495,496,499,494,501
495,497,498,492,644
497,497,497,494,791
497,496,497,493,803
495,496,498,494,766
495,497,499,493,635
496,496,497,494,408
495,495,497,493,297
495,496,497,493,222
496,499,497,493,230
495,496,499,493,265
496,497,498,493,314
494,497,498,493,433
495,496,497,493,560
496,496,498,494,723
496,498,498,493,812
495,497,499,494,792
497,497,497,493,726
494,496,500,493,533
496,496,497,492,342
496,496,498,493,269
496,497,497,493,222
495,497,496,493,247
494,496,498,493,274
494,495,496,493,365
495,496,497,493,487
495,498,499,493,628
496,496,498,493,787
497,498,499,493,807
494,497,499,493,776
494,496,498,495,656
495,497,497,494,435
496,496,497,494,304
496,496,497,493,229
494,495,498,493,229
494,496,499,493,260
495,497,498,494,312
495,498,498,493,414
496,498,498,494,549
496,497,498,493,700
497,499,497,493,807
497,497,497,493,794
497,496,496,493,748
495,499,500,494,554
496,496,497,493,358
496,498,498,493,271
494,496,497,493,224
495,496,498,493,242
495,497,497,493,270
497,497,499,493,356
496,496,496,494,474
495,497,497,494,609
496,498,497,494,776
496,498,497,494,806
495,497,499,493,783
497,496,499,493,677
495,496,497,493,459
496,497,498,494,317
496,496,498,494,240
497,496,497,493,225
495,498,500,493,253
495,496,497,494,304
496,499,499,494,405
495,497,498,494,530
496,496,497,494,678
495,496,497,493,805
496,497,498,493,801
497,496,496,493,765
495,498,498,493,586
495,497,496,493,378
495,496,497,493,282
495,496,497,493,234
495,497,497,493,239
494,496,496,492,267
496,495,495,493,337
495,496,496,493,460
495,497,497,493,588
493,495,496,494,765
496,500,497,494,809
494,497,499,493,784
495,497,498,494,696
494,496,498,494,489
494,495,496,493,325
495,498,497,494,256
495,496,495,494,230
495,499,497,493,258
495,497,496,493,294
496,497,496,493,390
494,497,497,494,516
495,497,497,494,657
494,496,496,493,792
495,496,497,493,798
495,496,496,494,762
495,499,497,493,618
494,496,497,493,399
494,497,496,493,291
494,496,498,494,228
492,496,498,494,242
493,497,498,493,263
494,496,498,493,336
494,495,496,494,445
495,497,497,494,575
495,497,496,494,747
496,497,496,494,813
496,496,495,494,791
494,498,498,494,711
495,495,497,494,519
495,496,497,493,334
494,496,497,493,264
493,496,497,494,232
493,498,497,494,252
493,497,499,493,282
495,496,496,493,382
494,498,498,493,500
494,497,497,494,643
495,499,496,494,780
493,497,495,493,805
496,497,497,493,773
495,497,496,494,636
494,496,497,493,420
495,496,496,493,301
494,497,497,493,224
493,495,497,493,240
495,497,496,493,260
493,496,497,493,317
492,496,497,493,429
493,496,495,494,551
493,496,495,494,712
492,497,498,493,801
493,496,498,493,788
495,498,496,494,735
496,497,496,493,538
495,497,497,494,346
493,496,496,494,270
494,497,498,493,231
494,496,496,494,244
492,495,496,493,277
492,494,496,493,363
495,498,496,494,484
493,496,496,494,619
495,496,498,493,776
493,499,498,493,809
494,498,497,494,779
494,498,496,493,658
492,497,496,494,445
494,495,496,494,312
494,496,496,493,238
495,496,495,493,233
493,494,496,494,261
493,495,496,494,316
494,498,496,493,417
493,497,496,494,544
493,497,497,494,694
491,496,498,493,808
493,497,498,493,795
493,495,496,493,757
494,498,497,494,562
494,497,496,494,364
494,498,496,493,286
495,497,496,494,239
494,497,497,494,247
492,496,496,493,274
493,498,497,494,346
493,497,496,494,468
493,496,495,494,600
493,496,495,494,768
495,499,495,494,807
493,497,495,494,779
495,499,498,493,682
493,498,498,493,471
493,496,496,493,323
493,496,496,494,255
492,495,496,494,238
494,496,495,493,260
492,496,495,493,301
494,496,495,494,405
494,496,495,494,529
495,497,496,494,675
492,496,495,494,795
495,498,496,493,794
492,497,497,494,762
492,497,497,493,597
493,496,496,493,386
493,496,495,493,293
493,497,495,494,231
494,497,496,493,248
493,498,496,493,277
493,496,496,494,343
495,496,496,494,453
493,497,496,494,583
493,497,497,494,751
495,497,496,493,804
493,496,496,493,781
492,496,496,493,697
492,496,496,494,500
494,495,496,493,331
493,496,495,494,258
492,496,497,493,235
492,497,497,494,262
493,497,496,494,284
492,495,495,493,395
493,497,495,494,512
493,497,496,493,652
495,497,496,494,793
494,497,495,493,798
494,498,497,494,768
493,495,494,494,627
494,497,495,494,402
493,496,495,494,297
492,496,496,494,230
491,494,496,494,243
495,496,497,494,272
492,496,494,494,325
492,497,496,494,440
492,497,496,494,565
493,497,496,494,735
494,498,497,494,802
492,497,497,493,785
494,496,497,493,717
492,496,495,493,520
493,497,496,494,338
493,496,495,494,269
492,498,497,493,235
491,496,496,493,258
494,496,494,494,281
491,496,497,494,374
493,496,496,494,493
493,496,496,493,627
493,496,497,494,781
493,496,495,494,798
495,498,495,493,769
495,498,495,493,648
495,496,495,493,429
493,496,495,494,303
493,496,495,494,237
492,496,495,494,232
493,496,495,493,259
492,496,496,493,314
492,495,495,493,424
494,498,495,493,551
493,497,496,494,713
495,497,494,494,802
492,498,497,493,790
493,498,497,494,743
493,498,497,493,542
493,496,496,493,354
492,495,494,493,274
494,497,496,495,236
494,498,495,494,251
494,496,494,494,279
492,496,496,494,357
492,496,495,493,478
493,495,495,494,610
493,497,495,493,766
493,499,496,493,802
491,495,495,493,777
495,497,497,493,667
495,497,495,493,449
492,495,496,493,312
492,496,497,493,245
491,496,496,494,240
493,497,496,495,257
493,497,496,494,313
494,495,495,493,411
493,497,495,493,535
493,497,495,493,686
494,497,495,494,798
493,497,496,493,787
493,496,495,494,757
493,498,494,494,567
493,496,495,494,370
493,496,494,493,286
492,495,494,493,238
494,496,495,493,245
494,496,494,494,275
492,497,497,493,345
491,497,496,493,462
492,496,496,493,590
493,496,495,494,760
493,499,496,494,803
492,497,495,494,779
495,496,495,493,686
495,497,495,494,480
494,496,495,493,325
492,495,495,493,249
493,495,494,494,238
492,497,494,493,255
490,496,495,493,293
490,495,494,493,400
491,496,495,494,520
494,497,496,493,664
494,496,493,493,794
493,498,496,493,797
493,498,496,494,764
492,497,497,493,598
493,496,494,493,390
492,496,493,493,292
491,497,494,494,237
492,498,495,494,246
493,498,495,493,275
493,495,493,493,328
494,498,495,493,447
493,495,494,494,576
493,496,494,493,746
494,498,496,493,805
492,496,495,494,782
494,496,496,493,702
493,497,493,493,506
493,496,494,494,331
494,496,494,493,259
494,495,494,493,232
492,495,494,493,261
493,497,496,493,283
491,495,496,494,391
493,496,495,493,504
493,496,495,493,642
491,496,494,493,782
492,497,493,494,802
492,496,496,493,770
494,497,494,493,630
492,496,495,493,411
492,496,495,493,304
492,496,496,494,235
494,495,496,493,244
492,495,494,493,265
493,497,495,493,328
494,498,495,493,435
494,498,495,494,560
492,496,493,493,719
492,496,495,494,804
494,498,496,493,789
492,496,495,494,722
494,496,493,493,530
493,496,495,492,346
493,497,494,493,276
492,496,493,494,239
493,497,494,493,251
492,496,495,493,280
491,496,496,493,372
491,496,495,494,491
492,497,495,493,624
492,496,494,493,778
491,498,496,493,805
493,498,496,493,773
493,498,496,493,660
492,495,494,493,433
493,498,495,494,308
492,495,494,494,243
493,498,494,493,237
494,497,495,494,265
494,497,494,494,316
495,498,496,494,420
494,497,495,494,548
492,497,495,494,699
494,497,494,493,798
493,496,494,494,788
493,495,494,494,750
493,498,495,494,554
494,497,496,494,362
493,495,494,493,279
492,495,493,494,231
493,495,494,493,249
492,496,496,493,276
493,497,494,493,357
491,496,494,493,477
493,497,496,493,605
493,498,494,494,767
493,497,495,493,806
491,496,492,494,774
491,497,494,494,674
495,496,493,493,462
493,497,493,493,318
492,495,493,493,247
494,495,493,494,237
492,497,495,493,256
491,496,494,492,310
491,495,494,493,407
493,496,493,494,529
493,496,495,493,675
494,498,493,494,795
492,498,496,493,791
494,496,496,493,758
493,498,496,494,582
493,497,496,493,378
492,496,493,494,285
492,498,495,494,237
491,496,495,493,246
494,496,493,494,271
494,496,493,494,338
492,496,494,493,461
493,496,494,493,584
493,496,494,493,759
493,496,495,494,803
492,497,495,493,777
492,497,495,493,690
491,497,495,494,491
493,496,494,493,326
491,496,495,493,254
491,494,494,493,236
494,497,494,493,260
494,497,494,494,295
493,496,495,493,397
492,497,494,493,515
492,497,494,493,654
492,496,493,493,786
492,496,495,493,793
491,496,496,493,766
494,497,493,493,611
492,497,494,493,401
492,495,494,494,298
493,497,496,494,234
491,496,495,494,246
492,494,494,493,268
493,498,494,493,326
490,496,494,494,449
491,496,494,494,571
493,497,494,493,737
493,498,495,493,807
492,496,496,493,781
492,497,494,493,714
491,495,496,493,517
492,496,494,493,337
492,496,492,493,269
493,497,494,494,232
490,495,494,493,258
493,497,493,493,281
490,496,493,493,382
492,497,495,494,497
492,497,494,493,637
492,495,492,493,776
491,498,494,494,795
490,496,494,493,770
493,498,495,493,640
492,497,494,493,418
491,496,495,493,303
492,495,494,494,237
491,495,494,492,233
492,496,492,493,267
493,496,494,493,322
493,496,494,493,427
491,497,494,493,551
492,495,493,493,716
493,499,494,494,799
491,497,493,492,786
494,499,493,493,733
493,498,494,493,540
492,495,494,493,348
492,497,494,493,270
491,495,493,494,238
492,496,492,493,252
493,498,494,494,280
492,496,496,494,360
492,496,494,493,479
492,495,493,493,614
492,496,494,493,774
493,498,493,493,801
494,498,494,493,772
491,495,493,493,662
493,498,495,493,437
493,495,494,494,313
493,496,494,493,242
492,499,495,494,236
493,498,494,494,265
494,495,494,494,305
495,497,493,493,414
492,496,494,493,541
493,496,493,494,689
494,497,494,493,796
493,496,493,494,790
492,496,493,493,746
494,495,496,493,561
494,496,494,493,363
493,496,493,494,283
493,497,493,493,236
492,495,495,493,249
493,497,493,493,272
490,495,493,493,354
493,497,494,493,469
492,497,495,493,596
492,497,493,493,756
492,498,493,494,805
492,497,495,494,779
494,497,494,493,683
494,497,494,493,469
491,496,495,493,322
492,497,494,493,248
491,495,495,493,233
493,496,495,493,260
493,495,492,494,299
494,497,492,493,402
493,499,493,493,524
492,496,493,493,667
493,496,493,494,795
492,498,493,494,791
493,496,493,493,751
494,494,493,493,588
492,496,493,494,386
493,496,493,493,288
493,498,495,494,230
492,495,493,494,241
492,495,493,494,269
493,495,494,494,343
492,497,494,494,454
493,496,494,493,580
492,495,493,493,746
492,495,494,494,802
492,496,494,493,776
491,496,495,493,695
494,496,494,493,494
492,496,495,493,329
493,495,495,493,260
492,496,495,493,233
492,497,494,493,257
493,497,494,494,285
492,497,494,493,389
492,497,493,494,510
492,496,494,493,651
493,498,494,494,785
493,498,495,494,792
492,495,494,493,764
493,500,493,494,612
493,497,495,493,401
492,495,494,493,296
492,496,495,493,229
490,495,494,494,238
492,497,496,494,261
492,495,494,493,330
492,497,494,494,439
492,497,494,494,561
494,497,493,493,729
494,499,493,494,801
492,496,493,493,775
492,497,495,493,709
493,495,493,494,518
493,496,494,494,336
492,495,494,493,272
493,497,493,494,229
492,496,493,494,250
494,497,495,493,285
492,497,495,493,373
492,497,494,494,489
492,496,493,493,624
494,498,493,494,770
491,497,495,493,799
494,496,493,493,763
493,496,493,493,642
493,496,494,493,425
492,495,493,493,304
493,497,495,494,239
491,495,494,493,236
491,495,495,493,264
491,497,496,494,315
491,497,496,494,424
493,496,494,494,548
492,497,493,493,702
492,499,495,494,802
494,498,494,493,784
494,497,494,494,739
495,496,496,493,546
494,496,492,493,353
492,497,494,493,274
492,495,492,493,227
491,496,494,494,244
491,496,495,494,280
493,497,495,494,359
492,497,494,494,477
492,496,494,493,612
492,497,495,494,768
493,499,495,494,801
492,496,496,494,773
494,496,494,493,662
492,497,494,493,450
494,496,494,493,314
493,496,494,493,238
493,496,493,494,231
491,497,494,493,267
491,495,495,494,312
494,497,494,493,413
492,495,494,493,532
492,497,495,493,683
491,498,496,493,795
493,495,494,493,792
494,496,493,493,749
494,497,493,493,572
494,496,494,493,370
492,496,493,494,284
491,496,495,494,235
495,495,492,493,247
491,497,493,493,270
492,494,493,493,341
492,495,493,493,459
492,496,494,493,592
492,495,493,494,752
493,498,494,493,801
492,497,495,494,775
491,496,494,494,680
491,496,495,493,477
492,496,493,495,327
493,497,494,493,251
491,498,493,493,232
490,496,495,493,258
491,496,495,493,290
491,496,495,493,395
493,496,494,494,518
492,496,494,494,658
494,496,494,494,791
492,497,495,493,793
493,497,495,493,758
491,496,494,494,603
494,495,494,493,387
493,495,495,493,291
490,495,495,493,230
491,495,494,493,242
491,495,495,493,271
493,496,493,493,333
492,496,493,493,448
493,496,494,493,573
491,497,495,493,742
491,497,496,493,805
492,498,496,493,781
491,494,493,494,705
493,498,494,493,501
492,496,494,494,332
492,496,494,493,264
494,498,494,494,232
493,497,494,494,250
491,497,494,494,288
491,495,494,493,387
493,497,494,494,504
492,497,494,494,642
492,499,496,493,779
492,496,494,494,801
493,498,494,493,758
492,499,495,493,633
493,497,494,493,413
492,496,495,493,301
493,495,494,493,229
492,497,494,493,234
491,496,494,493,270
492,497,494,494,327
493,497,493,493,433
493,497,493,494,556
492,497,492,493,721
493,497,495,493,805
493,498,495,494,790
492,497,496,493,723
492,496,496,493,529
493,495,495,492,345
493,496,494,493,270
492,497,494,494,232
493,497,495,494,257
493,497,494,494,283
493,498,494,494,370
492,496,494,494,487
493,497,494,494,622
492,496,495,494,779
494,496,494,494,800
493,496,494,494,767
493,496,493,493,659
494,498,494,493,432
493,496,494,494,309
491,496,496,494,236
491,495,495,493,240
492,497,495,494,265
492,498,496,493,310
492,495,494,493,424
493,497,494,494,544
493,497,493,494,706
495,497,493,493,801
494,496,494,493,785
493,497,496,493,753
493,495,493,493,558
493,497,495,493,360
492,495,494,494,283
491,496,494,494,229
491,497,496,493,247
494,496,495,493,280
493,496,493,493,350
492,497,494,493,478
492,496,494,493,608
494,497,494,493,769
491,496,496,494,808
494,496,493,493,778
493,498,494,493,671
493,496,493,493,460
494,496,494,493,317
493,496,494,493,243
491,498,494,493,237
492,496,495,493,259
494,496,493,493,308
492,498,495,493,411
493,497,494,493,533
493,498,494,493,676
492,495,494,493,802
495,497,496,494,795
494,496,493,493,756
494,496,493,493,581
493,496,495,493,380
492,497,495,493,286
492,496,495,494,237
494,496,495,493,244
492,497,495,493,275
492,497,495,493,343
493,498,494,493,457
493,496,495,494,589
492,496,494,493,759
494,499,494,493,807
495,496,494,493,780
495,496,494,494,689
495,497,495,494,490
493,497,495,494,324
494,498,495,494,256
492,495,494,494,232
492,496,495,494,255
493,498,496,494,290
494,496,494,494,398
493,497,496,494,515
494,497,496,494,662
494,499,495,494,797
495,498,495,494,798
495,497,496,494,766
492,496,494,494,609
494,498,496,494,394
493,496,494,494,293
492,495,495,494,226
493,496,495,494,242
494,497,495,494,268
492,496,494,494,328
494,498,495,494,446
492,497,494,494,571
493,498,495,494,742
493,499,496,494,809
493,496,495,493,789
495,497,494,494,708
492,497,495,494,514
495,497,495,494,336
494,497,494,494,262
495,496,497,495,234
494,496,495,494,249
495,499,495,494,279
492,496,496,494,378
492,496,494,494,499
493,497,495,494,635
494,496,495,494,789
492,498,495,494,799
493,499,495,494,773
495,498,495,494,644
495,496,495,494,419
494,497,496,494,302
494,496,494,494,233
492,498,495,494,228
492,496,495,494,261
492,497,496,494,316
493,497,496,494,428
494,498,495,494,557
494,498,496,494,720
496,497,494,494,809
494,499,495,493,792
495,498,494,494,738
496,499,495,494,537
493,497,496,493,349
494,497,496,494,272
493,496,494,494,226
493,496,495,494,245
493,496,495,494,275
493,499,495,494,366
493,496,494,494,487
494,498,494,494,621
493,498,496,494,777
492,498,496,494,808
494,499,496,494,768
492,497,496,494,667
495,496,495,494,438
494,497,495,494,309
494,497,494,494,236
495,496,493,494,228
494,497,494,494,262
494,499,496,494,305
492,496,494,493,416
494,497,496,494,540
493,497,496,494,696
493,497,496,494,805
494,497,495,494,789
494,499,495,494,747
493,496,495,494,563
494,497,496,494,365
493,496,494,493,281
495,496,493,494,227
492,498,494,494,242
492,497,496,493,276
492,496,494,494,347
492,496,495,493,469
493,496,495,494,599
494,499,495,494,764
492,497,496,493,808
494,496,496,493,782
494,499,497,493,685
494,498,495,493,471
493,497,495,494,320
494,496,495,493,244
495,497,493,493,231
492,497,495,493,251
493,495,494,493,292
492,494,494,493,401
493,497,494,493,525
494,499,496,494,671
492,498,496,494,801
493,499,497,494,798
493,498,496,494,766
493,499,496,494,595
493,497,496,493,383
493,497,495,493,287
493,497,494,493,230
496,496,494,493,237
493,496,494,494,266
493,495,496,493,339
494,496,495,493,453
493,497,494,493,579
493,497,496,494,746
492,497,496,493,809
493,497,496,493,785
494,498,495,493,692
493,495,495,493,497
494,496,495,493,323
494,497,495,493,256
495,497,494,493,229
494,496,493,493,253
493,498,496,493,281
493,495,494,493,392
493,497,494,493,510
493,497,495,493,649
492,496,495,494,790
493,497,494,493,797
494,499,497,493,770
493,496,495,494,624
495,499,496,493,403
493,497,495,493,299
493,497,494,493,227
491,495,495,493,235
494,496,496,493,270
493,496,494,494,319
492,497,494,493,437
493,497,494,494,564
493,497,495,493,728
495,499,495,493,809
492,497,496,493,785
494,496,496,493,720
493,499,496,493,525
493,497,495,493,339
493,496,495,493,264
492,497,494,493,231
492,496,496,493,247
495,496,494,493,277
493,496,494,493,372
492,496,494,493,497
493,498,495,493,631
492,496,494,493,786
495,497,496,491,804
493,498,496,493,773
493,498,497,493,651
493,496,495,493,423
493,497,496,493,302
492,496,495,493,234
495,498,495,493,232
494,497,494,493,260
494,496,495,493,314
494,496,496,493,426
493,497,495,493,549
493,498,494,493,708
492,497,495,493,804
493,497,496,493,792
493,498,495,493,739
495,496,494,493,548
493,497,495,493,355
493,498,494,493,276
494,498,494,493,234
494,497,493,493,248
494,496,495,493,275
492,496,494,493,363
493,498,495,493,479
493,496,494,493,609
493,496,495,493,768
492,497,496,493,808
496,497,496,493,777
493,496,494,493,666
493,498,495,493,448
493,497,495,493,313
493,497,495,493,244
493,498,495,493,229
492,497,496,493,256
494,496,496,493,307
492,495,494,493,408
494,497,495,493,532
493,497,494,493,682
493,499,495,493,804
492,498,496,493,794
494,495,494,493,759
493,498,497,493,573
493,498,496,493,371
493,497,496,493,282
493,496,494,493,233
494,496,496,493,243
495,496,494,493,269
494,497,494,493,340
493,496,495,493,463
492,497,495,493,590
492,497,495,493,766
495,499,496,493,808
493,497,496,493,779
493,498,496,493,686
492,498,496,493,478
493,497,495,494,318
493,498,495,493,245
491,495,494,494,230
495,496,494,493,255
495,496,495,493,292
494,497,494,493,401
493,497,495,493,520
493,498,496,493,669
492,496,495,493,792
492,497,495,493,798
493,498,496,493,765
495,496,494,493,602
493,498,495,493,389
493,496,494,493,292
494,497,494,493,233
494,498,493,493,239
494,497,495,493,269
492,495,493,493,326
492,498,495,493,448
494,496,494,493,573
493,496,495,493,738
492,496,495,493,806
492,497,496,493,784
495,497,497,493,702
492,496,495,493,504
493,497,495,493,329
493,498,495,493,261
493,499,496,493,233
491,496,495,493,253
495,498,495,493,287
491,497,494,493,382
493,497,494,493,503
494,498,495,493,641
493,496,495,493,792
494,497,495,493,797
495,497,495,493,770
492,497,497,493,628
493,498,496,493,409
493,497,496,493,298
493,496,494,493,233
494,499,495,493,234
491,497,494,493,266
495,496,493,493,320
494,497,494,493,432
494,497,495,493,559
493,498,495,493,720
493,497,495,493,808
494,498,496,493,787
493,497,496,493,724
492,498,498,493,532
492,496,495,493,344
494,497,495,493,271
492,496,494,493,238
494,497,494,493,253
494,497,494,493,278
495,497,494,493,371
492,497,495,493,489
493,497,496,493,627
493,496,494,493,773
493,497,495,493,800
492,497,496,493,770
492,496,494,493,655
493,498,496,493,430
494,497,495,493,309
493,498,495,493,240
493,499,495,493,235
494,498,494,493,263
494,497,495,493,311
492,496,494,493,418
492,497,495,493,546
494,496,494,493,696
494,497,494,493,798
493,497,496,493,793
495,498,494,493,744
493,497,495,492,552
494,497,496,492,359
493,497,495,493,281
493,498,496,493,235
494,496,495,493,245
495,497,493,493,273
492,497,496,493,354
494,496,494,493,474
494,497,494,493,602
494,497,494,493,771
493,499,495,493,803
493,499,495,493,776
493,497,496,493,674
492,497,496,493,459
493,497,495,493,316
493,497,496,493,242
493,495,493,492,237
494,498,495,493,256
491,497,494,493,307
495,496,493,493,406
494,497,495,493,530
494,497,495,493,682
494,496,494,493,799
495,499,496,493,792
492,497,496,493,756
493,497,497,493,582
493,498,497,493,380
493,497,496,494,287
494,496,495,493,227
493,498,495,493,248
494,498,495,494,273
495,498,494,493,341
491,497,496,492,460
492,496,494,492,586
492,498,493,492,750
493,496,494,492,802
492,495,495,492,776
492,497,495,492,686
492,497,494,493,488
493,496,495,492,324
493,497,495,493,257
493,498,496,493,236
494,498,494,493,258
494,498,495,493,288
491,496,494,493,393
494,497,496,493,516
494,497,494,492,654
493,496,493,492,786
493,496,495,492,791
494,497,494,492,761
492,496,495,492,607
494,496,495,492,395
493,496,495,492,297
493,498,495,492,234
492,498,495,493,236
492,498,494,493,270
492,497,496,493,329
494,496,495,493,447
494,497,496,493,568
494,497,495,493,732
494,497,495,492,808
494,497,495,492,779
492,497,494,493,710
492,496,495,492,513
493,496,494,492,333
493,497,496,493,267
493,495,493,493,237
494,497,494,492,250
491,496,494,492,285
495,497,493,493,379
494,497,494,492,499
492,497,495,492,639
493,495,494,493,777
494,499,495,493,796
492,497,496,493,767
493,496,497,493,637
494,498,496,493,416
494,497,495,494,304
493,497,495,493,226
492,498,494,493,240
494,497,494,493,268
495,496,493,492,320
495,497,494,493,427
492,496,494,492,555
493,496,494,493,719
493,498,494,493,800
492,497,495,493,785
492,497,497,493,728
492,497,495,493,538
494,497,496,493,350
494,497,495,493,276
493,498,496,493,239
493,498,494,493,253
494,497,494,492,278
491,496,496,493,365
493,496,495,492,482
493,496,494,493,617
493,495,493,493,768
493,496,495,493,799
493,496,494,492,772
492,497,496,493,659
495,496,495,493,441
492,497,495,493,314
493,497,495,493,247
493,498,495,494,239
494,498,496,493,260
492,497,494,493,312
492,497,496,493,415
493,497,495,493,541
494,496,494,493,688
493,496,494,492,800
494,498,495,493,789
492,497,494,493,747
495,497,497,492,562
492,496,495,493,367
493,497,495,493,285
493,496,494,493,228
493,497,494,493,245
492,496,496,492,275
495,497,493,493,350
494,496,494,493,469
493,497,495,493,597
493,498,495,494,757
493,499,495,493,804
492,497,497,493,774
492,497,497,493,679
493,498,497,493,468
493,497,494,493,319
493,496,494,492,253
493,498,494,493,229
491,497,494,493,262
494,496,493,492,300
495,496,494,493,401
494,497,495,493,524
494,496,494,493,673
493,499,495,493,788
492,497,496,493,791
493,497,496,493,757
493,498,497,493,586
494,496,496,493,385
494,496,494,493,287
494,498,495,493,236
494,498,494,493,246
494,497,494,493,271
492,498,497,493,334
493,496,494,493,454
493,497,494,492,576
492,496,494,493,742
492,496,495,493,802
492,496,495,492,776
492,496,494,493,693
492,498,496,493,492
494,497,495,493,327
493,497,496,493,264
495,499,495,493,235
496,498,495,493,254
492,497,495,493,289
494,498,496,493,391
493,496,494,492,510
493,496,494,492,646
492,495,494,492,780
494,497,494,492,796
491,497,496,493,758
494,496,497,493,618
493,497,495,492,404
493,496,495,492,300
494,498,494,493,227
492,498,493,492,243
492,497,496,493,265
494,497,494,493,324
493,497,494,493,440
494,497,495,493,562
494,497,495,493,733
494,499,495,493,803
492,498,494,493,780
492,498,497,493,715
492,498,497,492,524
493,497,495,492,338
492,496,494,493,271
494,497,495,493,233
491,496,494,493,251
494,496,494,493,282
494,495,493,493,372
493,496,495,493,494
493,496,494,492,629
494,498,494,493,772
492,497,496,493,798
492,497,497,493,771
493,498,497,493,638
493,496,495,493,426
493,497,495,493,304
493,498,494,493,237
495,498,494,493,238
495,497,493,493,263
494,496,493,493,314
492,498,495,493,425
492,496,494,492,550
493,497,496,493,703
491,496,496,493,801
492,497,496,493,786
492,497,495,493,734
493,498,496,493,549
492,497,494,493,354
493,498,495,493,280
494,497,495,494,240
494,496,494,493,251
492,498,497,494,276
492,495,496,493,364
494,497,495,493,477
493,497,494,493,609
492,496,495,493,764
492,498,494,493,799
492,498,496,493,768
492,495,494,493,668
493,498,495,493,450
493,497,495,493,318
493,497,494,493,248
494,498,495,492,234
492,496,494,493,262
492,498,496,493,302
492,496,495,493,409
492,496,495,493,534
493,497,495,494,685
495,499,495,494,799
493,498,495,493,787
495,500,497,493,753
493,499,497,493,574
494,497,495,493,373
493,496,495,493,281
494,497,495,493,232
491,496,496,493,242
494,496,494,493,271
492,496,494,493,344
492,496,494,493,466
493,497,495,493,591
492,498,494,493,761
492,497,496,493,803
492,497,496,493,779
493,498,496,492,687
493,498,496,492,474
493,496,495,492,324
493,496,495,493,250
492,497,494,493,231
493,496,493,493,256
493,495,494,493,293
493,499,496,493,401
493,497,494,494,525
493,498,495,494,662
491,497,497,493,790
492,498,497,493,798
494,499,497,493,753
494,497,497,493,603
493,496,494,493,392
493,497,494,493,290
493,497,494,493,235
494,496,494,493,241
493,498,496,493,264
492,496,494,493,340
493,498,495,493,447
493,498,494,493,570
492,497,496,493,741
491,496,496,493,805
493,496,494,493,776
494,499,496,493,696
494,496,495,493,503
494,498,496,493,333
493,497,495,494,266
495,497,494,494,232
492,498,494,493,252
493,498,496,493,290
492,496,495,494,382
493,497,494,493,505
493,496,495,493,641
495,498,494,493,782
492,498,497,493,796
493,495,496,493,767
494,499,496,493,632
494,498,495,493,413
493,496,494,493,299
493,497,494,493,233
491,496,495,493,235
493,495,494,493,262
492,496,495,493,319
491,496,495,493,435
493,497,495,494,560
494,498,496,493,722
492,498,495,494,805
494,499,497,494,787
494,498,496,493,728
493,498,496,493,535
493,496,495,493,343
492,497,494,493,270
491,496,493,493,232
493,495,494,493,249
493,496,494,493,279
492,495,496,493,372
493,496,495,493,487
492,497,495,493,624
492,496,495,493,770
491,497,496,493,801
492,497,496,493,767
494,496,493,493,656
492,498,495,493,434
493,496,495,493,308
493,498,496,493,241
492,499,496,494,240
494,497,495,493,266
492,496,495,493,316
495,497,495,493,421
493,496,495,493,545
494,497,494,493,698
494,496,494,493,798
493,495,495,493,792
494,496,495,493,740
494,497,495,493,550
492,496,495,493,357
492,496,495,493,280
491,496,496,493,235
494,496,494,493,250
492,497,494,493,273
492,498,495,493,359
494,498,495,493,474
493,497,495,493,607
494,497,496,494,762
495,499,495,493,805
493,497,497,494,771
493,496,494,493,668
493,497,495,493,459
493,496,495,493,319
493,496,494,493,249
494,495,495,493,232
494,496,493,493,259
492,497,496,493,301
491,497,496,493,408
492,497,495,493,528
494,496,494,493,680
493,499,494,493,797
492,498,495,493,792
494,498,495,493,755
495,498,495,493,584
495,496,496,493,375
494,497,495,493,288
493,498,496,493,226
494,495,493,493,238
492,496,494,493,270
491,495,494,493,343
494,496,495,493,457
492,497,495,493,587
493,497,496,493,753
492,497,496,493,807
493,499,496,493,782
493,498,495,494,684
492,496,495,493,486
494,497,494,493,322
493,496,494,493,253
495,497,494,493,229
494,496,495,493,255
494,498,496,493,293
493,496,495,494,398
493,497,496,493,517
494,497,495,494,653
492,496,496,493,789
492,497,496,493,797
493,496,496,493,765
492,495,494,493,608
493,497,495,493,395
492,497,495,493,295
493,498,495,493,237
492,496,495,493,240
494,498,493,493,268
492,497,493,493,328
494,497,494,493,443
494,497,495,493,569
492,497,494,493,734
494,499,496,493,809
492,496,496,493,790
495,498,494,494,709
493,497,497,494,514
493,497,496,493,334
492,496,496,494,263
494,496,498,494,234
493,496,495,494,249
494,498,495,493,284
495,498,494,493,378
493,497,493,493,498
493,496,495,493,635
494,497,494,493,784
491,498,494,493,797
493,496,495,493,765
492,496,496,493,635
492,496,494,493,421
493,496,495,493,299
494,497,494,493,229
491,495,496,493,237
492,497,496,493,264
493,498,496,493,322
493,499,496,494,426
494,497,495,494,555
494,497,496,494,715
495,499,495,494,802
495,497,495,494,784
495,496,494,493,733
492,498,496,493,532
493,496,494,493,348
492,497,495,493,269
492,496,495,493,223
491,496,496,493,248
491,497,494,493,277
495,498,497,493,364
493,496,495,493,486
493,497,495,493,620
494,499,496,493,777
493,498,495,493,803
492,496,496,494,772
494,497,498,494,662
492,496,495,493,440
494,497,495,493,309
493,497,495,494,234
494,496,494,494,230
494,499,496,494,255
492,497,497,493,313
495,496,496,493,415
493,497,496,494,540
492,498,496,493,696
492,498,494,493,800
493,499,496,493,794
492,496,496,493,755
495,498,495,493,563
494,497,495,493,367
493,496,495,494,283
493,497,496,493,224
493,496,495,494,248
494,495,495,494,271
492,496,496,494,346
492,498,497,494,467
493,498,497,494,599
494,499,497,494,761
494,497,496,494,813
495,498,495,494,781
495,499,495,494,682
495,497,495,493,471
494,496,495,493,316
493,496,495,493,241
492,498,497,493,226
492,496,495,493,251
492,496,496,493,294
491,496,497,493,404
494,497,495,493,525
492,497,495,493,671
493,499,497,494,803
495,499,494,494,800
495,499,494,494,763
496,496,497,494,592
495,497,495,494,383
492,497,496,494,286
493,496,494,493,223
493,496,495,493,237
492,496,495,493,272
494,496,495,493,334
492,497,495,493,455
492,497,495,493,582
493,498,496,493,753
493,499,496,493,809
494,498,496,493,781
492,497,497,494,698
496,498,497,494,496
492,497,495,494,324
494,497,495,494,249
493,496,495,494,226
491,498,495,493,258
492,496,496,493,287
494,496,494,493,391
493,497,495,493,511
492,498,496,493,652
493,499,497,493,788
492,497,495,493,800
494,497,497,493,769
495,497,495,494,618
494,497,495,493,402
493,497,494,494,294
493,497,495,494,223
492,495,496,494,238
494,497,497,494,268
493,497,497,494,324
493,499,496,493,439
493,498,495,494,564
493,497,495,494,728
495,500,497,494,808
492,497,496,493,787
494,496,494,493,715
495,496,495,493,521
493,497,495,493,339
493,497,495,493,264
492,498,495,493,233
492,496,496,493,251
492,497,497,493,281
492,498,497,493,374
493,496,494,493,496
494,498,496,493,630
493,496,495,493,787
495,496,494,493,804
495,497,495,494,768
495,496,498,494,654
494,497,495,494,422
494,497,496,494,301
493,497,496,493,229
492,496,496,494,232
493,498,497,493,262
492,497,496,493,313
493,496,495,493,425
493,497,496,493,550
494,497,495,493,715
495,498,495,493,803
495,497,495,493,790
492,498,496,493,736
493,496,495,493,549
493,498,494,493,355
493,496,495,494,273
493,496,496,493,227
492,497,493,493,245
494,498,496,493,277
493,496,496,494,365
494,498,495,494,480
494,498,496,494,613
495,498,495,494,772
493,497,497,494,804
495,497,496,494,780
493,496,495,493,666
492,496,495,493,448
493,497,495,493,310
492,497,496,493,239
495,497,494,493,232
493,498,496,493,253
493,496,495,493,311
494,498,495,493,412
493,498,496,494,535
494,497,496,494,688
492,498,494,495,799
493,499,496,493,791
493,496,496,494,753
493,497,496,494,569
493,498,496,493,372
493,496,495,494,282
493,498,495,494,224
494,498,496,494,248
494,498,495,493,273
494,499,495,493,344
494,496,496,493,462
493,497,495,493,592
492,498,497,493,760
494,496,495,493,807
493,496,495,494,777
493,497,496,493,683
492,496,495,493,480
494,496,495,493,318
494,497,496,493,252
492,498,497,493,230
494,498,496,493,257
494,498,495,493,289
492,496,496,494,396
495,498,496,494,524
493,497,495,494,664
494,496,494,494,793
493,497,496,494,796
493,498,495,494,768
493,497,497,493,601
494,496,495,493,390
493,496,496,493,292
493,497,496,493,231
492,498,496,493,234
492,496,494,493,270
495,497,496,493,329
494,496,494,493,450
494,496,494,493,574
494,496,494,493,739
494,496,495,493,814
494,498,495,493,783
492,497,495,493,705
495,497,497,493,507
493,497,495,493,328
493,498,496,493,261
494,496,494,493,226
495,498,495,494,246
492,497,497,493,283
494,496,495,494,381
494,497,495,493,504
494,497,496,494,647
494,499,495,493,783
493,498,496,493,802
491,497,497,494,772
493,497,498,494,632
494,498,497,493,409
493,497,496,494,299
494,498,495,494,222
493,496,494,493,238
495,497,494,494,264
495,497,494,494,318
495,497,495,494,434
494,498,495,494,563
494,497,495,494,732
494,500,496,494,808
493,497,496,494,790
493,498,497,493,726
491,498,498,493,529
493,496,496,493,342
492,496,495,493,264
494,498,495,493,234
495,497,494,493,249
495,497,494,493,276
491,497,497,493,367
493,496,495,493,489
493,498,495,493,625
492,496,495,493,775
492,497,496,493,803
493,498,494,493,773
494,498,496,493,660
494,497,495,493,433
492,497,495,493,310
493,497,495,493,239
494,498,495,493,233
495,498,494,493,261
492,497,494,493,309
495,498,496,493,421
493,496,495,493,546
493,496,495,493,698
493,497,495,493,804
494,497,494,493,794
493,498,496,493,743
495,496,497,493,560
493,497,495,493,359
493,497,495,493,280
494,498,496,493,225
492,496,494,493,244
492,497,497,493,271
493,495,493,493,351
493,496,494,493,473
494,497,495,493,608
494,498,495,493,767
492,496,494,493,806
494,498,497,493,782
493,498,497,493,680
494,498,495,493,461
493,497,495,493,315
492,496,496,493,245
495,498,494,493,230
493,498,494,493,254
493,495,494,493,297
493,496,494,493,403
494,497,496,493,533
493,496,495,493,679
495,498,495,493,802
493,497,496,493,799
493,498,496,493,761
493,499,496,493,578
492,496,495,493,378
493,497,495,493,281
493,496,495,493,231
494,496,494,493,238
493,496,494,493,265
493,499,496,493,344
492,496,494,494,462
494,497,495,493,587
493,497,497,493,758
492,497,496,493,811
494,498,496,493,783
493,499,495,493,687
493,498,495,493,488
493,497,495,493,325
494,497,494,493,252
495,496,494,494,226
494,496,494,493,258
493,498,496,493,286
493,495,495,493,395
494,496,496,493,519
493,496,496,493,659
493,497,497,493,794
494,496,495,493,796
494,498,495,493,761
493,496,496,493,613
495,496,495,493,398
493,496,495,493,293
495,497,495,494,229
492,498,495,493,235
492,499,495,493,269
492,497,496,493,326
492,496,496,493,445
493,497,495,493,567
493,497,497,493,738
495,497,495,493,814
494,499,495,493,781
492,498,494,493,717
496,498,494,493,517
494,497,495,493,333
494,497,496,493,266
494,496,493,494,232
494,498,495,493,246
492,496,495,493,282
492,495,496,493,377
493,497,496,493,500
493,497,496,494,642
493,496,494,493,778
493,498,496,493,806
494,498,494,493,771
496,498,495,494,643
493,497,496,493,419
494,496,495,493,300
493,497,495,493,226
493,496,495,493,233
492,496,495,493,262
492,496,496,493,316
492,497,495,493,432
492,496,495,493,555
494,497,494,493,724
493,499,497,493,810
494,498,495,493,791
495,499,495,493,732
492,496,495,493,540
494,497,496,493,350
493,497,495,493,271
494,495,494,494,228
493,496,496,493,244
494,498,495,493,279
492,496,496,493,363
494,497,496,493,485
493,497,496,493,624
493,499,496,494,780
494,498,496,493,802
492,497,495,493,777
493,497,497,494,660
495,496,495,493,442
494,496,495,493,312
493,496,495,494,234
493,496,495,493,238
494,498,496,493,261
493,497,494,494,309
491,498,497,493,420
493,497,495,493,542
494,498,496,494,697
493,496,495,493,808
495,497,494,493,793
493,497,495,493,753
495,496,495,493,563
494,496,495,493,369
494,496,496,493,283
494,495,495,493,227
495,497,494,493,244
492,497,497,493,275
493,497,496,493,351
493,498,496,493,467
493,497,495,493,602
494,498,495,494,760
493,499,495,493,809
494,497,495,494,779
494,496,494,493,681
495,496,494,493,469
493,497,495,493,320
493,496,495,494,251
495,499,496,493,231
492,497,496,493,260
492,497,497,493,298
493,498,495,493,400
493,497,496,493,529
493,497,495,493,676
494,499,496,493,802
495,497,495,493,796
494,496,494,493,762
492,498,498,493,590
493,496,496,493,384
493,496,495,493,285
492,496,495,494,228
491,496,496,493,242
493,497,495,494,268
492,498,496,493,333
493,497,495,493,456
493,497,496,493,583
493,498,495,493,754
495,498,495,493,808
495,498,497,493,783
492,496,495,493,694
493,499,497,493,492
493,496,495,493,326
492,496,494,493,255
493,496,495,494,231
494,497,494,493,256
492,497,494,493,283
494,499,497,493,392
493,498,496,493,513
493,498,495,494,653
495,496,495,493,785
495,497,495,493,801
494,498,496,493,760
494,497,495,493,616
493,496,495,493,404
493,497,494,493,297
494,498,496,493,228
491,497,494,494,236
492,498,497,493,267
493,498,497,493,329
493,498,495,493,438
493,497,495,493,560
493,497,495,494,737
495,498,496,493,806
493,497,495,493,783
493,495,495,493,717
494,496,495,493,522
493,498,496,493,339
493,496,495,493,270
495,498,495,493,229
492,497,497,493,254
492,497,497,493,283
492,498,496,493,368
493,497,496,493,498
494,497,495,493,629
495,499,495,494,782
495,497,494,493,802
495,496,494,493,767
494,499,497,493,643
493,496,495,493,427
494,497,495,493,302
493,497,496,493,231
492,496,496,493,237
492,497,497,494,264
492,496,495,493,311
493,498,496,493,422
494,497,495,494,552
494,498,495,493,713
495,499,495,493,804
495,497,494,493,789
493,498,495,493,739
494,499,496,493,548
493,496,496,493,354
493,496,495,493,277
492,496,496,493,228
495,497,495,494,250
492,497,497,493,274
493,495,496,493,363
494,498,496,493,480
493,497,496,493,615
495,498,496,494,767
493,498,496,493,806
493,498,497,493,772
493,497,495,493,664
493,496,495,493,453
493,496,495,493,313
493,496,496,493,245
495,498,496,494,237
493,496,494,494,257
493,499,497,493,310
493,499,496,493,413
494,498,495,493,535
494,497,496,493,689
494,498,495,494,802
494,498,494,493,788
494,497,495,493,752
494,496,495,493,572
493,497,496,493,373
494,496,495,493,284
494,497,494,494,226
492,497,497,494,246
492,498,496,493,276
493,498,496,493,338
493,497,495,493,465
493,497,495,494,591
493,498,494,494,760
496,498,495,493,804
494,496,495,493,777
493,496,495,493,681
494,499,496,493,478
493,496,495,493,324
494,497,496,493,248
492,496,497,493,234
492,497,497,494,260
493,498,495,493,287
493,498,496,494,403
493,496,495,493,523
494,498,495,493,665
495,498,494,494,796
495,496,494,493,798
493,499,497,495,758
492,496,496,493,606
494,497,496,493,388
493,496,496,494,291
493,497,496,493,229
492,496,495,494,237
492,498,496,493,267
492,496,495,493,335
494,498,496,493,450
493,497,496,493,576
494,497,495,493,746
496,498,497,493,807
493,497,495,493,779
494,498,495,493,696
493,496,496,493,504
493,496,495,493,330
493,496,495,493,261
495,497,494,493,232
493,498,495,493,249
494,499,496,493,288
493,499,496,493,386
494,497,495,493,507
494,497,495,493,640
495,498,494,493,787
493,498,496,493,795
494,497,495,493,762
493,496,495,493,629
492,496,495,493,412
494,498,496,493,298
493,496,494,493,232
492,498,496,493,240
494,499,496,493,269
494,499,496,494,327
494,498,495,493,429
493,497,496,493,561
493,497,496,494,724
493,498,494,493,801
494,496,495,493,784
493,495,496,494,723
494,499,496,493,534
493,496,495,493,346
494,496,495,493,270
493,497,498,494,234
493,499,496,493,255
493,498,496,493,275
493,496,495,493,371
494,497,495,494,489
494,498,495,493,623
494,497,494,493,775
494,496,495,494,800
495,499,496,493,768
492,497,496,493,659
496,497,496,493,431
494,497,496,493,306
492,497,496,493,239
492,497,497,493,239
494,496,495,494,256
495,498,495,493,309
493,497,496,494,419
494,498,495,493,546
494,497,495,493,700
495,497,495,493,803
494,499,495,493,787
493,498,495,493,752
493,497,497,493,554
493,497,496,493,362
493,496,495,493,282
494,496,494,494,233
494,498,497,493,245
492,496,495,493,276
495,498,495,493,354
495,497,495,493,475
494,496,495,493,604
493,497,494,494,763
493,499,495,493,802
493,497,496,493,772
493,497,497,493,673
492,497,496,493,461
493,497,495,493,316
494,497,497,493,248
493,496,494,494,227
494,499,495,493,261
494,498,495,493,305
495,498,494,493,405
494,497,496,493,530
494,497,494,493,681
493,498,494,494,794
493,497,496,493,791
492,496,496,493,756
493,496,495,493,584
