Sensor0,Sensor1,Sensor2,Sensor3,Sensor4

494,498,497,494,282
494,498,495,493,350
495,497,495,46,496
494,493,256,494,499
496,493,275,493,496
495,493,343,493,496
495,493,457,495,497
496,8,493,239,496
496,494,493,256,494
499,496,493,275,493
496,495,493,343,493
496,495,493,457,495
497,496,493,581,495
497,497,494,747,492
497,495,493,790,495
499,497,493,771,495
499,495,493,687,496
499,495,493,487,495
496,496,493,331,495
497,494,493,263,494
498,494,494,236,494
496,495,494,262,494
496,495,493,294,493
495,495,493,399,495
497,496,493,516,495
498,495,494,650,494
499,498,493,783,494
499,497,493,789,495
499,496,493,755,496
500,496,493,603,493
497,495,492,402,495
496,496,493,299,495
497,495,493,238,496
495,495,494,248,494
496,495,494,273,495
500,496,494,332,493
496,495,494,448,495
498,496,493,564,494
498,497,494,728,493
498,498,494,799,495
499,495,493,767,493
499,495,493,709,493
496,497,493,513,495
498,496,493,340,494
496,495,494,275,495
496,494,494,243,494
499,496,493,258,493
496,495,493,296,495
496,496,494,381,494
497,496,494,501,493
497,496,493,631,493
498,497,494,772,495
496,496,493,795,495
499,495,494,754,493
497,496,493,638,496
498,495,493,424,494
496,495,494,309,495
497,497,494,244,492
496,495,494,243,495
498,495,494,267,493
496,497,494,323,492
497,496,493,432,493
497,495,493,551,494
497,495,493,708,493
500,494,494,791,494
500,496,493,780,496
499,495,493,731,497
498,495,493,541,496
497,496,493,355,495
497,495,493,285,493
498,497,494,233,493
496,496,493,255,492
496,496,493,287,493
496,497,493,367,493
498,495,493,483,494
497,496,493,615,494
496,494,493,770,495
500,495,493,797,496
498,494,493,765,497
497,494,493,656,493
498,497,493,448,494
496,496,493,318,494
497,495,493,244,494
495,494,493,242,492
496,496,493,270,493
498,494,493,316,492
498,497,493,419,494
497,495,493,539,494
498,496,494,687,494
499,496,493,795,495
498,495,493,780,493
498,495,494,741,497
498,498,493,566,495
497,495,493,370,494
496,495,493,289,493
496,495,494,235,493
497,496,493,256,496
498,494,493,286,493
497,494,493,349,495
498,496,493,470,494
498,496,494,595,494
498,496,494,757,495
497,496,493,794,496
497,494,493,770,494
498,497,493,671,494
497,495,493,473,494
496,495,493,327,494
496,495,493,260,494
499,496,493,240,492
496,494,494,266,493
498,496,493,306,493
499,496,493,405,494
498,496,493,523,494
498,495,493,661,496
499,495,493,784,493
498,494,493,781,495
497,495,493,746,495
496,495,493,592,494
496,495,493,392,494
498,496,493,299,493
496,496,493,244,496
497,494,493,251,493
498,497,494,281,493
498,497,494,343,494
498,496,493,449,494
497,496,493,576,494
497,496,494,734,496
499,495,493,794,495
496,495,493,769,495
496,494,493,690,494
500,496,493,499,494
496,495,493,337,495
497,496,493,266,493
496,496,493,241,492
497,496,493,267,493
498,494,493,289,493
499,496,494,393,493
497,495,495,508,495
498,495,494,641,496
498,494,493,780,495
496,494,493,788,495
497,495,493,758,494
500,495,493,619,494
498,496,493,412,493
497,495,494,304,492
496,497,493,239,492
497,497,494,251,494
496,494,493,279,494
498,496,493,326,492
496,495,493,440,494
498,495,493,561,494
498,495,493,719,496
498,498,493,796,494
497,495,493,771,494
499,496,493,709,493
496,496,493,526,494
496,495,493,347,493
496,495,493,280,496
497,494,494,240,493
498,495,494,259,494
499,496,493,293,494
499,496,493,379,494
497,495,493,494,494
498,495,493,619,493
498,497,494,769,496
497,494,493,795,495
499,495,493,755,492
496,496,493,645,493
496,496,493,435,494
497,496,493,316,495
497,497,493,249,496
496,495,493,246,494
499,496,494,275,494
498,495,493,326,496
497,494,493,422,494
497,495,493,546,495
497,496,493,694,493
497,494,493,786,494
496,495,493,774,494
497,496,493,733,493
499,495,493,552,493
496,496,493,364,494
496,495,493,288,494
499,497,493,243,494
499,496,494,261,495
498,495,493,289,496
499,496,493,357,492
497,495,493,477,494
498,496,493,601,495
498,495,494,754,495
496,497,494,791,495
497,496,494,766,497
500,497,494,664,494
498,496,494,462,496
498,496,494,321,494
498,497,494,259,493
498,498,494,248,494
496,495,494,265,495
499,495,493,309,492
496,496,494,413,495
499,496,493,530,495
498,495,494,671,496
499,495,494,784,494
499,495,493,779,495
499,496,493,749,495
496,495,493,574,494
496,495,493,380,494
496,495,493,296,493
496,496,494,245,496
498,495,493,257,493
497,494,493,280,494
499,497,494,351,494
499,496,494,462,494
497,495,494,581,495
497,496,494,740,496
500,495,494,794,494
499,497,493,761,494
497,496,494,676,493
496,496,493,488,494
496,495,493,335,494
498,496,494,265,492
497,495,493,244,493
498,498,494,270,493
499,497,494,304,493
499,496,494,400,494
497,494,493,512,494
499,495,494,646,493
496,496,494,781,495
499,495,494,781,494
498,495,494,751,496
498,495,493,611,496
497,496,493,400,494
496,495,493,305,493
497,497,494,244,496
497,494,493,252,495
496,494,493,282,495
497,494,493,335,492
497,495,493,447,494
496,495,493,564,495
497,494,493,722,495
498,494,493,790,495
496,495,493,766,494
499,497,493,696,495
496,494,494,518,494
497,494,493,338,495
497,495,493,274,494
495,493,493,243,492
496,495,493,271,495
496,496,493,293,495
498,494,493,383,493
497,495,493,494,494
497,495,493,627,493
497,496,493,766,493
499,496,493,781,494
497,496,493,756,495
496,495,493,628,495
498,496,493,423,493
497,496,494,313,495
499,495,493,251,493
496,496,493,251,495
496,494,493,281,493
498,495,493,325,494
496,494,493,430,495
497,495,493,550,494
496,495,493,705,494
497,495,493,785,496
498,495,493,771,493
498,497,493,720,493
498,498,493,539,494
496,496,493,356,495
498,495,493,288,493
498,494,493,243,493
499,495,493,267,495
499,495,493,293,495
499,495,493,372,495
498,495,493,482,494
497,496,493,609,495
498,494,492,758,493
498,495,493,783,495
497,495,493,754,493
496,494,493,652,494
496,496,493,450,494
496,496,493,321,494
497,494,493,252,492
496,497,493,250,492
497,497,493,279,493
498,496,493,315,494
496,496,493,421,493
498,495,493,534,494
498,495,493,680,496
499,495,493,783,495
497,494,493,773,495
499,497,493,741,494
497,494,493,566,495
498,495,493,372,494
496,495,493,293,493
497,497,493,244,492
497,497,493,265,494
498,494,493,284,494
499,496,493,360,493
496,495,493,470,494
498,496,493,590,495
498,494,493,750,496
498,494,493,789,493
499,497,493,756,494
496,497,493,675,495
496,496,493,470,493
497,495,493,326,493
496,496,493,263,493
498,494,493,247,493
498,497,493,272,494
496,494,493,314,494
500,496,493,407,494
498,496,493,525,494
499,494,493,653,492
497,495,493,777,495
498,497,493,780,495
497,495,493,738,494
497,495,493,589,493
496,496,492,394,494
497,495,494,302,496
499,495,493,244,492
497,494,493,257,494
499,497,493,288,494
499,496,493,348,494
499,495,493,454,494
497,495,493,567,495
499,495,493,730,493
498,497,493,783,496
497,494,493,758,493
497,496,493,684,493
496,496,493,502,495
498,496,493,335,493
497,495,493,276,493
497,497,493,249,493
499,497,493,273,493
499,496,493,303,494
496,494,493,394,494
499,496,493,504,494
497,495,493,637,496
499,495,493,771,495
498,495,493,779,495
497,495,493,745,494
499,498,493,622,494
497,495,493,415,494
497,496,493,307,493
497,496,493,242,492
497,497,493,259,493
497,497,493,280,495
497,497,493,339,493
496,495,493,438,494
498,495,493,555,494
498,494,493,712,495
499,494,493,783,494
499,496,493,760,494
497,495,493,712,494
500,495,493,522,494
497,496,493,347,493
496,496,493,285,492
496,494,493,253,495
498,497,493,271,494
496,494,493,300,493
499,496,493,379,494
498,496,493,487,494
499,495,492,616,495
499,494,493,753,493
498,495,493,782,495
498,498,493,754,495
497,495,493,639,495
497,495,492,435,494
497,495,493,318,494
498,496,493,248,492
496,495,493,259,495
498,496,493,278,492
497,496,493,325,491
497,496,493,426,493
496,495,494,542,495
498,497,493,689,494
497,494,494,785,495
499,495,493,771,495
500,495,493,731,496
499,495,493,549,494
497,495,492,363,495
497,495,493,293,493
496,494,494,243,493
497,496,493,260,492
496,497,493,291,492
496,495,493,363,495
498,495,493,472,493
497,496,493,597,495
497,497,493,751,493
499,496,493,785,494
499,495,493,759,496
499,495,493,655,493
499,495,493,461,493
497,495,493,327,495
497,494,493,260,496
499,495,493,251,495
496,494,493,279,493
499,496,493,312,493
496,496,493,415,494
497,494,492,524,494
498,495,493,660,493
497,495,493,776,493
499,494,493,774,493
498,498,493,736,496
498,494,493,577,494
497,496,492,380,493
498,497,492,301,494
499,496,493,253,493
498,495,493,258,492
499,494,493,288,492
497,497,493,347,494
497,495,493,457,493
498,495,493,575,493
496,495,493,740,494
500,495,493,780,493
497,494,493,760,496
498,496,493,675,493
498,497,492,486,493
496,495,493,334,493
497,494,493,266,493
499,498,493,247,492
496,495,493,278,495
499,494,493,308,495
498,494,493,399,494
497,495,493,510,493
497,494,493,641,496
498,497,493,771,494
497,494,492,772,494
497,495,493,739,493
497,495,493,603,493
496,495,492,404,494
497,495,493,305,492
497,494,493,250,496
497,496,493,259,493
498,497,493,287,493
498,496,493,342,494
496,495,493,441,493
498,495,493,561,492
497,495,493,721,497
499,495,493,781,495
497,495,493,760,495
496,494,493,699,494
499,495,493,510,493
497,495,493,343,494
496,495,493,276,493
496,495,493,248,492
498,496,493,271,495
496,494,493,300,492
498,497,493,382,494
497,496,493,495,494
499,496,493,626,494
501,496,493,766,495
498,494,493,781,496
498,496,493,749,495
497,494,493,632,494
498,496,493,419,494
497,495,493,309,494
496,495,493,245,493
495,496,493,257,495
497,497,493,281,493
496,494,493,328,493
499,496,493,432,493
498,494,493,549,495
498,496,493,703,493
496,495,493,782,496
498,495,493,770,493
499,494,493,716,495
496,495,493,533,494
497,496,493,360,493
497,495,493,291,496
497,495,493,244,495
497,494,493,269,493
498,496,493,294,494
499,497,493,371,493
499,496,493,481,494
497,496,493,603,493
497,495,493,759,496
498,497,493,785,496
497,495,493,751,495
497,495,493,651,494
497,495,493,449,494
497,495,493,320,493
498,496,494,261,495
498,496,493,252,493
498,497,493,278,492
498,497,493,323,492
498,494,493,416,494
499,496,493,534,494
497,495,493,681,495
500,495,493,781,496
498,494,493,771,496
497,494,493,739,493
499,497,493,558,493
497,496,493,374,494
496,495,493,293,493
497,496,493,241,492
497,497,493,264,493
497,497,493,293,495
496,494,493,358,493
498,496,493,466,493
497,495,493,589,494
499,496,493,747,495
499,495,493,787,495
499,497,493,760,493
497,495,493,665,493
499,496,493,470,493
497,495,493,325,494
497,495,493,262,492
495,495,493,251,496
497,494,493,273,493
498,495,493,309,494
498,496,493,407,494
498,496,493,520,493
498,496,493,658,494
496,495,493,772,496
499,495,493,778,492
498,497,493,740,496
497,495,493,585,494
497,495,493,393,493
497,495,493,300,493
496,495,493,251,495
497,496,493,257,495
496,494,493,284,494
498,497,493,344,493
499,496,493,452,494
497,496,493,568,493
497,495,494,735,495
501,496,493,788,493
497,494,493,760,495
497,495,493,684,494
496,495,493,501,494
498,495,493,339,494
497,496,493,274,495
497,495,493,247,493
497,497,493,270,493
498,497,493,302,493
498,497,494,388,494
497,495,493,503,494
497,495,493,634,495
499,495,493,773,495
498,495,493,777,495
497,495,493,747,493
497,494,493,623,495
499,496,493,408,494
497,496,493,311,495
497,496,493,239,492
496,496,493,254,492
497,496,493,283,493
497,494,494,328,494
499,496,493,437,493
497,495,493,559,494
498,495,494,715,495
499,495,494,788,495
497,494,493,770,494
499,495,493,706,495
499,498,493,531,493
496,495,493,347,494
496,496,493,280,492
496,496,494,244,495
496,494,493,266,493
498,496,493,290,494
496,495,493,381,495
498,495,493,489,493
499,496,493,619,495
498,494,493,766,496
498,496,493,787,495
497,495,493,759,494
499,497,493,639,494
497,496,493,432,493
497,495,493,315,493
496,496,494,253,497
498,497,493,248,493
496,494,494,273,494
499,496,493,326,494
501,496,493,423,493
498,496,493,544,494
497,496,493,693,496
499,495,493,788,493
498,495,493,771,494
496,495,493,725,494
496,495,493,548,493
496,495,493,365,494
497,496,493,287,495
497,495,493,243,492
498,497,493,261,493
499,497,493,288,494
499,496,493,363,494
499,495,493,470,494
497,496,493,598,495
497,496,493,753,496
498,494,493,785,495
497,495,493,756,493
497,494,493,661,496
499,495,493,456,494
497,495,493,325,494
496,496,493,255,492
497,497,493,245,493
499,497,493,273,494
498,495,493,306,493
499,495,493,412,493
496,495,493,530,495
497,494,493,666,496
498,494,493,783,494
497,495,493,783,494
499,495,493,740,493
497,496,493,580,495
496,495,493,380,494
496,496,493,294,493
497,497,493,240,491
498,496,493,259,494
495,494,493,286,495
499,495,493,344,492
496,495,493,462,494
497,495,493,579,495
497,494,493,742,496
497,496,493,795,494
497,496,493,761,496
498,495,493,677,493
497,497,493,485,494
497,496,493,329,493
497,497,494,264,495
496,494,494,245,494
499,495,493,263,492
498,495,494,305,495
498,494,493,396,495
497,495,493,513,494
496,495,493,648,495
497,494,494,781,495
499,496,493,782,493
497,496,493,747,493
496,497,493,604,492
497,496,493,401,493
496,495,493,301,495
498,497,494,241,494
496,494,493,254,495
499,496,493,279,495
499,495,493,337,495
497,495,493,443,494
497,495,493,563,494
498,497,493,727,493
497,494,493,788,493
497,496,493,766,493
497,496,493,698,493
499,495,493,515,494
497,496,493,338,494
496,494,493,275,494
499,497,494,244,495
499,495,493,264,494
498,495,494,289,492
496,494,493,381,495
498,495,493,497,494
497,495,493,626,494
497,494,493,766,494
498,496,493,786,492
497,496,494,759,496
499,495,493,633,493
497,495,493,423,494
496,496,494,310,493
498,496,493,245,493
499,496,493,250,495
496,496,493,270,496
498,495,493,324,492
497,496,493,430,495
497,495,493,547,494
497,495,494,699,493
496,495,493,794,496
499,496,493,773,493
498,495,494,728,493
497,497,493,539,494
497,497,493,354,493
498,496,494,286,493
495,494,493,245,495
498,495,493,257,492
496,494,493,288,495
497,494,493,366,495
497,495,493,482,494
497,495,493,608,494
499,496,493,768,493
498,497,493,794,496
498,494,493,763,493
499,498,493,658,493
498,497,493,447,493
496,495,493,317,494
496,495,493,253,494
495,495,493,242,496
496,494,493,270,495
497,495,494,312,495
496,495,493,416,493
498,495,494,534,494
497,496,493,684,495
499,496,494,790,493
498,496,493,780,493
498,497,493,744,493
499,495,493,561,494
498,496,493,371,493
496,495,494,292,495
497,495,493,244,496
497,495,493,251,495
496,495,493,281,495
496,494,493,356,494
499,494,493,465,494
497,495,493,593,493
497,496,494,747,493
497,497,493,794,493
498,498,493,769,494
496,495,492,676,494
500,496,493,471,493
496,495,493,327,494
498,495,494,259,496
499,494,494,240,495
496,496,493,269,493
496,495,493,298,493
499,495,494,404,493
497,495,494,521,494
497,496,493,656,492
498,497,494,785,495
497,495,493,786,494
500,495,493,745,494
500,495,493,596,496
498,495,493,390,494
499,496,493,298,495
497,495,494,244,493
498,497,494,247,494
497,495,494,284,495
499,495,493,336,493
497,495,494,451,494
498,495,493,571,493
497,495,494,741,496
497,497,493,794,494
497,495,494,776,495
499,497,493,696,494
500,497,493,502,494
498,496,493,332,493
496,495,493,270,496
498,496,493,239,492
496,494,493,262,495
495,494,493,289,493
496,495,493,386,492
497,496,493,508,493
497,495,493,641,495
499,496,494,777,493
499,497,493,789,494
499,497,494,757,495
499,498,493,626,494
498,495,493,407,494
497,496,493,303,492
496,497,494,240,496
497,494,494,243,495
496,495,493,272,494
496,494,493,335,495
499,495,493,435,494
498,495,493,561,494
497,496,493,715,493
498,498,493,794,494
499,497,493,777,495
496,494,494,709,496
499,495,493,523,495
497,494,493,345,495
497,494,493,277,496
497,493,494,240,494
496,495,493,266,492
498,496,493,284,492
500,497,493,378,491
496,495,493,492,493
497,496,493,620,492
497,497,494,766,493
499,497,493,788,494
496,494,493,762,496
500,495,493,644,494
498,495,493,435,495
498,495,493,313,495
497,496,494,246,496
498,497,493,248,493
496,495,493,276,495
498,496,493,320,492
496,496,494,424,494
497,496,493,543,493
497,497,493,694,496
497,496,494,793,495
497,495,493,776,496
499,493,493,740,497
500,494,493,551,496
497,496,493,364,493
496,496,493,286,495
497,495,493,242,493
498,497,493,256,493
495,496,493,283,493
496,496,493,360,493
497,495,493,474,493
497,493,494,600,494
498,495,493,756,495
496,493,493,797,495
499,495,494,766,496
499,498,493,670,496
498,497,493,460,494
496,497,493,323,495
498,498,493,257,494
496,495,493,239,493
496,495,493,267,493
496,496,494,308,496
498,494,493,412,494
497,495,493,530,495
498,496,493,674,494
499,498,493,788,495
500,496,493,781,496
499,496,493,745,493
498,494,493,578,493
498,496,493,380,494
497,495,494,293,494
496,495,493,236,495
496,496,493,251,492
496,496,493,287,495
497,496,494,344,493
497,495,493,462,495
497,496,493,583,495
499,496,493,746,494
501,497,493,796,494
497,497,493,768,496
498,495,493,680,492
497,494,494,487,495
496,494,493,327,495
498,494,494,261,494
495,496,493,245,495
495,493,493,263,496
498,490,493,300,493
497,492,494,399,494
498,494,493,512,493
498,496,493,645,493
496,495,493,783,496
499,498,493,783,494
498,497,493,752,495
497,495,493,605,495
497,496,493,400,494
497,497,493,302,493
498,496,493,234,493
496,495,493,254,495
498,495,493,279,494
497,497,493,336,494
498,496,493,444,494
497,496,493,565,495
498,497,493,730,494
496,496,493,798,497
500,495,493,772,498
499,496,493,702,498
497,495,493,518,496
498,495,494,339,496
498,495,493,277,496
497,494,494,241,493
497,495,494,262,493
498,495,493,293,492
497,494,493,382,494
499,496,493,495,494
498,497,493,633,495
500,496,493,774,499
500,494,493,786,498
499,494,493,754,497
498,497,493,638,496
497,492,494,419,494
497,490,494,310,493
496,491,494,238,492
495,494,494,248,492
497,491,494,276,493
495,493,493,330,493
498,496,493,431,493
497,498,493,554,494
497,496,493,706,497
499,498,493,788,497
499,501,493,777,496
499,497,493,726,496
503,500,494,536,495
498,497,493,358,494
497,498,493,283,493
497,496,493,247,496
497,495,493,263,494
495,494,493,285,494
500,496,493,372,496
498,496,493,482,496
498,496,493,608,497
498,494,494,759,494
498,493,493,786,496
497,496,493,763,496
497,495,493,651,496
498,496,493,443,496
499,499,493,317,494
498,498,493,253,492
498,499,493,241,493
496,495,493,278,494
500,496,493,323,496
500,495,493,417,497
500,495,493,535,498
498,491,494,679,498
498,494,493,789,495
496,492,493,777,494
496,492,493,737,495
497,495,493,564,497
498,496,493,374,496
497,495,493,290,497
497,496,494,246,493
498,498,493,262,494
499,498,493,287,494
500,497,493,356,494
497,496,493,464,493
499,495,493,590,495
500,491,494,749,497
499,493,494,787,496
497,494,494,760,493
496,496,493,679,495
498,499,493,470,494
497,500,493,329,493
496,500,493,261,493
498,495,494,245,492
500,493,493,271,491
496,493,493,311,490
498,493,494,403,489
497,497,493,523,492
499,492,494,657,495
498,486,494,779,497
498,489,493,783,499
495,487,493,742,497
497,492,494,587,493
495,501,494,391,494
499,504,494,298,493
501,502,493,239,493
500,501,494,254,494
497,498,493,285,494
496,497,493,338,498
498,498,493,455,501
498,493,493,571,503
499,491,493,735,499
500,497,493,789,497
497,493,493,769,497
499,491,494,687,496
496,489,494,499,494
497,487,493,333,492
495,488,494,274,493
495,494,494,245,492
497,496,493,273,495
500,503,493,303,495
501,498,493,393,490
501,496,494,506,489
501,489,493,638,492
501,490,494,771,489
500,492,494,782,488
498,492,493,747,490
497,495,493,617,495
498,500,494,412,501
497,496,493,307,501
497,501,493,243,501
496,505,493,258,496
496,499,493,283,494
499,494,494,335,492
499,492,494,437,487
498,490,494,557,486
498,487,494,715,493
499,489,493,787,495
499,495,493,767,500
499,495,493,718,501
499,493,494,527,498
495,495,493,347,497
496,493,493,283,494
499,485,493,246,490
500,491,493,267,487
498,499,493,289,493
502,503,493,374,495
499,508,493,492,498
498,505,493,619,502
498,499,493,759,498
496,495,494,781,487
497,489,494,759,484
496,482,494,640,479
495,480,494,431,478
495,491,494,315,484
499,496,494,251,493
498,500,493,247,504
498,500,493,281,514
503,497,493,323,510
501,492,493,427,506
497,493,493,543,504
496,496,493,686,499
499,497,493,789,494
497,487,494,774,489
497,491,493,732,485
497,496,493,551,489
498,496,493,365,493
501,503,493,289,504
502,499,493,252,507
500,490,493,259,498
498,478,494,290,485
494,473,494,361,487
493,481,493,472,487
496,484,494,601,480
500,499,493,748,475
499,503,494,789,490
504,503,493,759,497
506,490,493,663,500
500,486,493,459,507
499,489,493,325,507
500,492,493,251,498
496,492,494,250,496
501,476,493,276,486
497,481,494,313,489
495,481,492,414,490
492,485,494,528,490
497,506,493,671,480
499,513,493,781,481
499,502,493,776,492
504,496,493,743,498
505,495,493,580,495
503,501,493,378,499
502,493,494,298,486
499,482,494,249,471
494,482,494,258,485
496,480,494,284,488
496,487,494,351,488
500,512,493,460,491
500,511,493,580,495
500,506,493,736,507
501,505,493,787,509
507,503,493,763,507
500,497,493,680,506
498,495,493,485,504
499,507,493,335,498
500,483,493,270,498
503,473,494,244,473
500,486,494,271,453
497,491,493,305,457
507,510,494,397,456
502,513,494,513,459
500,500,493,642,477
499,490,493,779,501
499,484,494,784,510
495,492,493,752,519
501,503,493,611,518
503,491,493,404,505
497,485,494,306,493
497,488,494,242,489
492,497,493,258,503
499,506,493,286,518
500,500,493,339,530
505,505,493,447,526
503,504,493,563,516
500,490,494,722,508
500,485,494,788,495
500,447,494,769,484
501,431,494,700,479
502,456,494,514,474
505,489,494,342,471
499,544,494,283,480
503,551,494,249,492
505,534,494,270,472
511,511,494,293,448
507,498,494,389,461
509,498,494,502,469
504,480,494,628,485
496,487,494,767,516
493,500,493,787,538
493,504,494,755,540
499,510,494,636,535
496,500,494,424,517
496,496,494,311,509
498,495,494,249,506
500,499,494,251,498
500,504,494,275,488
500,482,494,333,478
501,446,494,429,470
502,454,494,547,465
501,473,494,699,474
502,512,494,788,488
505,531,494,766,497
493,506,494,727,515
502,493,493,536,520
499,496,494,360,526
496,484,494,289,507
497,470,494,246,487
500,491,494,268,480
503,508,494,297,483
504,524,494,369,488
501,526,494,485,501
498,506,494,609,514
498,488,494,755,510
499,472,494,781,498
497,469,494,758,494
495,489,494,657,485
501,515,494,450,486
503,529,493,323,498
510,524,493,258,502
510,491,493,247,502
497,463,493,280,516
497,465,494,319,514
494,461,494,417,501
497,463,494,532,481
503,488,494,674,471
509,516,494,778,461
502,526,494,776,469
509,525,493,740,488
509,518,494,565,504
499,510,494,373,522
500,515,493,296,529
498,516,494,248,523
495,498,494,258,512
492,477,494,286,489
496,466,494,352,470
497,473,494,468,476
498,500,494,590,481
498,521,494,744,498
500,522,493,791,521
505,512,493,764,533
506,507,494,674,515
503,498,494,472,496
503,480,494,324,490
506,459,494,259,480
501,449,494,246,483
495,471,494,270,500
490,493,494,316,516
498,497,494,407,509
495,495,494,520,494
495,491,494,657,478
498,499,494,779,490
504,507,493,778,503
507,514,494,747,488
511,515,494,586,476
502,502,493,390,464
502,499,494,302,470
499,500,494,246,500
497,492,493,256,503
495,489,494,290,503
493,465,494,348,511
500,454,494,454,503
496,495,494,572,488
501,520,493,732,488
510,533,494,784,480
507,527,493,767,490
504,514,493,682,504
499,505,493,501,511
490,494,494,340,513
499,488,494,272,500
504,478,493,243,479
498,456,494,274,479
504,474,493,298,491
506,496,493,391,494
499,512,493,506,519
501,525,493,633,539
502,516,493,774,535
502,506,493,781,514
504,484,494,748,491
496,451,494,620,481
498,442,494,411,468
494,475,494,308,453
498,512,493,244,471
503,527,493,260,498
502,516,493,283,514
495,513,493,335,527
497,525,493,440,533
507,527,494,559,506
502,519,493,710,487
499,514,493,788,475
509,502,493,769,464
505,481,494,712,467
505,464,494,523,476
504,464,493,351,489
498,471,494,280,495
493,495,493,250,505
500,507,494,268,524
497,501,493,302,541
499,508,494,379,525
498,500,493,491,499
500,488,494,617,469
506,483,494,760,454
507,486,494,784,456
500,500,494,752,457
487,496,494,646,485
495,503,493,433,516
500,505,493,318,525
506,510,493,251,510
502,507,494,249,509
498,473,494,282,523
494,456,494,325,529
493,453,494,423,506
492,483,494,541,497
504,540,494,691,503
513,548,494,780,514
509,525,494,774,511
505,515,494,725,501
504,513,493,547,509
502,510,493,368,518
499,494,494,290,489
500,479,494,248,450
500,482,494,268,446
506,489,494,287,428
506,502,493,363,435
506,510,493,476,486
506,514,493,600,519
493,497,493,749,535
494,485,494,791,544
499,475,494,759,543
495,469,493,666,527
492,488,494,463,502
491,513,493,326,492
497,518,493,258,494
500,524,493,256,501
509,504,493,274,505
501,483,493,316,517
501,486,493,413,484
509,494,493,525,458
507,479,493,663,471
505,468,494,782,477
505,463,493,774,483
487,486,493,740,508
493,520,493,578,524
497,524,493,383,509
496,513,493,301,499
501,499,493,239,496
502,481,493,259,492
498,493,493,287,490
496,499,493,348,508
494,502,493,463,527
497,514,493,579,532
504,523,491,743,516
506,522,493,789,498
504,511,493,760,494
504,504,493,675,487
502,498,493,484,470
499,481,493,327,447
502,476,493,264,449
507,474,494,245,441
496,438,494,272,455
494,439,493,305,498
491,463,493,400,531
494,504,493,516,539
495,547,493,649,523
503,538,493,778,512
503,527,493,780,510
504,503,493,747,503
504,496,493,598,505
504,496,493,400,500
502,505,493,306,513
503,502,493,241,474
505,481,493,258,447
498,475,494,284,453
495,459,493,340,468
491,469,493,447,492
490,490,493,567,522
505,513,493,718,546
505,537,493,792,536
499,535,493,767,544
501,528,493,697,543
501,517,493,513,511
499,506,493,342,499
501,497,493,273,485
502,490,493,251,480
501,482,493,266,456
500,474,493,297,444
502,488,493,386,446
502,485,493,497,480
499,488,493,629,511
497,499,493,770,508
495,515,493,779,508
499,516,493,749,513
507,507,493,630,496
505,501,493,422,464
501,487,493,310,480
508,482,493,251,490
498,501,493,257,496
496,522,493,285,525
497,514,493,336,550
495,481,493,435,545
494,457,493,548,504
490,451,493,701,481
494,473,493,782,465
502,527,493,767,467
508,543,493,724,482
513,518,493,534,479
513,500,493,355,482
506,495,493,284,491
495,503,493,247,507
486,501,493,265,535
492,497,493,297,557
496,480,493,370,543
498,469,493,484,517
497,485,493,607,484
498,499,493,757,473
501,524,493,782,481
508,518,493,750,483
503,515,493,659,496
499,515,493,443,520
500,493,493,319,524
497,472,493,255,513
494,460,493,245,494
495,479,493,279,474
491,500,493,325,471
498,493,493,417,465
499,482,494,536,467
506,498,493,679,482
516,528,493,781,509
514,530,493,777,490
498,515,493,732,503
494,496,493,560,525
492,487,493,373,530
494,498,493,294,527
499,503,493,244,504
493,483,493,264,483
496,481,493,289,494
502,483,493,356,495
500,488,493,468,500
503,508,493,587,492
503,526,493,744,475
507,527,493,782,465
502,518,493,753,468
501,505,493,665,477
495,493,493,473,519
497,481,493,327,543
496,488,493,262,547
496,497,493,251,515
497,485,493,274,482
498,480,493,312,476
501,475,493,402,472
504,481,493,522,466
499,498,492,654,479
498,514,493,774,502
501,524,493,775,512
499,518,492,746,510
498,509,493,588,506
495,504,492,391,508
497,488,493,298,510
499,484,493,244,501
500,498,492,259,492
502,482,493,278,492
502,491,493,342,496
497,496,494,450,481
498,508,493,569,494
500,491,493,727,505
495,467,493,786,510
495,475,493,767,501
492,501,493,689,496
496,514,493,498,482
503,510,493,335,485
503,497,493,274,493
498,484,493,242,487
492,498,492,271,498
497,501,493,300,507
496,504,492,389,497
506,511,493,504,486
512,509,493,633,500
509,510,492,767,511
502,515,493,782,516
502,513,492,751,512
497,499,492,616,507
497,489,493,407,487
494,474,493,307,476
491,478,493,235,487
498,492,493,250,497
496,506,492,281,511
498,520,492,333,516
498,508,492,439,514
501,510,492,557,509
503,506,493,707,493
505,508,493,791,466
500,505,492,767,448
502,504,493,709,455
499,502,493,527,485
497,497,493,348,509
494,499,493,278,525
489,496,493,253,535
496,488,493,265,519
496,485,492,292,503
497,495,493,380,501
497,499,492,489,494
502,501,493,619,490
502,493,493,759,480
500,496,493,785,481
497,502,493,757,497
494,509,493,642,503
492,504,492,432,503
495,501,493,314,510
497,499,492,251,506
499,497,492,248,503
497,490,493,275,494
501,485,493,319,488
496,478,493,425,489
499,472,493,543,484
495,486,493,686,489
493,491,493,787,502
500,503,493,774,507
502,518,492,734,504
499,510,492,552,500
500,511,492,363,497
503,505,492,289,496
500,490,493,239,469
496,481,493,257,478
495,488,493,289,483
495,493,492,360,496
495,501,492,474,515
497,506,492,599,521
499,499,492,751,515
500,501,492,790,504
503,512,492,758,500
500,503,492,666,500
501,501,492,457,498
497,500,493,323,495
495,499,492,252,496
497,501,492,243,493
497,501,492,268,490
496,499,493,308,491
496,501,492,409,496
497,497,492,532,497
498,494,492,667,494
499,493,492,786,494
498,499,492,783,494
499,507,492,746,498
500,503,492,578,505
498,499,492,380,505
502,499,492,290,497
497,501,492,241,500
493,496,492,251,505
492,497,492,276,500
490,494,493,342,492
490,492,493,462,478
489,493,493,578,477
490,496,493,743,467
491,506,493,792,462
492,503,493,766,458
493,500,493,675,479
497,500,492,484,493
502,500,492,327,503
492,498,493,263,515
485,498,492,238,514
481,497,492,264,518
485,497,492,305,512
488,498,492,399,502
499,498,493,517,504
506,498,492,649,506
510,502,492,779,498
508,500,492,779,498
502,498,492,752,501
501,499,492,600,504
501,498,493,397,499
497,498,492,298,499
496,498,493,236,504
496,497,492,254,500
498,498,492,271,497
497,498,492,339,498
496,498,493,444,493
497,498,493,562,491
498,499,493,724,490
498,496,493,790,493
500,496,492,765,492
497,496,493,703,500
499,489,492,511,500
497,480,493,336,497
494,471,493,271,495
493,460,493,235,497
496,481,493,265,495
495,509,492,290,497
497,522,492,380,498
501,515,492,496,498
501,498,493,632,497
500,501,492,771,498
498,505,492,793,497
501,508,493,760,499
502,507,492,636,501
499,507,492,422,499
497,506,492,307,499
497,502,492,239,490
496,502,493,241,491
493,499,492,267,490
492,503,492,320,489
490,501,493,432,490
490,499,493,548,486
492,498,493,704,486
497,499,492,794,495
502,499,492,775,499
500,498,492,728,500
495,499,492,536,503
495,499,493,352,497
493,497,492,278,499
491,496,492,235,496
492,498,492,253,492
495,498,493,290,490
494,499,493,366,487
493,498,492,485,496
494,498,493,615,497
497,500,492,766,499
498,498,492,793,498
498,498,493,758,486
498,498,493,656,486
500,500,493,441,487
496,499,493,314,489
495,498,492,240,502
493,498,493,237,507
495,498,493,266,501
494,499,493,315,506
496,500,492,418,503
498,499,493,535,504
498,499,492,682,502
499,497,492,787,504
498,498,492,779,499
496,501,492,739,496
496,498,493,560,498
499,498,492,367,499
499,498,492,291,496
498,499,492,232,495
495,498,492,254,497
495,500,492,281,495
496,500,493,352,496
498,499,492,466,496
499,500,492,592,497
499,497,493,757,498
502,499,492,793,495
498,497,492,766,499
498,497,492,671,499
498,498,493,471,497
497,498,492,325,496
497,497,492,253,498
500,498,493,237,495
496,498,493,265,496
497,499,492,302,497
498,499,492,403,499
496,496,493,524,498
498,496,492,657,495
499,492,493,792,496
497,484,493,785,498
496,487,493,748,497
496,496,493,597,496
495,504,493,389,495
498,514,493,296,495
496,509,492,235,495
498,505,493,251,496
500,505,493,279,495
498,501,493,341,497
498,501,492,454,496
497,498,493,579,496
498,493,493,747,497
499,495,493,799,498
498,495,493,775,495
497,500,493,692,499
497,502,493,500,496
496,499,493,333,497
496,497,493,264,496
496,497,493,236,494
497,498,493,268,495
496,499,493,292,497
496,496,493,395,495
497,498,493,509,496
497,498,493,643,496
499,499,493,777,495
496,497,493,791,499
497,500,493,756,498
497,498,493,619,500
496,498,493,408,500
497,498,493,302,498
496,498,493,243,494
497,496,493,243,495
496,497,493,275,496
496,499,493,332,494
497,499,493,439,498
498,498,493,559,499
496,497,493,716,499
499,499,493,794,497
497,499,493,776,497
497,497,493,715,499
498,499,493,524,495
499,499,493,346,492
498,497,494,274,489
499,498,493,244,488
495,498,493,260,491
496,499,493,289,494
496,500,493,377,500
496,497,493,496,501
499,498,493,622,499
497,498,493,778,500
499,498,493,796,499
498,497,493,760,499
497,499,493,648,499
498,500,493,434,498
498,498,493,311,497
498,500,493,240,495
495,499,493,240,494
497,500,493,269,494
497,500,493,322,498
495,498,493,425,499
497,498,493,545,495
497,497,493,701,496
499,497,493,792,497
498,496,493,779,495
497,498,493,734,500
497,496,493,550,498
497,496,493,364,497
494,495,493,284,496
495,497,493,235,495
496,497,493,258,498
496,499,493,286,497
496,497,493,367,496
497,497,493,480,496
497,499,493,606,498
499,498,493,763,498
500,496,493,796,496
498,495,493,761,498
500,498,493,670,497
496,497,493,457,497
497,498,493,319,496
497,501,493,250,498
499,500,493,241,495
497,501,493,265,496
496,500,493,315,495
498,499,493,414,496
498,498,493,529,495
497,497,493,669,494
498,497,493,790,496
498,500,493,782,497
496,497,494,744,498
496,497,493,574,497
498,498,493,380,496
497,497,493,292,496
496,496,493,242,498
496,498,493,255,494
496,498,493,283,496
499,498,493,347,495
497,498,494,461,496
496,496,493,584,497
498,497,493,741,494
496,497,493,797,497
496,497,493,766,497
495,497,493,680,496
495,498,493,489,496
495,497,493,327,495
497,497,493,262,493
494,497,493,242,494
496,498,493,267,494
499,499,493,297,495
495,496,493,402,496
497,497,493,516,495
497,497,493,655,497
497,496,493,784,497
497,496,493,784,497
499,498,493,756,496
498,496,493,609,497
499,498,493,398,495
497,496,493,301,495
496,497,493,236,493
496,498,493,251,494
497,496,493,277,496
498,497,493,340,494
496,497,493,452,495
497,496,493,570,496
498,496,493,730,498
499,496,493,796,495
498,498,493,768,496
496,498,493,704,495
496,498,493,512,495
495,497,493,336,495
496,498,493,272,494
496,497,494,242,494
496,499,493,258,495
495,497,493,298,494
499,497,493,388,495
498,496,493,498,495
498,495,493,630,493
496,494,493,774,497
499,498,493,789,495
496,496,493,753,494
496,497,493,629,495
496,498,493,419,495
497,497,493,312,495
496,496,493,241,493
495,496,493,246,494
497,497,493,281,494
497,497,493,332,495
497,497,493,433,494
496,496,493,551,495
497,496,493,705,493
498,499,493,789,495
496,496,493,771,494
496,496,494,719,494
496,497,493,541,495
497,496,493,355,493
497,496,493,284,492
496,498,493,245,493
498,498,494,265,494
498,498,493,291,493
495,496,493,375,495
497,496,493,484,494
496,497,494,615,495
496,495,494,765,496
496,495,493,787,495
496,495,493,756,494
498,498,493,663,494
496,497,493,446,494
497,497,493,319,493
496,497,493,251,492
495,497,493,247,493
497,498,493,273,493
495,496,494,324,493
495,496,493,418,493
498,496,493,542,495
497,495,493,685,496
498,496,493,786,493
497,498,493,776,495
495,496,493,741,494
499,496,493,558,493
496,495,493,371,494
496,495,493,289,493
496,496,493,247,496
497,498,493,261,495
495,495,493,289,493
499,496,493,361,494
497,496,493,470,494
497,497,494,591,494
498,496,493,747,492
495,496,494,790,495
497,498,494,767,492
494,496,494,668,493
495,497,494,472,494
497,496,493,326,494
497,496,493,262,492
496,498,493,243,495
495,498,493,275,493
497,497,493,313,493
498,496,493,407,493
497,496,493,523,492
496,496,494,663,492
496,497,494,785,494
497,495,493,781,494
496,495,494,742,494
495,495,493,595,494
497,496,493,393,493
495,496,494,300,494
495,497,493,241,491
497,497,493,259,493
497,497,494,285,493
498,498,493,347,492
496,495,493,457,493
497,496,493,571,493
497,495,494,741,495
498,495,494,791,495
496,495,494,763,494
496,497,494,695,493
495,496,493,498,494
498,496,493,334,492
497,496,493,271,492
495,497,494,246,492
497,498,494,266,493
495,495,493,305,493
498,496,493,390,492
497,497,494,509,493
497,496,494,640,495
498,495,494,774,494
498,497,493,785,493
496,496,493,754,494
499,497,493,613,492
496,496,493,408,493
495,495,494,307,492
496,497,494,240,490
495,495,494,253,493
497,498,494,285,492
495,495,493,340,494
497,495,493,444,493
497,496,493,559,494
497,495,493,712,492
498,498,493,788,494
496,497,493,772,493
496,496,494,704,493
495,496,493,525,493
496,496,493,346,493
497,496,493,284,491
496,498,494,247,493
496,495,493,271,492
497,496,493,300,492
497,496,494,380,493
496,495,493,491,492
495,495,493,621,494
497,497,494,763,495
497,495,493,783,492
496,495,494,752,492
495,495,493,639,492
496,497,493,436,493
496,496,493,315,492
496,495,494,248,495
496,498,494,257,493
497,496,494,281,494
498,496,494,328,494
496,496,494,424,494
497,496,494,541,492
497,497,494,692,494
497,494,494,783,493
496,496,494,770,492
496,497,494,736,494
499,496,493,546,493
497,497,494,362,492
496,497,493,290,491
496,498,494,246,491
496,497,494,264,493
495,495,493,294,494
498,496,494,360,492
496,496,494,477,493
496,496,494,604,493
497,496,493,757,493
499,495,494,786,494
496,497,494,754,494
498,496,493,654,491
496,496,493,457,493
497,495,493,326,492
497,496,493,259,493
498,498,494,243,492
496,496,494,278,493
494,494,493,311,491
497,496,493,415,492
497,496,493,527,492
497,496,493,667,494
496,494,493,784,493
498,496,493,772,493
495,496,493,742,493
498,496,494,577,493
496,496,493,378,492
496,495,494,294,491
496,495,493,250,491
497,497,493,257,494
495,494,493,285,494
495,494,494,348,493
496,495,494,461,493
497,495,493,583,492
498,494,493,738,493
499,495,494,791,490
498,495,494,762,491
496,497,493,677,491
497,497,494,485,493
496,494,494,332,492
495,496,493,267,494
496,497,493,249,492
496,496,494,276,491
497,497,493,306,491
497,493,493,396,491
495,495,494,514,493
497,495,494,649,492
499,497,493,778,493
498,495,493,781,494
499,495,493,739,492
496,495,493,606,494
497,495,493,395,492
496,495,493,304,493
497,496,494,250,493
498,493,494,257,493
497,494,494,283,490
495,497,494,341,493
496,494,493,444,492
496,495,493,566,492
496,494,493,722,493
497,494,493,785,491
496,496,493,770,494
495,496,492,692,494
498,496,493,508,492
495,496,494,340,491
496,495,493,277,491
495,497,493,247,494
496,495,494,271,492
497,495,493,293,493
498,495,493,389,491
497,494,493,498,493
498,496,494,630,493
495,495,493,763,492
498,495,494,779,492
496,495,493,754,493
499,497,493,634,492
498,496,494,421,492
497,496,493,312,492
498,494,494,241,492
498,495,494,258,491
496,495,494,283,493
497,493,493,334,494
496,493,494,434,494
497,496,493,549,492
497,497,494,702,493
496,497,494,790,493
496,496,493,767,491
496,497,494,718,491
495,496,493,536,492
496,496,493,359,492
495,496,494,285,493
495,494,493,250,492
497,496,493,270,493
497,494,493,295,494
498,494,493,369,491
497,495,494,485,493
497,496,494,611,493
496,494,494,755,492
496,495,494,785,492
496,496,493,754,491
497,497,494,655,494
496,495,493,445,492
496,495,493,320,492
496,496,494,258,491
497,496,494,254,494
498,495,493,280,494
496,496,493,317,494
495,494,494,418,492
497,496,494,536,492
496,494,494,676,493
496,493,494,781,492
496,496,493,777,494
498,496,493,736,492
497,494,493,559,492
496,497,493,374,491
495,496,493,296,492
496,496,494,249,491
495,496,493,264,493
496,495,494,287,491
496,494,493,355,493
497,494,494,469,492
496,494,494,589,492
496,493,494,742,492
499,495,493,792,492
497,496,494,763,495
498,494,493,670,492
497,497,493,474,492
496,495,493,329,492
496,496,493,258,491
494,497,494,252,494
496,496,493,271,494
496,494,493,310,494
496,494,493,407,493
497,495,493,521,491
497,496,494,656,491
495,493,494,785,494
498,494,493,778,492
497,495,494,747,491
497,496,493,591,493
497,495,493,390,492
496,495,494,304,491
494,494,494,248,493
496,493,494,259,494
496,493,494,284,494
495,493,493,342,493
496,493,493,454,491
496,492,494,573,491
498,493,494,739,490
495,493,493,790,492
496,497,493,766,492
499,500,493,688,493
497,498,493,501,492
497,496,493,333,492
496,496,494,274,493
498,495,494,248,494
496,494,493,270,494
496,497,493,301,491
495,494,493,391,492
497,496,493,505,492
496,496,493,635,490
494,495,494,767,492
497,495,493,782,494
497,494,493,751,492
498,494,493,613,493
498,496,493,407,492
496,496,494,311,491
497,494,494,249,493
499,493,493,256,491
496,495,493,282,494
497,492,493,334,491
497,494,493,440,492
496,496,493,558,491
495,495,494,709,492
496,497,493,792,494
496,495,494,768,495
496,493,493,705,492
497,498,493,526,492
497,495,493,348,491
497,496,493,278,491
495,494,493,252,493
496,496,493,263,490
494,495,494,293,494
493,493,494,378,492
494,494,493,491,493
497,496,493,621,492
496,493,494,768,494
500,494,493,783,492
498,496,493,754,492
497,497,493,642,492
497,496,493,430,492
497,495,493,313,492
497,496,493,252,492
495,495,493,252,494
497,493,494,278,494
496,494,494,326,495
496,494,494,424,491
497,495,494,545,493
496,495,494,697,493
497,494,493,783,492
497,496,494,772,491
497,496,493,729,492
498,494,493,545,492
497,497,494,362,493
497,495,494,290,492
498,497,494,247,493
497,495,494,265,493
497,494,494,284,491
495,494,493,365,493
496,495,494,475,492
497,495,494,600,493
496,493,494,755,495
497,494,493,786,493
496,494,493,761,493
499,497,493,656,492
496,495,494,458,492
496,495,493,322,491
495,495,493,256,491
494,495,494,249,491
495,493,493,272,491
497,495,494,311,493
495,495,493,416,493
498,495,493,532,492
498,493,493,672,495
499,494,493,783,492
498,494,493,773,494
499,496,494,745,493
496,495,493,571,491
495,495,493,383,493
495,495,494,296,494
497,494,493,241,490
496,496,493,255,492
494,496,493,288,492
499,495,493,353,492
497,494,493,464,492
497,494,493,581,494
497,496,494,739,495
497,494,493,792,493
499,496,493,757,492
495,496,494,674,492
495,496,493,485,493
495,494,493,331,493
496,495,494,268,491
496,493,493,242,492
499,496,493,273,493
499,496,494,308,493
498,494,494,400,492
497,495,494,515,493
498,494,494,650,492
498,494,494,775,494
497,494,494,777,493
496,494,494,745,492
496,495,493,607,494
496,496,493,398,492
496,495,494,301,491
496,497,493,240,490
496,496,493,258,491
497,496,493,285,492
497,495,493,332,491
496,494,493,448,492
496,494,493,563,494
498,494,494,728,495
500,494,494,789,494
497,494,493,765,493
499,496,493,692,494
495,493,493,512,493
498,495,493,336,492
497,493,493,272,491
495,494,493,244,491
496,493,493,265,494
497,497,493,299,494
496,493,493,388,492
497,494,493,496,492
497,495,493,632,493
498,495,494,763,491
497,495,493,783,494
496,496,493,756,492
496,494,493,624,494
497,495,493,419,493
497,494,494,312,493
496,495,494,241,492
498,496,493,248,491
496,494,494,283,494
498,496,493,324,490
496,495,494,434,492
496,494,493,551,492
496,494,494,708,494
497,496,493,792,494
497,494,493,774,493
499,496,493,725,492
500,496,493,538,493
497,495,493,352,493
496,495,494,287,493
498,495,493,239,492
496,493,493,262,494
496,493,494,288,493
496,493,493,368,493
498,495,494,484,492
497,494,493,616,493
498,495,493,756,493
497,495,493,786,492
498,496,493,758,491
497,496,493,653,492
498,495,493,443,494
496,496,493,318,493
495,495,493,252,491
497,497,494,249,493
498,495,494,279,494
498,494,494,313,492
497,495,494,421,493
498,494,494,538,493
499,494,494,684,495
500,495,494,787,495
497,494,494,776,495
498,497,493,739,495
496,495,494,562,493
496,495,493,368,493
496,494,493,289,492
495,494,494,240,493
496,494,494,263,495
498,496,494,286,490
497,493,494,357,492
497,496,494,468,492
498,496,494,594,492
498,497,494,751,492
499,495,493,786,492
497,495,493,765,495
498,496,493,668,492
497,495,494,468,494
497,495,493,326,493
495,494,494,258,493
498,496,493,248,491
495,495,493,275,494
497,493,493,308,491
496,496,494,407,492
496,495,494,525,492
497,495,494,657,493
496,496,494,785,494
496,495,493,778,494
498,493,494,744,495
498,494,493,588,494
497,495,493,390,494
496,495,493,295,493
496,494,494,245,491
498,494,494,251,492
495,494,494,278,492
496,495,493,341,491
496,495,494,453,492
497,495,494,573,492
497,496,494,736,494
496,494,493,794,494
499,496,494,770,494
498,495,493,694,495
497,495,493,495,493
496,495,493,334,493
496,494,493,270,494
496,493,494,239,492
495,494,493,264,491
495,494,494,297,493
498,494,493,390,491
497,494,493,508,493
497,494,493,640,492
498,496,494,774,492
499,496,493,786,493
498,494,493,745,492
500,496,493,620,492
497,494,493,409,493
497,494,493,307,494
498,494,493,243,495
497,494,493,252,493
496,493,493,282,493
498,494,493,328,491
498,494,493,444,493
497,494,493,558,492
497,495,494,715,492
496,496,493,794,494
497,495,493,774,492
499,496,493,705,492
495,495,493,526,493
497,495,493,346,493
496,494,493,282,494
497,496,494,243,492
496,494,494,259,492
498,495,493,289,493
495,494,494,375,492
497,495,494,494,492
497,494,494,624,494
497,494,494,765,492
498,494,494,786,492
499,495,493,760,494
499,496,495,646,494
498,495,493,432,493
496,494,493,316,493
497,497,493,245,495
497,495,493,253,491
496,495,493,270,492
495,494,493,320,491
495,494,494,424,493
496,494,493,548,493
496,495,494,692,494
498,493,494,793,492
498,496,493,777,493
499,496,493,734,493
499,496,493,543,493
496,494,493,359,492
497,494,493,285,491
497,494,493,246,494
497,494,493,257,495
496,494,493,286,493
498,496,493,367,493
496,494,493,478,493
497,496,494,604,492
497,495,493,754,491
497,496,493,789,491
497,496,493,764,492
498,492,493,661,495
498,495,493,456,494
495,494,493,323,492
497,494,493,256,492
499,496,494,248,494
497,493,493,269,492
496,495,493,313,494
496,496,493,415,493
497,495,494,530,494
497,494,493,666,493
497,494,494,786,491
498,494,493,783,491
496,496,493,745,495
497,494,493,574,492
495,495,493,376,492
495,496,493,294,491
497,496,494,240,495
495,495,494,258,493
496,495,493,281,494
498,494,494,351,495
497,495,494,462,493
497,494,493,583,493
497,493,494,743,491
497,495,494,790,494
498,495,493,769,494
496,495,493,673,493
496,495,493,480,493
496,495,493,329,492
497,494,493,266,492
496,495,493,242,494
496,493,493,271,492
497,496,494,305,493
500,495,493,401,492
497,495,493,516,493
496,494,493,652,494
496,494,493,776,494
498,494,493,783,495
498,494,494,747,494
497,493,493,601,493
498,495,493,396,493
496,495,493,301,492
498,494,494,236,492
495,494,493,247,492
496,495,493,277,491
496,496,493,336,491
497,494,493,449,492
496,496,493,570,493
497,494,494,733,492
498,497,493,795,493
499,495,493,773,494
498,493,493,694,492
496,494,493,511,493
496,495,493,335,494
496,493,493,270,495
496,492,493,238,494
496,493,493,260,493
498,494,493,289,492
496,494,493,388,493
497,495,493,500,493
496,494,493,630,492
497,495,493,769,492
498,494,493,787,494
498,496,493,759,492
496,494,493,636,494
497,495,493,420,493
497,495,493,310,494
497,494,493,246,494
498,494,493,248,492
496,493,493,272,494
498,496,493,330,493
495,494,493,431,493
497,495,493,550,493
496,494,493,703,494
499,495,493,790,493
498,495,493,775,495
497,496,493,723,493
497,497,493,534,493
496,496,493,351,492
496,494,494,280,493
498,496,493,244,491
495,494,493,265,494
496,493,493,289,495
497,493,493,369,493
496,493,493,485,493
496,494,493,613,494
496,497,493,767,492
497,495,493,789,492
496,496,493,757,492
497,496,493,650,492
497,496,493,442,494
497,495,493,314,493
497,496,494,246,495
496,496,493,247,492
498,494,493,274,492
498,493,493,321,493
497,492,493,417,492
497,492,493,539,492
496,494,493,688,494
497,495,493,788,494
496,495,492,776,494
497,495,492,744,492
498,496,492,555,493
497,496,493,366,492
495,494,493,288,491
496,495,493,235,491
496,497,493,255,491
496,494,493,282,492
497,496,493,349,492
496,494,493,473,492
497,495,493,597,494
499,494,493,755,494
499,495,493,795,494
497,496,493,766,492
496,494,493,666,492
498,496,493,467,493
496,494,493,322,493
495,494,493,252,492
495,492,493,245,494
496,492,493,264,491
496,493,493,306,494
497,494,493,408,492
497,494,493,523,492
497,494,492,663,492
496,493,493,781,494
498,495,493,778,492
496,496,493,749,495
497,494,493,587,494
496,495,493,386,493
496,494,493,297,492
496,493,493,234,493
497,495,493,254,491
495,494,493,278,491
496,495,493,340,491
497,496,493,453,492
496,495,493,576,493
496,493,493,742,492
499,494,493,791,492
499,495,493,772,495
498,493,493,690,495
498,494,493,496,494
496,494,493,332,494
496,493,493,266,492
498,496,493,235,491
495,494,493,260,491
496,495,493,292,491
495,496,493,393,493
497,495,493,508,492
498,495,493,639,492
498,497,493,781,494
498,495,494,787,494
497,493,493,755,491
496,494,493,619,494
497,494,493,402,493
496,495,492,305,493
496,493,493,239,494
496,494,493,245,492
496,494,493,273,492
498,494,493,338,492
496,494,493,444,493
497,494,493,563,492
496,495,493,718,491
497,496,492,795,492
498,496,492,771,493
496,496,493,714,493
496,494,492,520,493
497,494,492,343,493
497,494,493,279,493
497,494,493,244,492
495,495,493,259,494
495,493,492,292,491
497,493,493,375,491
496,494,493,494,492
497,494,493,619,491
496,493,493,773,494
497,495,493,791,494
497,493,493,761,493
498,496,492,645,493
498,494,492,428,492
497,495,493,311,493
496,494,493,240,490
494,493,493,242,494
498,496,493,274,493
495,493,493,320,492
496,494,493,423,493
497,494,493,546,492
497,493,493,695,492
496,496,493,791,494
496,496,493,781,492
498,495,493,734,492
499,497,493,547,492
497,494,492,360,492
497,494,493,286,492
496,495,493,244,493
495,493,493,257,494
495,493,493,283,493
496,494,493,367,493
498,494,493,478,493
497,495,493,606,493
496,495,493,759,491
496,495,493,794,493
498,496,493,765,492
499,497,493,665,493
497,494,493,455,493
497,494,493,318,492
496,493,493,253,495
497,494,493,240,494
496,494,493,266,492
495,496,493,317,492
495,495,493,411,492
498,495,493,532,492
496,495,493,674,491
497,495,492,788,492
498,496,493,778,493
496,494,493,748,493
500,494,493,568,492
497,494,493,377,493
497,494,493,293,494
497,493,493,240,495
497,496,493,257,492
495,493,493,284,493
499,495,493,345,491
495,494,493,463,492
497,493,493,583,492
497,495,493,744,491
496,493,493,794,494
498,495,493,769,492
496,494,494,685,495
499,495,493,483,493
496,495,493,330,492
496,494,493,261,491
495,495,493,240,494
496,496,493,268,492
495,493,493,298,492
495,493,493,398,492
497,493,493,517,492
498,494,493,656,491
496,494,493,785,494
498,494,493,786,492
497,496,493,753,492
498,496,493,604,492
498,495,493,396,493
496,494,493,301,493
496,494,493,234,492
498,493,493,252,494
496,494,493,278,494
497,494,493,334,494
497,493,493,449,492
497,494,493,567,493
496,496,493,733,493
495,494,493,791,492
496,496,493,768,491
498,497,493,695,492
497,494,493,509,493
497,494,492,334,493
497,494,493,275,493
498,495,493,246,493
498,494,493,265,494
497,493,493,293,490
495,494,493,384,493
497,496,493,499,493
497,493,493,632,492
496,493,493,769,494
497,495,493,784,494
497,494,493,755,492
496,495,493,629,495
497,495,493,416,492
497,495,493,310,492
497,496,493,245,491
497,496,493,252,492
495,493,493,272,494
498,494,493,324,490
496,495,493,438,494
497,493,493,555,494
498,493,493,708,495
498,493,493,795,493
498,494,493,769,492
499,495,493,725,491
496,495,493,533,493
496,494,493,352,492
496,495,492,283,494
496,493,493,243,492
498,496,493,257,492
495,495,493,295,493
498,494,493,374,494
498,494,493,485,493
498,494,493,613,492
497,493,494,766,492
499,496,493,789,494
497,495,492,757,493
496,494,493,650,492
496,495,493,441,493
496,494,493,323,493
497,495,493,249,491
497,493,493,244,492
497,496,493,278,493
498,495,493,323,493
499,495,493,421,492
496,494,493,543,494
498,494,493,683,492
497,494,494,788,495
497,493,493,775,494
496,494,493,734,493
496,496,493,564,494
496,494,493,368,494
497,495,493,290,492
496,496,493,242,492
497,496,494,260,493
498,496,493,283,492
495,493,493,362,494
498,495,493,468,493
497,495,493,598,494
497,494,494,756,495
498,494,493,790,495
497,494,493,760,492
498,496,493,665,494
496,495,493,469,493
497,495,493,325,492
495,495,494,257,491
495,496,494,244,492
497,494,493,270,494
498,496,493,312,494
496,495,493,412,493
498,495,494,528,493
498,493,493,663,495
499,494,493,780,492
497,496,494,777,494
496,496,493,748,493
496,494,493,583,493
496,494,493,387,493
496,494,493,295,492
497,493,493,245,491
497,496,493,251,493
496,494,493,286,493
498,495,493,350,493
498,493,493,457,494
497,494,493,574,494
498,495,493,736,492
497,494,493,788,493
498,496,493,763,492
495,495,493,682,493
496,495,493,493,493
496,495,493,336,492
497,494,493,269,492
497,494,493,241,495
499,496,493,273,492
498,495,493,303,493
499,495,493,395,493
497,495,493,509,494
498,494,494,640,492
497,496,493,776,493
496,494,493,780,494
496,494,493,746,492
496,494,494,619,494
498,495,493,404,493
497,495,493,305,491
497,496,494,241,491
495,496,493,255,492
498,496,493,281,493
499,497,493,330,492
495,494,494,443,493
498,495,493,558,491
498,494,493,723,494
499,494,493,789,495
497,493,493,767,494
498,496,493,708,494
496,493,494,522,493
498,496,493,343,492
496,495,493,278,492
496,495,494,241,491
497,497,493,267,494
496,497,494,296,491
496,493,493,377,493
498,495,493,493,493
497,494,493,625,494
500,494,493,767,492
496,495,493,788,494
497,493,493,757,492
498,494,493,636,494
496,494,493,429,493
496,493,493,312,493
496,495,493,243,491
498,495,493,256,491
496,496,493,277,494
497,494,493,330,491
498,495,494,430,493
498,495,493,546,493
499,495,493,692,492
497,494,494,789,495
498,496,493,772,494
497,494,493,729,495
497,494,493,543,494
497,495,493,362,492
497,495,493,287,492
495,494,494,250,494
498,496,493,262,491
496,496,493,291,492
497,497,493,365,492
498,495,493,477,492
496,495,494,605,492
496,494,493,761,494
499,494,493,789,495
497,494,493,758,494
497,493,493,658,495
497,494,493,456,492
496,495,493,322,493
498,496,493,259,492
495,494,493,249,492
496,496,493,275,492
498,496,493,315,494
495,494,493,418,492
497,494,493,529,492
497,495,494,678,493
499,495,494,785,495
498,494,493,774,495
497,496,493,743,492
496,493,493,570,494
499,496,494,374,494
497,495,493,295,492
496,494,493,240,493
496,494,493,262,494
499,494,493,287,491
496,493,493,351,494
497,496,493,464,492
497,495,494,586,493
497,496,493,743,492
498,497,493,791,493
496,496,494,766,495
499,496,494,671,493
496,496,494,483,494
498,495,493,332,493
498,495,494,268,494
500,493,493,243,490
497,494,493,275,491
495,494,493,311,492
499,495,493,404,492
498,495,493,515,492
497,495,493,646,492
496,493,494,779,494
498,495,493,776,493
499,498,494,751,492
498,497,494,601,493
497,495,493,394,493
497,494,493,301,493
497,496,493,241,495
496,494,493,259,493
499,495,494,288,492
498,495,493,344,493
498,495,493,447,492
498,495,493,564,491
498,494,494,730,492
497,494,493,789,495
498,495,493,767,495
497,493,493,693,495
498,494,492,509,492
496,496,492,340,494
496,495,493,275,493
495,493,493,243,491
495,495,493,264,492
496,495,493,293,492
497,495,493,390,491
496,494,493,501,494
498,493,493,633,492
497,497,494,769,492
499,496,492,784,494
499,497,493,746,492
496,496,493,632,494
497,495,493,412,493
496,496,493,312,493
497,494,493,249,495
498,494,493,252,495
496,494,493,279,492
497,495,493,327,493
496,496,493,434,492
497,495,493,552,492
496,494,493,702,492
496,494,493,785,492
498,495,493,770,492
497,498,493,715,495
497,494,492,535,493
496,496,493,354,492
497,496,493,287,492
498,497,493,241,492
495,495,494,271,493
496,494,493,290,495
497,492,493,373,493
496,494,493,487,493
498,494,494,609,492
498,496,494,759,495
496,494,493,788,494
499,495,494,752,491
496,495,493,647,492
496,496,493,440,493
497,495,493,316,491
497,495,493,256,491
496,496,493,246,494
496,494,494,281,493
498,496,493,328,493
499,495,493,422,493
498,495,493,537,493
497,493,493,686,495
497,496,494,782,494
498,495,493,771,495
496,494,493,731,495
496,494,493,555,493
497,496,493,369,493
496,494,493,293,495
498,496,493,242,491
497,497,494,264,491
496,496,493,290,493
498,494,493,355,492
498,495,493,472,494
497,494,493,596,494
499,494,493,755,495
498,493,493,789,495
497,494,493,757,494
496,494,493,671,492
499,495,493,466,494
497,495,493,326,493
496,495,493,259,492
495,495,493,248,492
497,496,493,272,494
496,493,493,315,492
498,496,494,405,493
497,496,493,525,492
498,495,494,664,494
499,496,493,782,495
499,497,493,776,492
497,494,493,739,492
499,497,493,578,493
496,495,493,387,493
496,494,493,297,493
496,495,493,247,494
498,494,494,256,492
497,493,493,281,494
499,497,493,347,492
498,496,494,458,492
497,496,494,574,494
499,496,494,738,492
496,495,493,791,496
498,494,493,764,493
498,495,493,682,495
496,494,493,493,494
496,495,493,333,494
497,496,493,274,494
495,494,493,243,495
498,494,494,267,492
496,497,493,301,491
496,497,494,395,492
496,496,493,508,493
497,495,493,644,494
499,494,493,768,493
499,495,493,780,495
498,494,493,747,495
498,494,493,612,494
498,496,493,406,494
496,494,493,307,494
497,495,494,237,491
495,496,493,254,491
496,496,493,283,492
498,497,494,335,492
499,495,493,441,494
497,495,493,561,493
497,496,494,723,495
501,496,494,790,494
497,493,492,766,493
495,491,492,705,492
497,496,493,519,493
497,495,493,341,492
496,493,492,276,492
495,493,493,246,492
495,494,492,262,492
499,494,493,297,491
495,495,493,381,494
497,494,493,493,493
497,496,494,627,493
499,496,493,769,494
498,495,493,782,491
497,494,493,751,493
498,498,493,640,493
496,494,493,427,493
496,494,493,315,492
495,494,493,246,491
495,495,492,251,493
496,493,492,279,492
496,493,493,328,495
496,497,492,430,492
496,495,493,547,492
497,496,493,698,493
497,493,493,784,495
498,494,493,772,492
498,495,493,723,495
496,493,493,542,493
495,494,492,361,494
496,495,492,290,494
498,496,494,242,493
495,494,493,258,492
498,495,493,292,494
498,495,493,369,494
497,495,494,478,492
497,495,493,604,494
496,494,493,758,492
498,495,492,784,491
496,496,494,757,492
497,496,493,657,492
497,496,493,452,492
496,495,493,321,493
497,494,492,250,492
495,493,493,246,493
495,493,493,274,493
496,492,492,311,493
496,493,492,417,492
496,494,492,531,491
497,495,493,671,490
496,496,493,788,494
498,495,492,779,494
499,494,493,739,492
496,496,493,572,494
496,494,493,375,493
497,493,493,292,492
496,495,494,239,491
496,495,493,257,492
496,494,493,286,494
496,496,494,354,494
496,493,493,465,492
497,495,493,588,492
498,496,494,746,492
497,496,493,791,493
498,496,493,760,494
496,496,493,680,494
496,495,493,477,493
497,494,493,331,493
496,495,494,267,496
502,495,493,244,491
498,497,494,270,494
496,493,493,305,492
499,493,493,400,493
497,493,494,518,494
497,494,494,647,493
496,495,493,782,494
496,496,494,781,496
499,495,493,747,492
496,496,493,597,493
496,495,494,395,494
496,495,494,300,494
497,495,492,238,492
495,494,493,255,494
496,496,494,279,492
495,495,493,337,492
496,494,493,447,493
496,494,493,565,493
498,495,493,726,493
496,494,494,794,495
500,496,494,766,492
496,495,492,693,493
496,494,493,507,495
497,497,493,340,493
496,495,492,274,492
498,498,493,241,493
496,495,494,268,495
497,493,493,297,495
499,494,493,386,492
496,494,493,500,494
498,495,493,633,493
499,494,493,772,494
496,494,493,784,494
495,495,493,749,494
500,497,493,633,491
496,496,492,418,493
497,495,492,308,492
497,497,493,241,492
495,496,494,251,493
497,496,493,277,492
497,492,493,328,495
498,496,494,436,494
498,494,493,555,493
499,495,493,712,493
499,496,494,791,494
499,496,494,764,494
497,494,494,717,493
497,494,494,531,495
497,496,493,351,492
496,496,493,284,493
497,497,493,239,493
497,494,494,263,492
496,496,493,291,495
497,494,493,373,492
497,495,493,484,494
496,496,494,616,493
499,497,494,760,495
497,497,493,791,494
497,495,494,754,495
500,496,494,653,495
497,495,493,443,494
496,494,493,317,495
497,495,494,251,492
498,498,494,245,493
495,495,494,277,495
497,495,493,319,492
496,495,494,420,493
496,495,494,537,493
497,495,494,685,492
497,496,494,778,494
497,495,493,779,495
499,495,493,741,496
499,495,493,559,496
497,495,493,367,493
497,495,493,291,496
498,497,494,246,496
496,495,494,256,493
495,494,494,283,493
495,495,494,355,495
498,496,494,472,493
496,495,494,599,495
498,497,494,749,491
498,497,494,793,494
499,496,494,766,494
500,497,493,673,494
496,495,493,467,493
497,496,493,321,493
497,496,494,259,495
498,494,494,244,494
496,495,493,269,494
497,494,493,313,493
499,494,494,407,494
498,495,493,524,493
497,495,494,662,492
496,496,494,782,493
498,497,493,780,494
497,495,493,750,493
499,497,494,581,494
497,496,493,386,494
498,495,493,301,495
498,494,493,247,496
498,497,494,255,493
496,494,493,282,493
499,496,494,338,493
497,495,494,456,494
497,495,494,576,493
496,495,494,733,493
497,496,494,793,496
497,497,494,770,494
497,495,493,680,494
500,497,493,498,493
498,495,493,335,494
497,494,494,271,492
496,496,493,245,495
497,494,494,268,493
499,495,493,295,493
496,494,493,393,493
497,494,494,509,494
497,495,493,644,495
497,495,494,773,496
498,494,493,785,493
498,497,493,754,494
499,497,493,618,494
498,496,493,403,493
497,495,493,307,495
498,496,494,238,492
498,495,493,250,495
497,494,493,278,494
496,494,494,332,494
496,494,493,439,493
497,495,493,561,493
497,495,494,723,496
499,496,494,792,493
497,497,494,774,493
498,496,493,709,493
500,495,493,518,494
498,496,493,345,494
497,495,493,278,494
499,495,494,246,494
496,495,493,263,495
496,494,494,293,491
497,497,494,377,492
496,495,494,493,494
497,495,494,622,494
496,495,493,765,492
497,496,493,787,493
497,494,493,753,494
500,498,493,636,494
497,495,493,427,494
497,497,493,315,493
497,497,493,252,495
499,495,494,249,496
497,497,493,275,493
496,494,494,322,493
499,497,494,425,493
497,495,494,547,494
497,494,494,692,493
496,495,494,790,496
499,495,493,778,493
499,494,493,727,495
499,498,493,549,493
497,496,493,362,493
497,495,493,290,495
496,496,494,237,495
497,494,493,260,493
497,496,493,284,494
496,493,494,362,493
496,495,494,480,494
497,494,493,605,494
499,494,493,754,493
499,495,493,792,492
498,497,493,762,493
499,497,493,662,492
498,496,493,454,493
496,495,494,320,493
496,495,494,259,492
499,494,494,239,492
498,495,493,276,495
498,494,494,318,496
497,494,494,413,494
497,495,493,530,494
497,494,493,675,492
498,498,494,782,493
497,495,494,776,492
497,495,493,739,493
496,496,494,574,495
498,496,493,376,493
497,495,493,292,492
498,498,493,242,491
497,497,494,261,493
499,496,494,287,492
496,495,493,354,494
497,494,493,463,493
497,494,494,585,494
497,494,494,748,495
497,495,493,790,493
497,495,493,760,493
499,496,493,683,493
496,496,493,482,494
498,495,493,328,493
496,496,493,264,492
496,497,494,246,493
498,497,493,265,493
496,496,493,309,492
495,495,493,399,493
498,496,493,517,493
498,495,494,653,495
499,495,493,781,493
499,497,494,781,495
497,494,494,752,494
499,495,494,593,493
496,495,493,394,493
497,495,493,300,493
496,495,493,244,493
496,495,493,250,494
499,494,493,274,491
496,495,493,333,491
495,495,493,449,492
496,494,494,565,493
497,496,494,732,495
500,496,493,792,493
498,495,494,765,494
499,497,493,698,493
499,496,493,510,493
497,496,493,337,494
497,496,493,276,494
499,495,493,241,492
497,494,494,264,495
497,494,493,294,495
496,494,493,384,493
497,495,493,503,493
497,494,494,631,495
499,495,494,768,492
498,497,494,787,492
498,497,493,755,494
498,498,493,624,495
497,495,493,417,493
497,495,493,306,493
498,495,494,245,494
498,495,493,250,495
496,493,493,277,494
496,495,493,325,492
499,496,493,433,494
497,495,493,556,494
498,495,493,705,492
497,496,493,791,492
497,497,493,774,493
498,495,493,718,495
498,498,493,537,493
497,495,493,350,492
497,494,494,285,494
498,495,493,250,495
498,494,493,258,491
497,496,493,289,494
496,497,494,374,493
497,495,494,484,493
498,495,494,614,492
496,494,493,758,493
498,494,493,790,493
497,497,494,759,495
497,495,493,652,493
499,496,493,441,493
497,496,494,319,494
498,496,493,255,494
499,496,493,244,491
496,494,493,274,492
498,498,493,316,494
497,495,494,420,494
497,495,493,539,494
497,495,494,690,494
500,496,493,788,493
497,494,493,775,496
498,497,494,739,492
499,497,494,560,494
497,496,493,368,494
497,494,493,288,494
498,495,493,238,493
496,496,493,258,495
497,495,493,284,494
496,494,493,356,493
496,494,493,472,493
498,495,493,594,493
498,496,493,759,492
497,496,493,792,493
498,497,493,765,493
499,497,494,672,494
499,496,493,464,494
497,496,493,328,493
498,496,493,254,492
499,495,493,243,495
495,494,494,271,495
496,494,493,307,495
499,496,493,410,494
497,494,493,528,494
498,494,494,660,492
496,495,494,783,492
497,496,493,782,493
498,497,493,741,495
496,498,494,591,494
496,494,493,385,494
498,495,493,298,495
497,495,493,246,495
496,494,494,253,492
498,497,493,278,493
495,494,493,349,493
498,495,493,453,493
497,495,493,575,493
496,495,493,735,493
496,495,493,791,493
498,494,493,764,492
498,496,493,681,494
496,495,493,494,491
497,496,493,334,492
496,495,493,273,493
498,496,493,239,491
496,495,494,270,495
496,496,493,297,495
498,494,492,392,494
498,495,493,509,495
498,495,494,639,493
500,497,493,774,493
497,495,493,786,495
499,496,493,747,493
497,496,493,610,493
496,495,493,406,493
496,495,493,305,494
497,497,493,239,495
497,494,493,251,492
498,498,493,278,493
497,497,494,336,493
498,494,493,440,493
497,495,493,557,493
497,495,493,723,494
496,495,493,787,494
498,495,493,768,495
496,494,493,707,495
496,494,493,520,493
497,496,493,343,494
496,494,493,281,494
499,494,493,240,492
496,496,493,263,491
495,496,493,292,492
496,495,493,379,494
497,496,493,492,493
497,495,493,624,494
499,496,493,769,493
499,495,493,790,495
498,495,493,751,492
497,496,493,643,495
497,495,493,426,494
497,495,493,311,494
497,495,493,245,495
496,494,493,246,493
496,494,493,272,494
499,495,493,321,492
496,495,493,430,494
498,496,493,546,492
497,497,493,696,492
497,497,494,792,494
498,495,493,771,494
499,496,494,735,494
496,495,493,547,494
497,496,493,360,493
497,495,493,292,495
497,494,493,239,491
497,497,493,260,495
497,496,493,292,494
497,494,493,361,493
497,494,493,479,494
498,495,493,604,493
499,495,494,762,493
496,496,493,794,496
497,494,493,762,493
499,498,493,663,492
498,497,493,456,493
496,495,493,322,494
497,494,493,251,493
499,496,493,250,492
496,495,493,274,495
497,494,493,318,495
496,494,493,415,494
497,495,493,530,493
497,496,494,672,494
496,496,494,789,494
496,495,493,776,492
497,496,493,741,492
497,497,494,572,493
497,496,493,377,492
496,496,493,295,494
496,494,494,241,491
498,497,493,262,492
498,497,493,289,494
499,496,494,346,492
496,495,493,466,493
497,495,494,585,495
498,495,494,747,495
499,495,493,791,495
497,496,493,762,494
496,495,493,681,494
500,496,493,480,494
497,495,494,331,494
497,495,493,261,491
496,496,493,246,492
497,497,494,271,493
498,495,493,298,492
499,496,494,400,493
497,495,492,519,494
499,495,493,652,496
498,494,493,781,495
497,494,493,782,493
499,495,493,744,493
500,496,493,603,493
497,496,493,394,493
496,496,493,302,493
497,497,494,240,496
497,494,493,254,492
499,497,493,277,493
495,496,493,343,495
498,495,494,451,494
497,496,493,571,494
497,494,494,730,496
497,497,493,791,494
496,495,493,771,494
499,496,493,689,493
497,496,493,507,493
497,495,493,338,493
497,496,493,275,494
498,497,493,245,492
495,494,494,263,493
499,496,493,299,493
499,496,493,389,494
498,496,493,500,494
497,495,493,632,495
498,494,494,770,493
499,495,493,781,494
498,496,493,749,493
497,495,494,625,493
496,496,492,418,492
497,495,493,308,494
496,495,494,240,492
496,497,493,249,492
497,498,492,282,492
497,496,493,334,492
497,496,493,431,493
496,494,493,555,493
496,493,493,704,494
500,496,492,790,495
499,497,493,775,495
499,496,492,718,494
497,495,494,533,493
496,496,493,351,493
496,496,493,283,493
498,498,493,245,492
498,497,493,265,492
497,494,493,289,496
496,497,494,374,494
497,495,493,482,493
498,496,493,613,492
498,498,494,762,492
498,497,493,783,494
497,495,493,762,495
500,495,494,647,493
498,495,493,441,494
497,496,493,319,494
496,494,493,252,495
496,494,494,244,493
499,496,493,272,492
496,495,494,326,495
498,496,494,420,493
497,495,493,541,493
497,496,494,686,492
498,495,494,783,494
499,496,493,779,493
496,496,494,737,496
500,496,494,558,495
497,495,494,371,494
496,495,494,293,493
498,497,494,240,494
495,495,494,263,495
496,496,494,283,492
497,497,493,357,491
496,496,493,471,493
497,495,493,594,493
497,497,494,753,496
497,495,493,793,494
499,497,493,764,495
499,496,493,673,495
499,495,493,469,494
498,496,493,322,493
496,494,493,263,492
496,495,494,241,494
496,494,493,269,494
496,494,494,307,494
496,494,493,410,494
498,496,493,526,492
496,495,493,666,495
498,497,493,780,492
498,497,493,783,493
499,497,493,748,493
496,495,493,581,494
498,496,493,383,493
496,495,494,297,494
498,495,494,246,494
498,494,494,256,494
496,496,494,283,493
498,494,494,341,492
498,495,493,458,493
497,495,493,574,493
497,495,494,734,493
497,495,493,790,493
498,496,493,763,495
497,494,493,687,492
498,495,493,493,494
497,496,493,333,492
498,496,493,272,494
499,497,494,247,494
496,496,493,263,494
497,494,493,298,491
497,497,493,392,494
498,495,494,507,494
497,495,493,640,494
496,494,493,775,494
499,495,493,779,492
499,495,493,752,492
497,497,494,609,492
496,496,493,405,492
495,496,493,307,493
495,495,493,243,492
498,496,493,250,492
496,495,493,282,495
498,495,493,337,495
497,495,493,443,495
497,495,494,559,495
498,497,493,718,493
497,495,493,795,495
499,496,493,764,493
497,497,493,703,492
496,497,493,521,493
496,496,493,344,494
497,497,494,282,492
496,494,494,243,494
499,496,493,267,494
498,496,494,297,494
498,495,494,380,493
497,495,493,492,494
497,494,494,623,493
497,493,493,764,496
497,495,494,782,493
496,495,493,752,492
496,496,493,644,495
496,496,493,427,494
496,495,493,311,493
497,497,493,246,492
496,497,493,253,493
498,497,493,281,493
499,497,493,320,492
497,495,494,431,493
497,495,493,545,494
498,494,493,697,496
499,495,493,786,495
497,495,493,771,493
500,497,493,722,494
496,495,493,548,494
497,495,493,358,493
496,496,493,287,492
495,496,494,244,492
496,493,494,259,495
498,497,493,293,493
498,494,493,370,494
500,495,493,479,494
498,496,493,606,494
498,494,493,753,493
497,497,493,787,495
497,498,494,764,493
496,495,493,653,493
496,496,493,453,494
497,495,494,322,493
496,495,493,254,495
499,495,493,247,492
497,497,494,273,495
496,497,493,318,492
499,497,493,416,493
497,495,493,531,494
498,495,493,667,493
500,497,493,786,493
497,496,493,777,496
497,495,493,739,496
497,494,493,572,495
496,495,493,376,494
497,496,494,292,493
496,496,494,248,493
496,496,493,255,492
496,496,493,284,492
495,497,494,352,492
496,495,493,464,493
497,496,493,585,493
496,494,494,749,494
500,496,493,790,495
500,495,493,763,496
498,495,493,679,497
498,497,493,480,493
497,495,493,330,493
497,495,493,259,493
496,494,493,241,492
496,495,493,270,492
496,496,493,306,495
497,495,493,403,493
497,494,494,518,495
498,496,493,652,493
499,497,493,781,494
499,495,493,781,495
497,496,493,744,495
498,495,493,599,492
497,496,493,395,494
497,495,493,300,493
496,495,493,241,493
496,495,494,259,494
499,496,493,278,491
497,495,493,343,493
497,496,493,447,493
497,496,493,566,492
498,496,494,729,493
499,497,493,786,493
497,496,493,770,495
499,497,493,690,493
498,495,493,506,494
497,496,493,339,494
496,495,494,274,494
499,498,493,249,492
496,496,493,273,495
498,495,493,296,492
496,497,494,387,492
497,495,494,501,493
496,496,493,630,494
497,498,493,773,493
496,495,493,781,496
500,495,493,752,495
500,495,493,628,496
497,495,493,420,493
497,496,493,307,494
496,495,493,247,491
497,496,493,247,493
496,495,493,273,492
497,496,493,329,492
496,496,493,434,493
498,495,493,554,493
497,496,494,708,495
497,493,493,791,494
499,496,493,773,494
498,495,493,723,496
498,495,493,530,493
497,496,493,352,494
496,496,493,284,494
496,494,493,240,493
496,495,493,261,492
496,495,493,290,496
498,495,493,371,492
497,496,494,487,494
497,496,494,614,493
499,497,493,763,493
499,496,494,789,495
499,496,494,753,493
498,495,493,652,493
497,497,493,440,495
497,496,493,317,494
496,495,493,248,496
496,493,494,246,493
496,495,493,279,495
499,495,494,318,492
498,494,494,424,493
497,495,493,538,493
498,497,494,684,492
498,497,494,789,494
498,495,493,777,494
499,496,493,731,493
496,496,493,559,494
497,496,493,367,493
496,496,493,295,495
496,497,494,242,492
495,495,493,258,492
497,497,493,284,493
496,495,494,355,493
498,495,493,471,494
498,494,493,597,495
498,495,494,750,492
497,495,493,790,494
499,496,493,764,494
500,497,493,671,494
499,496,493,469,493
496,495,493,327,494
497,496,493,259,496
497,494,493,248,493
498,494,493,267,493
496,495,493,306,492
495,495,493,408,493
496,496,493,524,494
497,496,493,661,496
498,494,493,780,494
499,497,493,779,493
499,496,493,746,494
500,496,493,579,493
496,495,493,385,493
498,495,493,297,492
497,495,493,244,496
497,495,493,253,493
496,494,493,281,493
499,496,493,349,493
497,495,493,460,494
497,495,493,576,493
497,496,494,736,493
497,497,494,792,493
498,497,494,769,493
499,495,493,680,494
501,496,493,496,493
496,495,493,335,494
498,495,493,269,495
497,494,493,245,495
496,494,493,270,493
498,497,493,295,493
495,496,493,399,494
497,495,493,507,494
497,496,494,639,492
496,496,494,773,494
497,494,493,778,494
499,497,493,746,492
496,495,493,616,495
499,497,493,405,494
497,497,492,307,494
497,495,493,239,492
496,495,493,250,494
498,496,493,283,494
495,494,493,329,493
497,495,493,440,493
497,495,493,560,493
496,495,494,721,496
499,495,493,791,493
499,495,493,765,495
499,496,493,708,494
500,497,493,523,494
497,496,493,345,493
496,495,493,275,495
498,495,493,244,492
496,497,493,262,495
497,495,493,290,493
496,494,493,377,493
497,495,493,494,494
499,495,493,621,492
498,495,494,772,493
498,497,493,788,494
500,498,494,758,495
499,498,494,644,494
496,495,493,429,494
497,496,494,311,493
496,494,493,248,496
498,494,494,246,495
497,495,494,273,493
496,495,493,323,494
499,496,493,428,494
497,495,493,552,494
498,494,494,695,493
497,496,494,788,493
498,497,493,777,493
498,497,493,727,496
497,499,493,546,493
497,495,493,360,493
497,495,493,288,494
499,497,493,248,494
499,495,493,262,492
497,496,493,287,495
497,494,494,368,493
497,495,493,478,494
497,495,493,602,493
496,494,493,754,492
496,495,493,792,496
497,497,493,761,495
496,495,493,661,493
498,496,493,452,493
497,496,493,322,493
497,495,493,260,493
499,496,494,243,492
497,495,493,273,495
497,497,493,316,495
496,495,493,414,494
497,495,493,531,493
497,495,494,670,495
500,495,493,784,492
498,496,493,778,495
496,497,493,743,493
499,498,493,571,494
497,497,493,376,493
497,495,493,291,493
499,496,493,245,492
496,497,493,259,495
498,494,493,282,494
497,494,493,348,494
496,495,493,466,494
497,495,493,583,494
497,495,494,752,495
496,496,493,791,493
498,496,493,762,493
498,497,493,677,493
498,497,493,481,495
497,495,493,327,493
498,496,493,260,492
495,495,493,243,496
497,494,493,269,495
497,494,493,303,495
496,497,493,403,494
499,495,493,518,492
498,495,493,650,493
496,494,493,775,493
497,497,493,783,493
498,497,493,744,495
497,494,493,601,494
499,495,493,395,493
497,495,494,301,495
498,496,493,245,494
498,494,493,255,495
496,497,493,280,495
496,494,493,342,493
498,496,493,448,495
497,495,493,567,494
497,495,493,723,493
497,495,493,791,493
497,494,493,767,495
498,497,493,696,495
496,495,493,508,494
497,495,493,337,493
498,495,493,275,495
499,496,493,240,492
496,496,493,263,495
497,497,493,299,492
496,493,493,383,494
497,494,493,499,494
497,495,493,630,493
500,495,493,776,493
498,496,493,788,496
497,494,493,757,493
498,498,493,627,494
498,497,493,416,493
496,496,493,307,493
495,496,493,245,494
495,496,493,248,495
497,494,493,276,496
497,494,493,326,496
497,495,493,435,494
497,494,493,554,494
498,496,494,704,493
497,497,493,795,495
498,496,493,770,492
497,497,493,718,493
498,498,493,534,494
497,495,493,350,493
497,496,493,280,492
495,494,494,248,494
498,495,494,263,495
497,494,493,290,495
497,494,494,373,494
498,495,493,486,494
498,496,493,618,494
496,494,494,759,494
497,496,493,787,492
497,497,493,759,496
497,495,494,650,493
498,497,493,438,494
496,496,494,316,494
497,496,493,252,493
499,497,494,248,494
498,496,493,278,495
496,496,493,317,496
496,493,493,422,493
497,495,493,540,495
497,494,493,681,495
497,494,493,786,493
498,495,493,780,496
499,497,493,735,492
498,495,493,557,494
497,496,493,365,493
498,496,493,291,494
499,497,493,247,493
496,495,493,261,496
499,495,493,286,492
496,495,493,358,494
497,495,493,471,494
498,496,493,594,493
497,497,494,758,494
497,496,493,789,496
499,495,493,764,493
498,497,493,667,493
498,497,493,464,493
496,495,493,325,493
496,497,494,254,494
495,496,493,247,495
496,495,493,268,496
497,494,494,309,496
497,495,493,406,494
497,495,493,527,494
498,496,493,659,493
497,495,493,789,495
499,496,493,780,493
498,497,493,746,492
498,497,493,586,494
497,495,493,387,494
497,496,493,296,492
496,495,493,247,494
498,495,494,255,495
498,494,493,280,495
496,494,493,345,493
497,496,493,455,494
497,496,492,578,494
496,495,494,736,493
496,496,493,789,493
498,497,493,766,493
498,498,494,687,496
497,495,493,491,494
497,496,493,331,494
496,495,493,269,496
500,496,493,241,495
498,495,493,268,495
497,497,493,298,493
496,495,493,391,493
497,496,493,511,494
496,495,493,638,493
496,495,494,772,493
498,496,493,784,496
497,494,493,752,494
498,495,494,609,494
498,496,493,404,494
497,496,493,305,495
499,496,493,246,495
495,496,493,250,496
497,495,494,279,493
498,498,493,331,494
496,495,494,440,494
497,495,493,559,493
498,495,493,715,493
497,495,493,793,496
498,497,493,772,495
497,495,493,709,495
500,497,493,520,494
498,496,492,342,494
497,496,493,276,493
496,496,494,244,495
497,497,493,265,493
496,494,493,290,494
496,494,493,376,493
