Sensor0,Sensor1,Sensor2,Sensor3,Sensor4

491,495,401,489,493
491,493,455,491,493
491,493,519,490,492
491,494,378,490,494
492,491,398,489,493
493,493,446,491,493
491,493,3,372,491
492,490,493,370,490
492,491,494,378,490
494,492,491,398,489
493,493,493,446,491
493,491,493,508,490
492,493,491,580,491
494,490,491,632,492
493,489,493,633,490
494,490,494,618,492
495,493,492,534,491
493,493,492,435,491
493,492,493,392,490
493,492,494,370,492
493,491,493,375,491
494,492,494,381,491
492,491,491,414,491
494,491,492,471,490
492,490,492,533,491
492,492,492,611,490
492,495,494,635,492
495,491,491,627,490
494,494,495,585,491
494,494,494,488,491
494,493,493,412,491
494,492,493,375,490
492,493,492,372,492
493,492,493,376,491
492,491,492,390,492
491,491,493,437,491
493,489,492,498,490
493,491,492,565,489
492,491,491,630,492
493,493,492,634,490
494,493,492,624,491
492,495,490,550,492
493,491,493,445,490
496,491,493,397,490
493,492,493,369,493
492,491,493,370,490
492,491,494,381,489
492,490,494,409,492
493,491,493,461,490
492,490,493,524,491
494,492,492,604,491
495,493,492,636,491
493,492,493,631,493
494,490,492,598,490
493,494,493,502,492
494,494,493,416,492
494,492,493,380,492
493,490,492,369,491
492,491,493,376,493
492,493,492,388,490
493,492,493,430,490
490,494,493,489,491
494,490,494,553,490
492,491,493,623,490
492,491,493,636,492
493,492,494,623,489
492,491,492,567,493
494,491,494,456,492
494,492,493,400,490
493,491,495,368,491
494,491,492,373,490
493,494,492,381,492
492,491,492,403,490
494,491,492,455,489
493,492,493,515,490
494,492,492,595,491
493,491,493,634,489
493,490,493,630,490
493,492,492,608,491
493,492,494,516,492
493,495,493,427,491
494,492,494,389,493
494,490,495,370,491
495,492,495,375,491
495,491,491,386,491
495,491,492,423,491
492,491,493,481,490
492,490,493,544,492
491,490,491,618,490
493,493,492,636,492
492,492,493,625,492
492,491,492,578,493
493,493,493,471,491
494,492,492,405,491
494,492,494,373,493
492,490,493,369,490
492,492,494,377,489
491,493,494,396,489
491,491,493,449,491
493,492,492,507,489
493,489,493,581,491
494,491,492,634,491
493,492,491,634,491
494,491,493,620,492
493,493,494,532,492
492,493,493,433,491
493,492,493,390,491
493,491,494,368,489
493,491,495,373,489
492,494,493,384,492
492,493,492,416,490
493,490,493,472,490
493,490,492,537,491
493,489,491,613,492
494,491,493,637,490
494,493,493,627,491
493,491,493,587,492
495,493,494,485,491
493,492,493,409,491
493,493,493,375,490
492,494,493,371,490
492,491,493,376,492
495,492,490,389,489
492,493,492,440,491
494,491,492,499,492
492,492,492,567,491
491,491,493,631,491
495,491,493,633,490
493,492,492,622,490
493,492,495,546,492
494,492,493,443,491
494,492,492,396,491
492,492,494,372,492
494,490,493,372,490
494,491,493,381,492
492,490,493,407,491
492,491,493,463,492
493,491,493,527,491
492,492,493,605,493
494,491,493,638,491
494,493,492,632,492
494,491,491,596,492
496,491,492,499,491
494,493,493,416,490
493,491,492,380,493
494,494,492,370,490
492,492,494,375,490
492,492,493,387,490
492,493,493,432,491
492,491,493,492,491
493,492,493,557,490
491,492,491,628,492
493,491,491,636,493
493,491,492,623,493
494,495,495,563,492
494,492,493,455,492
494,492,493,400,490
493,491,495,370,490
491,493,492,373,491
493,494,490,379,491
492,491,492,406,491
494,491,493,456,490
492,493,491,518,491
490,490,492,597,492
494,490,493,634,491
492,493,494,630,491
492,490,493,607,490
493,492,492,515,492
493,493,493,424,491
494,492,492,388,491
495,492,492,372,491
495,492,494,376,490
493,490,492,386,490
494,493,492,424,490
492,491,493,485,491
492,490,493,546,490
492,491,494,621,491
493,491,493,637,491
494,491,493,624,491
496,494,493,577,493
496,493,494,470,493
494,492,492,406,492
492,495,494,370,493
494,491,493,372,491
495,492,493,377,490
493,492,494,397,490
492,492,493,448,491
491,492,492,508,490
494,490,493,583,491
494,492,492,635,490
493,491,494,634,492
492,492,492,618,493
495,490,491,529,492
495,491,493,431,491
492,494,493,390,491
492,492,491,372,492
493,492,493,373,490
493,492,493,385,490
493,492,493,417,491
492,491,492,472,490
492,491,492,537,490
492,491,491,613,492
493,491,493,636,491
492,491,493,627,491
492,490,491,585,492
495,493,494,482,491
494,491,492,410,491
494,493,492,375,490
494,494,492,372,492
494,491,491,379,492
494,491,491,390,489
492,493,492,441,492
492,491,491,500,491
492,492,492,568,490
488,490,495,629,490
494,491,494,634,490
493,492,494,620,491
494,494,493,541,492
494,491,493,441,491
494,492,493,396,491
493,491,491,373,493
493,490,492,373,491
494,491,494,381,490
494,492,492,412,489
492,493,493,464,490
491,490,494,527,490
493,492,492,607,492
492,491,493,638,491
494,491,494,629,490
493,490,491,592,493
492,495,493,496,491
494,491,493,415,492
494,490,493,379,491
495,492,491,371,489
493,492,493,377,492
492,492,492,388,489
493,493,491,434,490
493,491,493,494,491
493,491,493,558,489
490,491,492,627,491
494,492,492,636,491
493,492,493,622,490
493,492,495,557,491
493,492,494,453,492
494,491,491,399,490
494,493,493,369,492
492,492,490,373,491
494,492,491,380,492
492,491,491,406,492
493,492,493,456,490
493,491,492,517,490
493,491,492,596,490
492,491,493,633,489
493,493,493,631,490
494,493,493,605,490
494,494,493,509,491
494,493,493,421,490
492,491,493,384,492
495,491,491,369,492
493,490,493,375,491
492,491,493,385,490
495,492,491,424,490
491,493,492,486,490
493,491,492,550,490
494,492,493,620,489
494,492,492,637,491
493,492,493,624,490
494,491,492,573,490
494,492,493,465,492
494,492,491,402,491
493,492,493,368,491
492,493,494,372,492
492,490,493,379,490
493,491,491,398,492
493,492,492,451,490
493,490,493,510,490
494,491,492,586,491
490,492,492,633,490
496,492,492,630,490
492,493,492,618,491
496,491,496,523,490
495,492,493,428,490
493,492,493,391,489
492,492,491,370,491
493,491,491,375,489
492,490,493,386,491
493,489,491,418,491
493,491,492,476,490
493,491,492,540,490
493,491,493,612,490
492,491,491,638,491
493,492,493,628,490
494,493,493,581,489
494,493,493,479,490
492,493,492,407,491
493,493,491,371,489
492,490,492,370,491
492,489,492,377,491
492,491,493,392,490
490,491,493,442,490
492,491,491,505,491
493,492,493,572,491
492,490,492,632,491
492,492,491,634,491
492,492,492,621,492
496,492,492,539,492
495,492,492,439,491
494,493,492,394,490
492,491,493,368,491
493,491,493,371,489
492,492,493,382,489
493,490,491,411,490
494,492,492,466,490
492,491,492,530,490
493,490,490,608,491
494,490,491,635,491
493,490,493,630,490
494,490,492,587,491
495,493,492,492,490
493,491,493,412,490
492,492,492,377,489
493,493,493,369,489
494,491,492,376,491
492,491,491,390,490
495,492,494,434,489
492,490,492,496,491
493,490,491,560,490
491,492,492,625,489
492,491,491,636,490
494,491,493,623,492
494,490,494,554,490
494,491,493,449,490
493,492,492,397,490
494,492,495,368,490
492,490,491,371,491
494,493,492,381,491
492,490,492,404,491
492,491,492,458,490
492,491,493,519,490
493,490,491,600,489
493,492,492,634,490
491,492,492,633,491
494,491,492,604,492
496,492,492,508,492
493,493,493,419,491
493,491,493,385,492
493,490,492,370,490
494,491,494,375,489
492,490,493,385,489
492,493,492,427,490
493,493,492,487,490
490,494,491,552,490
492,490,493,619,490
494,490,492,636,492
492,489,492,624,491
492,490,492,569,490
494,493,492,462,491
493,491,491,403,491
493,493,494,369,489
492,492,492,372,490
494,492,491,379,490
494,491,493,398,489
491,492,491,452,490
492,491,492,513,491
491,491,492,587,491
491,489,492,632,490
492,492,493,630,489
491,493,492,617,493
496,493,494,522,491
494,492,493,428,490
494,493,492,391,491
495,492,491,372,490
495,490,492,374,489
493,494,493,384,491
492,490,491,419,490
493,491,492,477,490
490,492,492,540,489
491,491,493,613,489
493,490,492,636,491
494,492,491,628,491
493,490,494,582,491
494,491,493,477,492
493,491,492,408,492
494,491,492,373,489
493,493,492,369,490
491,491,491,379,491
492,492,494,394,489
492,492,493,444,490
492,490,492,505,490
493,492,491,574,490
491,490,494,633,491
492,491,493,633,489
494,490,493,619,492
493,490,493,536,492
493,491,492,438,490
492,492,492,394,490
492,491,494,369,492
493,490,491,373,490
494,493,492,383,490
494,492,491,413,490
494,491,492,466,490
492,492,492,532,491
492,491,493,608,489
493,491,493,635,490
490,492,494,628,490
493,492,495,587,490
494,492,493,491,491
493,492,493,413,491
493,491,492,378,490
494,493,492,372,491
493,491,492,378,492
493,490,491,390,492
493,494,493,437,489
492,491,492,497,490
493,492,492,563,489
491,492,494,627,490
492,493,493,635,490
495,493,492,621,491
491,491,492,553,491
494,491,492,447,490
494,492,491,397,491
493,491,492,371,492
492,490,492,371,491
494,492,491,382,490
491,492,494,408,491
493,490,493,460,489
492,493,493,521,489
488,495,491,603,490
494,491,492,633,490
494,490,492,631,491
493,493,494,598,493
494,491,493,503,492
494,492,492,419,491
493,491,493,382,491
492,491,493,370,491
492,493,493,377,490
493,490,493,385,491
493,494,491,431,490
493,493,491,489,490
494,491,492,554,492
491,493,494,622,491
493,489,494,637,491
495,491,494,623,490
493,493,496,566,490
493,492,494,461,491
494,491,491,402,491
493,494,491,371,490
492,491,493,370,491
493,492,492,381,491
495,490,492,404,492
494,490,492,454,491
494,491,492,514,490
490,491,492,592,490
495,490,493,633,489
493,492,494,631,489
493,493,494,611,490
493,494,493,520,491
494,491,493,426,490
494,492,492,387,490
493,491,491,372,491
493,491,493,375,491
492,491,493,384,491
492,490,492,422,490
493,491,493,479,490
493,491,492,544,489
493,492,493,617,489
493,493,492,638,490
493,492,491,628,490
493,493,495,579,492
494,492,493,472,491
494,492,491,406,491
493,491,493,370,491
492,491,494,370,490
491,490,491,379,491
493,493,494,396,491
492,490,492,447,490
493,492,492,506,489
493,492,491,579,490
493,491,492,633,491
493,490,493,632,490
493,492,493,617,492
494,494,492,535,491
493,491,492,433,490
492,492,493,391,490
491,494,494,369,492
492,489,493,374,490
494,491,493,382,490
492,490,490,415,490
493,491,492,470,490
492,491,492,533,490
488,493,492,610,489
493,491,493,635,491
493,491,491,627,490
494,493,495,584,490
494,494,493,487,491
493,493,492,410,491
492,490,492,377,491
493,491,493,369,489
491,491,492,376,491
494,489,492,390,491
493,490,493,437,490
491,490,493,499,489
494,490,491,565,489
491,493,491,630,491
492,491,492,634,491
494,491,491,622,490
491,494,492,550,491
495,491,493,445,491
496,490,491,395,490
493,493,493,369,493
492,490,493,370,489
492,491,494,380,489
492,491,495,410,492
494,490,493,461,490
493,492,493,524,491
493,492,492,605,491
495,492,492,636,492
494,491,493,631,492
493,493,494,597,493
493,491,493,501,491
494,492,493,416,491
493,491,494,380,490
493,493,495,370,490
494,493,493,378,491
493,491,493,385,492
495,493,492,432,490
493,491,493,491,492
494,491,492,557,492
493,492,493,624,491
492,491,494,637,491
494,491,494,624,490
493,493,492,566,492
493,492,494,456,492
495,492,493,401,490
494,495,493,370,490
489,492,492,371,492
496,491,492,379,489
492,493,491,405,492
494,490,492,456,491
494,491,492,515,491
492,490,493,594,490
491,491,493,632,491
494,491,492,633,490
492,492,495,609,491
493,493,494,516,491
494,494,493,425,492
493,496,492,387,493
492,492,492,372,491
496,493,495,376,490
494,492,493,386,493
492,489,493,422,491
494,490,493,482,490
493,491,492,548,490
492,492,494,621,491
493,490,494,638,491
492,491,492,628,492
496,495,492,578,491
496,493,493,470,491
493,491,492,405,492
490,494,493,371,492
492,493,492,369,491
492,490,494,377,490
493,493,495,396,492
495,491,493,448,491
493,491,493,509,492
493,494,494,584,490
494,494,493,634,492
495,492,492,633,492
495,492,492,619,491
492,493,494,530,492
493,492,493,431,491
494,493,493,390,491
493,490,493,368,490
493,492,493,372,489
493,493,492,385,492
494,492,493,416,490
493,491,492,472,490
493,493,492,537,491
491,493,490,612,492
495,490,492,636,490
495,493,493,627,491
492,490,492,585,491
495,492,494,482,491
494,492,493,409,491
493,492,493,375,489
493,492,493,369,491
494,492,491,380,490
493,492,494,394,491
495,491,492,440,491
494,491,492,501,491
493,491,492,567,490
492,491,492,631,491
493,492,493,634,490
494,491,493,621,490
494,494,494,546,491
494,493,493,443,491
494,493,492,395,490
492,492,494,373,491
494,490,493,371,489
494,491,493,380,491
490,491,493,407,491
493,490,493,463,491
493,492,492,526,491
492,492,493,605,492
493,491,492,637,491
492,493,492,632,491
495,490,491,595,492
496,492,490,496,491
494,493,493,416,491
493,491,495,380,490
492,491,494,368,489
492,492,495,376,490
493,492,494,388,489
493,494,492,431,491
493,491,493,494,490
491,492,493,557,489
493,491,492,628,491
495,490,493,636,492
493,490,493,623,491
492,495,492,562,491
493,492,494,454,492
494,492,492,399,490
493,492,495,369,489
493,492,492,374,491
494,493,491,378,490
493,492,492,406,491
494,492,493,456,491
492,491,492,518,490
492,490,493,596,491
492,491,493,633,491
495,492,492,632,489
493,493,495,609,493
495,491,493,513,491
494,493,493,422,490
493,492,492,388,491
494,493,491,372,491
495,493,494,375,489
493,490,492,386,489
493,492,492,424,490
493,491,492,485,490
492,492,492,548,490
488,493,493,621,492
494,490,493,637,490
492,492,492,624,491
495,492,492,575,491
496,490,493,468,491
493,491,492,405,492
493,492,493,370,492
493,491,494,372,491
495,491,493,377,489
493,492,495,397,489
492,492,493,449,490
492,491,492,510,491
492,493,492,585,490
491,491,494,632,491
494,491,492,632,492
493,491,494,617,492
494,491,494,528,492
494,492,493,430,490
494,493,494,390,490
492,491,491,372,492
492,493,492,374,489
493,492,492,385,490
494,493,492,417,490
492,491,492,472,490
493,492,492,539,490
492,492,491,614,492
492,491,492,636,491
491,491,493,627,490
492,491,490,585,491
495,493,494,480,491
493,491,493,410,491
492,494,493,374,490
494,494,492,371,491
494,491,491,379,490
493,492,492,394,491
493,491,494,442,489
491,489,493,503,490
493,490,493,569,490
492,491,493,630,489
493,492,493,634,489
493,490,493,619,489
494,494,493,541,492
494,492,493,440,491
495,493,492,394,491
494,492,491,372,492
493,490,492,373,491
495,492,494,380,490
494,493,492,412,490
492,491,493,465,490
493,491,494,527,489
492,492,494,606,492
493,491,493,636,491
494,493,494,629,490
492,491,492,593,493
496,492,491,494,492
495,493,492,414,491
492,492,491,379,491
493,491,489,367,490
493,493,490,374,490
493,491,492,385,489
493,492,493,433,489
493,491,494,494,490
493,491,493,559,490
493,491,493,628,491
493,492,494,635,492
495,490,492,622,491
494,492,492,555,491
491,494,493,453,491
495,491,492,397,490
493,493,491,371,492
493,494,492,373,490
493,492,492,380,491
495,492,492,406,490
490,492,493,456,490
493,490,492,518,490
493,492,493,598,492
495,490,492,633,490
497,492,494,629,489
498,494,496,607,493
501,493,494,509,491
499,493,494,419,491
493,492,492,386,491
490,492,491,371,491
492,490,492,376,491
491,490,492,385,489
489,493,492,424,491
492,491,493,485,490
492,489,493,550,490
491,490,494,619,489
493,492,494,637,490
491,492,494,625,491
492,493,492,573,491
492,492,494,466,492
493,492,491,405,492
497,491,491,370,492
497,491,492,373,491
496,492,493,378,490
496,491,492,402,491
495,492,494,452,489
492,491,492,510,490
486,492,492,586,490
488,491,494,633,491
491,492,492,631,489
491,493,494,616,493
494,490,493,524,492
494,492,492,428,491
493,493,493,389,490
491,492,492,373,492
491,493,493,374,492
491,491,493,386,490
493,492,492,419,490
494,492,492,476,490
495,492,493,540,489
495,492,491,616,492
496,495,493,638,490
489,492,494,626,490
493,489,493,578,490
493,492,493,477,491
493,492,492,410,491
491,492,492,371,492
492,490,491,372,491
494,490,491,379,491
493,489,492,395,491
493,491,492,442,489
491,491,491,504,491
494,490,490,574,489
491,490,494,631,489
490,493,492,633,490
493,492,492,619,489
492,495,493,538,491
492,491,492,438,491
494,491,493,391,489
493,491,492,371,492
491,490,493,371,492
491,491,493,380,490
491,492,492,413,490
490,492,493,468,490
494,491,494,531,490
493,494,493,609,490
495,492,491,637,491
499,492,494,629,490
500,491,492,592,493
504,493,492,491,492
504,493,492,414,491
503,491,494,378,490
501,490,492,368,490
488,490,492,376,489
486,491,491,390,492
484,492,492,436,489
485,492,492,496,490
489,491,491,563,490
490,491,491,627,491
490,492,494,634,492
492,490,493,623,489
495,495,491,550,491
489,491,492,449,491
498,490,492,396,490
497,492,491,371,491
495,491,493,372,490
492,491,493,378,490
493,493,491,408,491
490,490,492,459,490
483,491,492,519,489
486,492,494,600,491
487,490,492,635,491
491,492,493,628,489
488,492,494,599,490
491,493,495,507,491
490,494,494,419,491
491,492,493,385,491
490,491,494,371,491
493,491,492,377,491
494,490,493,388,492
496,489,491,428,490
498,491,493,487,490
497,491,493,552,489
496,490,491,624,488
499,491,494,637,490
497,493,492,628,491
500,494,493,570,490
496,493,494,463,491
488,491,493,401,490
489,491,493,370,492
489,491,492,371,490
487,491,493,379,490
491,491,491,404,491
493,490,493,452,491
486,490,492,513,490
488,492,492,591,489
485,497,492,635,491
494,488,491,630,489
492,494,492,613,492
495,495,492,521,491
495,493,492,427,490
493,493,492,387,490
499,489,494,369,490
497,490,493,375,491
489,489,493,386,490
492,491,494,418,490
489,490,493,480,489
494,491,492,544,490
495,490,492,617,491
496,493,492,637,490
494,491,494,627,492
495,492,492,577,490
495,493,495,475,490
494,492,494,408,490
495,492,492,371,491
497,490,492,373,491
496,492,493,379,490
492,491,491,396,491
485,490,493,445,490
490,491,493,505,490
489,491,491,577,489
486,491,494,633,491
491,490,493,634,490
496,493,492,621,490
493,494,492,536,492
493,493,492,436,492
495,492,494,391,490
492,490,494,371,489
493,492,494,371,489
493,491,495,382,489
494,492,494,413,489
501,492,494,471,490
499,491,493,534,489
496,488,493,610,490
499,490,492,638,491
491,491,492,630,491
486,490,493,589,492
496,493,493,489,491
492,491,493,412,490
482,491,493,375,490
489,492,494,370,490
491,492,493,379,491
489,492,492,389,491
491,492,491,438,490
489,491,492,498,491
489,491,490,566,491
491,491,492,628,490
489,493,493,634,490
489,493,495,623,492
498,491,497,549,491
493,492,493,447,492
494,491,493,396,490
494,492,493,371,489
493,491,492,373,492
492,491,494,380,491
494,490,493,408,490
497,492,492,461,491
501,490,494,522,489
507,490,496,603,489
508,491,493,636,492
495,492,493,632,491
490,491,494,597,491
497,495,493,503,492
485,496,494,418,491
485,490,492,383,491
479,494,490,368,491
488,493,492,378,490
492,491,494,386,489
491,491,494,429,488
489,491,494,490,490
492,491,492,556,490
490,491,493,621,490
493,491,493,636,490
493,492,493,625,493
494,490,493,565,492
492,491,494,461,491
493,490,493,403,491
490,493,494,368,489
495,490,493,373,490
494,492,493,381,490
494,492,493,404,489
491,493,493,456,490
497,489,493,515,490
497,490,493,593,489
496,490,494,633,491
489,491,494,630,490
490,493,495,610,490
487,491,492,520,492
490,492,493,425,491
490,491,493,389,490
493,493,492,372,490
493,492,491,376,491
492,492,492,385,492
492,491,494,422,490
491,491,493,480,490
492,491,493,546,490
491,490,494,616,490
490,492,494,637,490
491,492,493,628,491
489,491,493,579,491
493,493,495,472,492
493,493,492,407,491
496,493,492,373,492
498,491,493,370,491
497,492,492,381,491
493,493,494,395,492
492,489,493,447,490
492,489,493,507,490
494,491,493,580,490
490,494,493,632,490
491,490,492,633,491
490,493,495,619,490
491,492,493,532,492
493,491,493,433,491
491,490,494,391,490
489,491,494,369,492
492,492,493,374,490
493,494,494,384,491
493,494,493,416,490
497,493,495,473,490
501,493,493,536,490
501,492,494,611,490
497,493,492,637,490
497,492,493,628,490
488,490,493,584,491
483,493,493,486,491
488,493,494,413,491
491,492,494,377,490
490,492,494,370,491
490,494,493,381,491
494,493,492,394,491
496,492,492,439,491
492,493,494,501,491
490,492,493,570,489
497,493,495,629,489
496,492,494,635,490
498,495,495,623,490
496,492,496,548,490
490,487,494,445,491
487,488,492,395,490
487,490,495,372,492
492,486,492,372,491
494,487,493,380,490
496,489,493,411,491
498,490,493,462,490
494,492,492,525,490
487,494,493,606,490
489,498,493,637,491
494,502,492,631,491
493,505,495,594,493
495,505,493,498,491
492,507,494,416,492
492,505,493,379,491
492,500,493,368,489
491,497,493,378,491
493,490,495,388,489
491,480,493,431,490
492,489,493,493,491
492,491,492,558,491
492,489,492,625,491
492,492,493,637,490
493,492,494,622,490
493,492,493,564,492
491,491,494,455,491
495,487,494,400,490
493,491,494,369,489
488,490,492,371,491
491,488,491,378,489
493,489,491,405,492
492,489,492,456,491
493,489,492,515,490
494,490,493,596,490
497,490,494,634,490
496,490,491,630,490
490,492,494,608,491
482,492,495,515,491
491,491,495,424,490
493,487,495,389,492
492,488,495,369,490
489,491,493,375,491
492,489,494,386,490
491,491,494,424,489
492,495,493,484,489
494,493,493,550,489
493,492,493,620,491
492,493,494,639,491
493,492,492,629,492
491,493,492,577,492
492,494,494,469,492
491,497,493,406,492
495,498,493,373,491
493,497,494,371,490
492,493,494,380,490
494,493,495,398,492
493,494,492,450,491
492,500,493,510,491
491,502,492,585,493
491,497,492,634,492
492,489,494,632,491
491,488,493,619,491
492,490,495,530,492
494,492,494,432,491
492,493,493,391,492
494,494,494,371,493
494,491,492,375,493
489,492,494,383,492
487,491,492,418,494
491,494,493,472,489
491,493,493,538,488
490,494,493,612,490
490,495,494,636,491
491,496,492,630,490
490,500,492,585,495
490,490,493,483,494
489,490,493,411,494
492,485,492,377,493
494,491,494,369,489
492,491,493,379,489
493,493,492,391,489
492,493,494,440,491
493,491,493,503,491
493,493,493,571,491
495,492,495,632,489
493,492,494,633,489
494,490,492,623,491
495,495,493,546,495
494,496,493,443,493
493,491,493,394,492
492,493,494,370,493
492,490,493,374,493
495,497,494,381,491
493,496,494,409,492
493,497,493,464,491
494,495,495,527,490
495,496,493,609,491
490,500,494,638,494
491,500,492,631,495
493,495,494,594,496
496,493,495,498,495
495,491,494,415,495
492,492,492,382,495
493,495,494,370,491
494,504,493,379,492
492,500,492,390,491
491,490,492,430,489
492,490,491,493,488
487,495,492,559,489
493,498,493,625,490
495,500,494,634,489
492,491,494,623,488
494,495,492,560,492
496,492,494,453,491
493,486,492,398,490
495,493,493,371,489
495,488,492,373,491
495,490,493,379,489
489,494,493,403,490
486,495,492,458,489
493,491,493,517,489
494,488,495,597,487
498,481,495,636,490
489,486,493,630,492
490,492,492,604,494
491,495,492,512,495
496,500,494,422,495
496,499,494,388,494
494,490,495,372,494
495,495,495,376,492
496,496,493,389,491
490,505,494,426,488
489,508,493,486,487
489,499,492,551,489
492,484,490,618,491
491,491,492,638,494
494,497,494,627,492
495,497,495,573,493
494,495,494,467,492
492,494,493,404,492
494,491,492,372,488
491,486,495,372,490
490,479,492,381,490
494,493,492,402,490
495,495,493,452,490
495,494,492,510,490
492,488,491,584,493
493,488,494,635,494
496,486,495,632,492
497,493,496,615,494
494,498,496,528,497
497,490,494,431,495
498,491,496,390,494
492,493,494,374,492
494,490,492,375,490
493,492,493,385,490
490,493,492,417,490
492,495,492,475,489
492,497,493,542,491
491,500,494,615,491
492,495,493,638,491
494,495,491,630,494
495,507,492,580,493
494,509,491,480,492
495,505,493,408,491
496,502,492,373,493
496,503,494,369,491
495,493,494,377,492
492,497,489,392,488
494,493,490,442,490
495,492,491,502,490
493,486,490,573,490
494,497,491,631,491
494,499,496,633,489
491,480,496,619,494
492,493,492,538,496
492,496,491,439,494
493,498,492,392,495
494,500,493,368,494
494,500,491,372,494
495,500,492,382,490
491,489,494,408,489
494,485,492,466,490
497,501,491,529,493
496,503,491,608,490
495,509,491,634,490
494,508,490,631,495
498,499,493,588,492
495,480,493,491,494
496,491,493,413,492
496,492,492,377,496
497,486,491,370,493
495,490,494,378,494
495,487,490,389,494
498,500,489,433,491
496,507,490,494,490
497,500,491,559,489
493,492,493,628,492
491,494,496,635,495
490,499,498,625,495
491,497,497,557,496
492,497,497,453,497
492,498,495,399,497
494,504,496,369,490
492,509,494,371,487
490,505,495,379,485
491,498,494,404,485
486,484,491,461,489
486,495,493,519,491
490,490,492,602,489
497,496,489,636,488
495,486,490,631,489
497,493,487,602,489
498,501,483,506,494
500,507,486,417,492
495,502,489,380,496
495,491,489,366,499
498,499,494,375,498
496,486,497,386,495
491,483,496,425,494
489,491,496,487,495
494,503,494,554,497
494,502,495,624,492
496,500,496,636,487
495,485,492,628,492
497,499,494,568,491
496,493,492,462,491
493,491,493,401,490
493,502,497,370,491
493,499,494,372,502
493,500,493,383,506
496,515,496,401,503
495,508,491,454,506
496,500,492,514,505
496,503,492,587,496
492,494,491,636,488
493,488,494,632,486
494,483,491,613,483
494,497,492,524,488
496,501,495,429,488
498,499,487,386,486
495,486,485,371,490
498,481,489,372,492
496,504,488,383,492
495,513,492,417,489
495,518,499,478,487
501,502,502,544,484
494,489,500,618,486
498,499,500,639,485
497,486,494,633,488
497,507,490,584,494
493,505,490,480,500
495,490,491,409,502
496,489,492,374,500
496,493,494,370,497
499,497,491,378,499
503,497,492,396,500
499,503,492,445,499
496,485,492,504,494
490,489,485,573,496
502,490,490,632,513
502,491,493,635,518
506,500,494,619,508
499,492,501,539,515
492,519,501,442,518
494,545,500,396,502
492,509,488,368,478
490,469,486,371,472
495,481,492,382,476
496,483,495,410,485
501,482,494,466,484
498,496,492,532,485
498,513,487,608,482
496,507,493,634,479
494,477,495,631,482
501,503,500,591,487
502,531,499,493,493
498,536,489,416,498
500,537,484,379,498
502,530,484,369,491
495,491,491,375,487
486,479,491,387,485
495,476,490,433,489
501,469,493,496,494
504,460,495,563,499
505,475,491,628,499
501,505,494,638,496
496,509,498,626,493
498,526,495,555,489
499,509,490,448,492
500,496,485,395,495
506,515,485,370,497
507,502,484,367,484
494,476,487,376,484
494,506,491,406,501
498,519,502,463,509
491,509,500,523,507
498,496,497,606,502
501,503,495,638,504
506,503,493,630,498
506,510,476,595,483
511,528,462,497,486
509,573,466,410,491
499,526,480,374,485
497,469,495,363,489
492,484,505,375,494
485,496,501,386,497
487,490,505,429,497
490,517,503,493,498
498,499,492,555,489
495,462,491,621,492
502,503,494,638,493
501,505,497,628,507
505,501,493,571,518
512,538,497,464,516
508,537,498,403,507
493,501,496,371,503
491,485,493,371,494
493,521,483,376,490
495,511,479,399,494
497,471,483,448,497
498,468,485,509,498
494,496,498,590,498
497,515,505,637,503
500,497,501,631,491
507,513,483,612,485
511,517,482,515,482
509,538,490,424,490
508,551,493,386,496
505,559,500,369,495
495,473,494,372,498
488,446,491,383,503
483,441,484,418,501
488,464,476,474,499
490,479,482,540,499
497,502,480,613,505
508,497,483,631,498
507,509,493,623,507
503,541,497,574,504
498,531,497,471,503
497,524,497,405,504
497,517,488,369,513
504,554,485,371,510
507,567,487,373,491
508,468,491,393,484
507,444,495,441,481
503,428,499,503,479
501,451,501,578,488
499,494,493,633,495
496,512,483,633,492
496,542,492,619,487
494,568,491,534,491
498,557,489,433,508
508,547,483,389,508
506,459,490,363,502
506,444,489,367,491
500,524,500,382,491
494,560,494,411,494
487,522,490,469,500
492,515,493,532,493
498,478,490,609,488
499,469,487,634,482
495,491,484,626,487
500,466,478,583,494
504,475,481,482,509
509,487,486,406,509
506,476,484,367,504
492,536,499,367,500
497,572,506,378,487
505,533,511,393,485
498,483,498,438,486
489,502,484,499,509
494,530,478,567,523
508,509,477,627,527
512,474,499,635,523
516,517,505,622,513
500,515,501,550,491
490,474,497,441,483
482,483,484,390,482
485,485,479,363,481
490,479,473,366,486
494,484,475,369,483
499,488,481,399,491
507,531,496,461,501
516,534,495,521,497
516,529,488,600,496
515,507,480,630,490
499,520,482,623,486
481,517,492,591,480
479,453,496,495,489
493,478,503,417,499
499,497,503,385,506
497,496,498,371,502
503,483,494,378,497
505,488,495,386,499
506,525,489,429,492
504,536,488,492,517
495,508,491,558,524
495,498,489,623,526
498,483,482,635,515
509,533,483,622,496
511,527,474,556,479
505,533,464,449,498
504,555,488,391,491
491,418,497,357,478
478,444,511,369,479
477,455,508,378,482
492,464,490,399,482
502,485,483,453,497
511,499,479,513,514
516,524,493,594,522
513,570,507,641,514
507,620,513,639,517
493,547,514,616,514
494,466,502,521,498
481,462,484,420,482
475,450,486,383,464
480,476,492,369,482
495,489,473,374,491
512,509,481,384,485
527,518,482,420,492
523,537,457,474,513
519,536,473,539,531
509,483,474,607,534
487,470,492,627,510
483,460,517,622,493
484,463,510,573,483
481,480,496,468,484
489,518,499,405,472
498,538,500,376,487
510,563,492,375,499
516,558,479,378,502
516,477,484,393,506
515,477,485,442,503
490,456,484,502,494
491,503,497,577,482
488,481,510,633,497
498,490,499,636,500
504,518,494,617,494
507,568,487,533,483
510,550,481,428,482
502,511,485,386,485
497,477,481,364,488
486,431,474,365,497
486,446,479,376,505
488,467,489,409,512
494,491,485,466,510
501,502,507,538,533
498,531,518,618,538
503,523,515,644,508
505,552,508,637,516
508,519,487,585,497
496,514,463,477,477
492,505,471,403,480
502,493,486,368,489
505,489,497,366,490
494,472,497,377,495
497,478,501,396,508
504,500,496,439,487
491,493,492,499,474
495,520,486,568,477
512,536,487,628,499
517,517,457,624,499
505,470,458,606,493
492,475,472,534,512
496,483,502,438,517
502,504,519,392,494
498,538,517,374,497
478,522,499,373,492
482,485,489,379,492
498,478,496,410,486
507,477,500,465,487
512,491,506,530,495
514,498,496,610,502
507,514,490,639,500
509,521,489,632,499
497,519,489,595,512
498,515,492,496,502
492,519,493,415,502
486,498,492,379,508
489,467,485,366,501
485,468,477,373,499
501,483,469,379,485
508,476,492,428,483
508,500,501,493,503
508,538,510,565,518
503,549,509,631,506
500,528,497,637,490
495,524,486,623,485
492,488,481,555,493
495,445,468,445,491
502,460,468,389,490
505,470,482,359,493
504,480,495,367,488
498,518,508,379,497
503,554,509,411,519
505,555,501,462,530
493,476,502,519,514
485,466,496,596,488
482,473,496,634,480
487,496,478,628,473
490,484,481,602,481
491,487,485,510,493
501,494,488,424,514
497,499,504,389,505
493,500,502,371,504
495,510,497,378,497
492,494,494,388,509
491,487,490,424,503
491,487,491,483,485
500,491,497,549,478
506,514,495,621,490
504,509,474,634,497
511,481,455,620,505
520,523,459,564,494
517,516,473,455,501
505,522,510,399,479
499,506,518,368,481
495,488,499,366,491
500,479,489,376,491
499,505,491,395,486
489,503,489,446,489
487,473,485,508,509
496,521,513,591,521
502,531,509,641,536
492,519,507,640,528
503,512,501,620,503
501,496,499,530,494
491,515,493,432,489
487,504,485,387,477
493,449,480,363,482
495,462,455,363,488
499,480,470,376,488
497,482,483,406,483
497,490,509,473,484
498,500,508,537,480
484,489,503,614,489
495,481,498,635,476
501,472,496,627,473
504,482,487,586,497
518,508,495,484,514
518,544,496,413,503
501,568,498,380,497
494,527,493,369,491
479,491,492,379,487
494,507,488,392,488
498,462,507,443,494
497,479,500,505,495
490,488,485,574,503
499,506,487,631,514
504,492,480,633,539
517,502,480,621,524
524,481,486,539,502
499,475,480,432,489
480,463,470,380,490
477,473,472,361,517
493,516,489,364,492
495,514,516,378,473
481,519,499,406,488
484,527,494,464,498
498,542,490,526,492
508,482,494,607,484
516,475,499,635,474
506,482,477,624,479
499,480,482,589,490
496,485,498,493,478
493,493,509,415,491
495,495,515,387,505
499,512,513,377,498
505,500,497,383,495
504,507,488,396,505
503,542,481,433,503
494,503,483,493,500
498,492,496,563,506
496,493,497,627,492
495,507,500,635,499
491,491,485,626,520
500,490,485,553,503
498,475,491,450,493
487,463,498,394,474
485,483,504,371,476
487,501,501,376,479
483,491,476,376,486
498,494,442,394,486
515,495,453,446,500
524,497,486,510,507
507,495,516,594,493
482,492,528,638,499
490,495,502,631,494
497,499,486,603,489
511,488,488,509,487
516,497,495,421,487
505,495,502,388,493
509,519,508,378,518
509,535,511,383,515
506,538,501,395,514
491,553,496,432,506
487,529,493,486,489
480,456,492,550,490
486,465,462,616,489
496,471,456,625,486
502,502,472,618,502
496,515,490,566,504
501,465,526,466,502
499,494,512,407,500
488,512,496,372,482
485,497,500,372,480
483,462,497,381,478
486,458,497,402,483
495,486,496,455,491
499,505,499,516,505
505,523,481,589,505
507,529,473,633,490
505,536,478,626,482
495,523,493,610,489
497,470,491,521,496
500,468,492,425,485
484,455,484,383,486
489,476,496,370,480
499,484,498,376,493
502,516,499,387,502
496,504,498,421,506
492,477,498,478,512
483,482,496,543,512
480,495,494,614,486
485,485,495,637,490
498,497,486,628,492
505,486,487,580,490
506,483,494,478,488
506,523,507,412,506
501,547,506,380,521
497,565,496,374,509
491,524,494,379,495
483,476,486,391,485
484,442,477,437,475
490,445,485,500,480
497,473,492,574,485
495,496,499,632,486
509,520,503,636,490
510,511,488,620,497
504,486,476,535,513
500,483,466,430,495
492,473,472,380,477
488,478,477,360,470
491,483,486,364,480
497,475,506,379,509
495,512,513,416,512
499,507,497,469,512
490,503,509,535,506
490,510,507,613,494
490,512,500,640,490
498,501,497,634,476
491,526,500,592,486
497,547,496,496,488
501,486,493,413,485
500,472,493,379,496
499,462,484,371,496
503,483,481,377,495
504,508,486,392,499
506,524,494,434,494
494,455,488,492,490
496,444,494,562,495
515,506,485,628,492
510,494,494,636,496
492,513,506,627,494
480,483,495,553,490
479,470,486,446,494
484,482,480,391,497
490,492,482,366,485
499,497,489,368,484
493,514,500,379,488
491,517,496,404,497
498,533,500,464,503
497,522,499,522,509
492,484,492,604,510
495,481,490,638,514
501,495,486,632,500
497,530,487,599,493
495,507,489,503,486
492,448,493,414,482
491,459,504,382,482
490,472,507,371,475
485,473,502,378,479
490,477,500,391,488
493,482,493,431,492
494,476,493,491,488
495,477,493,558,480
494,490,496,626,479
493,501,492,638,487
490,512,489,627,496
503,503,486,571,499
503,531,481,459,495
499,515,500,404,496
499,479,501,369,482
496,497,498,372,495
492,493,498,385,498
493,502,496,400,480
496,507,491,456,495
502,516,493,517,505
497,513,495,590,502
494,479,493,637,499
495,497,497,634,487
492,476,495,612,478
484,458,494,523,493
486,479,496,430,508
490,492,495,389,506
490,476,491,375,507
491,490,493,376,484
491,489,496,384,481
492,494,495,421,486
495,490,491,478,486
493,494,486,544,491
500,496,485,616,494
509,504,465,631,484
516,514,460,619,485
518,510,472,572,492
506,489,494,467,487
494,470,507,402,485
486,484,514,373,486
490,487,517,372,486
490,492,511,384,489
489,494,500,400,489
490,492,494,447,496
489,489,491,510,502
501,488,494,579,504
503,492,499,636,498
492,497,491,635,493
485,513,494,620,475
491,514,496,537,488
487,517,496,438,490
497,528,483,391,497
493,504,488,369,499
495,490,492,377,498
499,495,498,382,496
493,465,496,415,489
485,483,496,470,483
488,476,495,533,489
494,492,499,612,491
491,487,501,639,487
490,483,498,632,486
493,490,499,590,487
495,492,496,493,489
495,491,497,415,488
495,486,496,382,489
493,485,494,374,487
492,485,494,381,491
494,490,495,394,487
495,491,495,438,487
492,487,495,502,491
493,489,496,568,490
490,488,492,631,491
493,492,493,639,495
493,496,498,628,496
498,500,496,554,496
497,496,495,449,489
495,486,494,397,479
497,491,495,370,485
493,490,493,376,489
491,493,495,382,490
492,492,497,408,481
492,491,496,463,482
492,487,495,525,488
488,493,496,607,491
494,496,496,638,495
493,484,494,633,496
494,484,494,602,496
494,489,496,507,491
496,496,496,421,491
494,495,496,384,491
495,493,491,372,491
493,493,490,378,489
497,496,492,390,489
497,491,491,429,488
498,491,493,489,487
494,496,493,557,488
492,494,490,623,491
494,507,492,635,493
492,498,494,625,495
497,513,494,569,496
496,493,501,460,494
495,473,493,402,494
493,482,489,369,493
492,486,491,373,491
493,493,494,382,481
492,485,498,402,483
493,486,497,455,488
496,490,494,515,488
501,489,490,591,487
499,491,492,635,488
501,492,494,632,491
507,492,496,615,489
508,492,506,521,489
494,492,500,427,489
479,491,499,390,490
484,490,497,375,489
480,491,496,380,488
486,491,497,390,490
491,490,497,426,489
491,491,496,484,489
492,492,496,549,489
494,493,496,621,490
495,491,495,641,491
499,493,498,632,492
498,492,496,581,494
497,493,497,474,491
495,495,497,410,488
502,491,498,377,484
500,488,497,373,487
493,487,496,382,488
486,485,495,402,487
488,483,496,450,487
493,485,498,512,487
493,486,498,583,484
493,488,496,638,485
494,493,497,637,491
493,492,497,621,496
481,498,498,536,493
490,493,497,437,488
497,492,496,395,489
497,490,497,373,494
503,491,496,378,490
505,489,496,387,485
505,487,495,416,486
486,490,494,473,491
480,491,495,539,493
481,490,496,614,487
483,493,496,639,485
491,488,496,633,489
495,493,496,591,489
493,494,497,488,490
496,497,497,412,489
496,492,497,379,490
499,487,496,372,488
494,489,496,379,486
495,487,494,398,489
495,484,498,440,487
488,486,496,504,486
483,490,494,573,487
486,494,493,632,491
491,494,496,638,488
493,493,499,625,491
496,491,499,551,489
496,497,497,447,490
504,489,498,398,491
502,492,498,372,490
494,490,497,376,489
490,489,496,386,487
489,487,497,415,486
485,485,496,468,486
490,488,496,529,489
501,488,496,609,490
501,490,497,641,490
503,491,499,634,489
506,491,497,602,488
490,491,498,504,490
479,489,497,419,489
494,490,496,386,489
495,489,496,376,489
504,490,497,380,487
498,489,497,392,490
493,488,496,434,488
485,490,496,494,488
491,489,495,563,489
492,490,497,626,488
483,489,496,640,488
486,490,495,630,488
487,490,496,566,489
492,490,498,458,488
489,490,497,404,489
492,490,497,371,487
491,490,496,374,488
490,489,496,383,488
492,489,496,404,486
492,490,496,459,488
490,490,494,519,487
492,490,494,596,487
492,490,495,640,488
497,489,497,636,490
492,488,495,613,490
493,492,498,520,488
491,489,497,426,488
496,491,499,390,488
495,491,501,374,487
495,490,498,381,488
504,491,497,389,488
504,489,496,431,488
481,490,496,485,486
479,488,497,553,488
491,488,497,624,488
493,489,497,639,488
499,490,496,633,487
500,491,499,581,491
493,491,498,472,489
504,490,498,410,488
497,490,496,376,487
490,489,496,376,487
489,489,498,383,486
490,487,496,402,486
480,489,495,451,486
481,486,496,514,486
482,485,496,584,484
486,488,497,638,488
490,487,496,639,488
494,489,497,620,489
494,493,496,536,491
497,495,497,438,493
493,492,496,395,494
500,493,497,375,491
490,491,496,378,490
484,490,496,386,485
494,491,499,419,480
496,489,498,477,483
501,490,496,540,487
487,488,495,619,488
484,489,497,641,488
486,488,496,632,490
492,488,497,590,490
494,489,497,487,489
488,489,496,414,487
489,491,497,379,486
492,490,496,375,488
493,492,496,383,487
493,491,496,399,487
495,490,495,444,487
490,489,496,505,485
487,483,496,574,483
488,489,496,633,488
492,490,497,638,487
497,489,498,625,488
498,491,495,549,489
498,492,497,447,489
494,488,496,396,488
486,490,495,374,488
494,489,496,377,489
502,489,497,386,487
501,491,498,412,488
493,489,497,470,488
503,490,497,531,486
501,490,498,610,486
480,489,497,641,487
483,491,495,635,489
477,491,497,596,489
479,489,494,499,488
483,489,495,417,488
487,489,495,383,488
491,487,495,373,487
491,487,494,382,488
492,489,496,390,486
491,489,494,436,487
490,490,495,496,487
492,490,496,566,486
494,489,495,631,486
494,490,496,640,489
494,489,497,629,487
490,489,496,559,488
487,490,496,456,488
488,490,496,402,487
483,489,495,373,489
483,490,497,375,488
482,490,496,384,488
488,489,496,408,487
489,488,496,461,487
492,489,496,522,487
498,488,495,600,485
502,487,497,638,487
499,487,495,636,486
498,489,497,608,486
500,491,498,516,487
489,493,496,427,489
484,489,496,389,487
498,491,498,374,486
503,490,496,379,488
494,490,496,389,488
489,489,496,429,487
492,491,495,488,487
491,489,497,553,487
500,486,494,624,485
491,488,495,641,487
489,490,495,632,488
476,490,494,574,488
483,492,496,469,487
487,489,497,406,487
489,489,495,372,489
489,488,495,372,486
490,490,496,382,486
492,489,496,401,488
498,488,494,453,486
494,489,496,515,487
487,489,495,590,486
489,492,496,638,486
492,487,496,637,487
486,489,497,619,486
493,488,497,529,486
493,489,495,433,486
493,489,494,391,487
485,490,496,371,487
483,489,495,376,489
484,487,493,387,487
491,488,496,419,487
494,488,494,479,487
493,488,494,542,487
493,488,494,617,488
494,489,493,641,487
495,491,497,633,489
494,489,498,584,488
489,493,497,482,488
489,490,497,412,487
490,490,496,379,487
481,487,496,371,486
484,487,495,382,485
487,490,494,397,488
486,489,493,443,486
492,490,493,505,486
493,488,495,577,487
492,487,495,634,487
493,488,496,637,488
493,489,495,625,488
495,491,494,544,489
494,491,496,443,488
495,489,497,396,489
487,489,495,372,486
491,491,497,374,487
498,489,497,384,487
490,489,497,412,486
484,490,494,470,487
490,489,494,532,487
486,486,496,609,488
499,487,494,640,488
503,488,494,631,487
506,489,495,593,488
496,490,496,497,487
482,489,494,413,488
483,488,493,382,489
487,489,495,372,486
487,489,493,379,487
486,490,493,392,487
485,488,495,435,487
490,489,495,497,487
489,489,496,565,487
491,486,496,628,487
492,490,496,637,486
493,491,495,629,489
500,491,498,558,488
489,491,494,453,488
489,490,495,400,488
486,490,493,372,487
485,488,494,373,486
490,489,495,381,487
491,487,493,408,486
489,489,495,460,487
485,488,494,520,486
485,489,494,601,484
491,490,494,638,487
497,489,495,632,489
503,489,494,603,488
502,492,495,510,489
491,490,495,421,488
486,489,495,384,488
489,489,494,373,488
488,488,495,376,486
485,487,494,387,486
489,490,493,430,486
490,489,494,487,486
485,489,493,553,483
487,489,495,625,487
491,487,494,638,487
494,490,497,626,488
484,488,495,569,488
488,489,496,464,490
492,490,494,405,490
491,491,494,371,490
489,490,495,373,488
491,489,493,382,487
495,487,493,402,489
499,489,494,452,487
503,489,494,513,487
500,488,494,587,487
498,490,493,636,486
498,490,495,634,487
495,490,494,615,487
504,493,494,524,488
485,491,495,429,488
489,491,495,389,487
495,490,494,373,489
495,490,496,376,488
495,491,496,383,486
474,490,494,423,488
488,488,495,479,487
480,488,493,543,486
472,490,493,618,486
485,487,492,638,488
488,487,492,627,486
486,490,493,582,490
486,491,495,476,489
488,490,495,407,488
487,489,496,373,488
492,489,496,371,487
496,491,496,381,487
497,489,495,399,487
499,489,495,444,487
484,489,493,506,488
473,489,491,577,488
489,487,492,631,487
488,490,494,637,488
489,488,496,620,488
493,488,494,537,487
491,490,495,438,487
490,489,494,394,487
491,490,493,369,488
489,489,493,376,489
490,489,494,383,486
488,488,493,412,488
487,488,493,470,489
489,488,494,531,487
498,489,494,613,487
498,491,496,639,490
500,489,495,632,488
494,491,495,592,488
485,489,492,491,489
477,489,493,413,489
492,489,494,379,487
493,488,493,370,487
491,491,492,376,486
491,489,494,390,486
487,488,495,437,487
487,490,494,499,488
490,489,494,567,487
489,488,495,626,487
491,489,493,637,490
491,489,495,625,490
490,488,494,553,490
493,491,494,450,489
492,489,495,399,489
493,489,495,369,486
493,490,494,375,487
490,490,493,385,488
493,490,494,405,487
493,490,493,464,487
493,489,494,523,488
494,488,492,604,488
484,487,494,636,485
480,489,494,631,485
488,489,495,603,489
494,489,495,507,489
493,490,492,420,490
495,491,493,384,488
494,491,494,373,488
490,489,493,378,489
493,489,495,386,489
495,488,495,431,487
502,490,492,489,487
484,490,493,553,486
486,488,495,622,487
480,488,493,635,488
476,490,494,628,488
488,487,495,566,489
495,489,492,461,488
494,492,492,403,488
494,490,492,371,486
492,491,492,370,486
487,490,492,382,488
487,489,495,400,486
490,490,494,454,487
490,490,494,515,487
493,490,492,592,488
493,488,494,633,489
491,487,493,633,489
487,490,493,612,490
486,489,494,520,490
489,490,494,428,489
490,489,492,389,489
492,490,495,371,487
489,490,493,375,488
490,490,493,386,487
494,488,493,424,486
490,487,492,480,488
488,488,493,544,488
491,487,493,619,488
496,489,494,636,488
499,490,495,627,488
496,491,496,579,488
488,487,493,473,490
484,490,493,407,488
492,490,495,375,489
498,488,493,371,489
497,488,493,379,488
490,489,492,395,489
482,488,492,445,488
482,489,493,507,487
487,488,492,579,487
487,490,493,633,488
489,491,492,635,490
490,490,492,621,489
489,491,495,534,490
491,491,494,435,489
491,490,493,390,488
491,489,493,368,488
493,489,495,374,487
491,488,492,384,488
485,491,493,414,489
488,489,492,471,487
491,489,492,534,487
490,488,492,612,489
488,488,492,637,489
487,491,492,626,489
485,492,493,589,490
490,489,495,486,489
493,489,495,410,484
492,490,494,378,482
493,491,492,371,488
493,490,493,379,492
494,489,494,390,489
488,488,492,438,489
497,491,493,500,488
510,491,495,567,488
521,491,494,632,488
517,492,495,635,488
471,489,492,623,487
459,488,491,548,489
475,490,492,445,488
483,490,492,395,488
484,490,491,371,490
486,491,492,373,488
488,489,493,379,488
489,489,492,404,488
488,491,492,462,488
489,488,493,524,488
489,490,493,603,489
492,488,492,638,489
495,489,492,631,490
495,491,493,599,491
495,490,493,503,490
484,490,492,416,489
481,490,493,380,489
493,490,491,369,488
489,492,493,375,488
491,491,493,388,487
491,492,492,429,488
489,488,493,489,488
490,489,494,556,487
490,488,492,625,489
489,488,493,634,489
489,490,494,623,487
491,490,492,566,488
492,490,493,458,490
492,491,493,402,489
494,491,493,370,488
497,491,492,373,489
503,491,494,380,488
506,490,491,404,489
504,491,493,455,487
493,489,493,516,487
480,488,492,589,488
470,489,492,633,488
479,491,492,631,491
484,491,492,610,489
488,490,494,516,490
491,491,493,425,487
491,488,492,387,485
490,489,491,372,488
490,489,491,377,491
497,490,493,387,491
511,491,495,424,489
514,491,494,482,488
516,491,493,545,485
484,491,491,616,488
466,489,491,636,490
478,491,492,625,491
482,490,490,575,490
477,490,492,469,490
487,489,492,405,490
490,489,492,370,490
487,488,492,371,490
490,490,493,380,488
487,492,492,398,489
492,490,492,447,489
490,490,492,508,488
488,489,493,579,490
490,488,491,632,489
490,492,493,631,489
491,489,493,615,489
492,489,495,530,489
491,490,494,435,490
491,491,492,392,490
492,491,492,369,490
493,490,491,376,492
490,490,491,383,491
493,488,491,414,488
491,490,493,472,487
488,490,492,536,487
490,489,494,610,487
488,491,493,637,489
491,492,494,628,489
494,489,495,584,490
497,491,493,485,488
500,490,494,411,489
504,491,493,378,491
510,490,493,371,489
505,491,494,377,487
491,492,492,395,489
491,490,494,439,487
486,490,492,500,486
487,491,493,571,487
495,490,492,630,490
480,489,490,633,489
473,492,494,620,493
485,488,493,544,491
488,491,491,443,490
490,490,493,394,489
490,489,493,367,488
490,490,492,373,490
490,491,492,383,490
488,490,492,411,489
491,490,492,465,489
490,490,492,526,490
491,489,492,604,487
490,491,493,635,488
490,491,492,631,490
491,492,495,593,489
491,492,494,499,490
491,490,493,415,490
491,491,492,382,490
490,491,492,372,489
489,492,492,375,486
491,489,493,388,489
490,488,491,432,489
490,489,492,491,489
488,491,491,559,490
488,489,493,623,491
491,489,492,635,489
492,492,493,626,490
492,493,492,561,490
493,491,492,453,490
491,491,492,400,491
490,492,493,368,487
491,490,493,370,488
489,489,493,380,488
489,490,493,402,487
491,490,492,457,488
490,490,493,518,490
490,489,491,598,488
491,491,492,636,487
490,488,492,631,491
490,489,492,608,493
493,494,493,514,490
491,492,492,422,490
492,491,491,384,489
489,492,494,370,488
491,492,491,377,487
489,492,491,383,488
491,489,491,427,489
493,490,492,483,490
492,489,493,548,490
491,489,493,620,490
488,490,494,635,489
491,490,492,627,487
491,492,495,575,492
494,491,493,466,490
496,494,493,405,487
491,491,492,372,487
492,491,493,369,489
489,490,492,380,492
486,491,492,399,491
486,488,492,448,489
490,491,492,510,489
489,491,493,582,488
488,490,494,633,491
492,489,493,634,490
492,489,493,614,490
493,492,491,528,490
491,491,492,432,490
489,490,492,390,491
490,492,494,369,490
490,490,493,375,490
494,490,492,381,487
488,493,493,416,489
492,491,493,474,489
493,491,492,536,489
492,491,491,615,489
490,491,493,636,490
490,491,494,627,491
488,490,493,583,491
488,493,493,481,490
488,491,492,408,489
491,489,492,377,491
494,491,493,370,489
493,492,492,379,488
492,491,491,396,491
491,490,491,441,491
488,490,491,500,488
489,489,491,572,488
491,492,492,628,489
491,491,494,632,489
491,491,494,620,489
490,491,491,542,491
492,492,493,441,490
491,490,492,393,490
492,491,491,370,489
492,490,491,372,490
491,490,492,381,488
491,492,492,407,488
490,490,492,466,488
490,491,492,527,484
489,491,493,604,485
489,491,492,636,490
491,490,492,627,491
492,490,491,592,491
490,491,493,495,491
493,491,492,413,491
491,491,492,378,491
490,489,491,369,490
489,490,490,377,491
490,493,492,386,488
490,489,491,434,489
491,491,492,494,489
491,491,491,561,489
492,490,492,627,489
490,491,492,633,491
491,491,492,625,490
493,490,492,553,491
492,492,493,451,490
492,491,491,397,489
492,491,490,370,491
491,492,493,372,488
489,489,494,381,489
491,490,491,405,489
491,490,492,458,490
490,489,491,517,490
489,491,490,596,490
491,492,492,636,490
491,491,493,628,488
491,491,493,601,488
491,492,494,509,490
489,492,492,421,491
492,490,492,384,489
494,492,492,369,488
491,489,491,374,490
489,492,490,384,491
489,490,493,425,489
493,488,492,484,489
491,490,492,549,490
491,491,490,620,489
491,492,492,636,490
494,492,492,626,491
496,493,492,569,490
494,492,492,463,491
492,493,493,402,489
488,492,491,368,492
491,490,492,368,488
490,491,493,378,488
491,490,490,402,488
492,492,492,451,488
492,490,492,512,489
492,491,491,587,488
492,491,491,633,490
492,490,491,632,491
490,492,492,613,490
493,490,492,522,490
493,494,493,429,489
494,490,493,388,488
492,491,493,368,489
490,493,492,375,490
491,490,490,384,490
494,490,492,416,488
494,491,492,477,489
489,489,492,539,489
488,489,491,614,490
491,492,491,637,488
493,491,493,627,490
494,491,494,579,490
493,492,492,476,491
493,491,492,407,490
494,493,493,372,490
491,491,491,371,491
492,491,493,377,491
492,490,492,395,492
492,490,491,441,490
492,491,491,502,489
490,491,492,575,490
494,490,492,630,489
491,491,491,632,491
496,491,492,621,490
494,492,493,538,491
494,492,493,438,489
492,490,493,393,491
492,490,491,368,489
491,493,492,371,488
490,490,493,381,489
493,488,494,408,488
492,490,491,468,490
492,491,491,530,489
491,490,492,606,490
493,490,491,637,491
493,489,491,629,491
492,489,491,589,489
493,493,492,492,492
492,491,492,411,490
490,494,493,377,488
492,490,493,370,489
494,491,491,377,489
493,491,492,390,488
491,489,492,433,490
493,491,491,495,489
492,491,492,564,491
492,488,491,626,490
492,491,492,633,490
490,493,492,624,491
495,491,493,551,491
494,491,492,449,490
494,491,493,398,489
494,492,491,370,488
494,492,490,372,488
492,492,493,381,489
493,489,493,404,487
493,490,492,460,490
491,490,491,520,489
491,490,492,597,489
492,491,491,635,491
493,493,492,631,490
492,491,492,601,490
495,492,492,506,491
494,491,492,420,491
493,490,491,383,492
493,491,494,369,489
492,490,492,373,490
494,492,490,386,489
492,491,493,427,488
494,490,492,487,489
495,491,492,551,491
491,491,492,623,490
490,491,492,633,489
492,492,491,625,489
492,491,492,568,490
494,489,492,460,487
495,493,492,402,491
493,491,493,367,493
495,490,491,370,490
493,492,492,380,490
492,493,492,400,490
495,491,490,450,490
490,494,490,513,491
492,490,493,587,489
495,488,493,633,490
492,490,494,630,491
492,492,493,611,491
493,491,493,520,491
494,492,491,427,490
493,492,492,388,491
493,493,492,371,490
494,490,491,377,491
493,491,490,384,491
494,492,494,419,488
492,490,492,479,490
491,493,491,541,489
489,490,493,615,489
494,491,492,636,489
492,494,491,626,490
493,490,492,580,490
495,490,492,473,490
493,492,492,407,490
492,491,491,374,491
494,489,491,369,491
494,492,491,379,489
490,492,493,398,491
494,491,493,443,489
494,490,492,506,488
494,491,492,577,490
495,492,491,631,490
495,492,494,632,489
495,491,492,619,490
495,494,493,533,491
494,492,492,435,490
493,491,492,391,491
493,491,493,372,491
494,490,493,373,490
493,490,491,381,491
494,493,491,413,490
494,491,491,469,490
493,490,491,532,490
493,491,493,608,491
494,490,493,637,489
495,491,493,626,487
493,491,494,584,488
493,492,493,488,492
492,492,491,411,492
496,494,491,378,490
496,491,491,368,490
498,491,491,376,490
494,490,491,391,491
491,488,491,435,492
490,489,492,497,489
491,491,492,563,488
490,492,489,628,491
493,491,492,634,490
494,491,492,623,490
496,493,491,550,491
493,493,492,445,491
495,494,493,395,490
495,492,492,369,491
493,490,492,370,490
494,491,492,380,489
493,490,490,408,491
495,492,492,460,489
493,491,491,523,490
494,492,491,602,489
494,492,491,635,491
494,490,491,630,490
495,492,494,596,493
494,492,493,502,491
494,492,491,414,491
493,492,492,379,489
493,491,493,370,489
493,492,492,376,488
493,490,492,384,489
494,492,491,428,489
493,490,491,489,490
494,491,491,555,490
493,489,492,623,491
493,489,492,635,491
495,492,494,622,488
495,491,491,566,489
495,491,492,456,490
495,492,493,402,489
494,492,492,371,491
493,491,493,372,490
494,491,493,379,489
493,490,491,401,492
494,490,492,453,491
494,491,492,514,488
492,490,491,593,490
492,493,493,633,491
492,490,492,632,492
497,491,492,610,490
497,492,492,517,491
495,493,492,426,490
495,491,492,385,489
494,491,492,370,489
494,491,491,376,488
492,491,492,382,488
492,491,493,421,490
494,491,492,480,491
494,490,492,545,489
494,492,493,616,490
493,490,491,636,491
493,490,491,625,491
494,491,491,578,492
494,492,492,471,491
494,492,492,404,490
494,492,492,370,489
492,491,493,369,487
494,493,491,379,489
492,494,492,396,491
490,489,492,447,490
494,488,493,508,490
494,489,491,580,492
494,490,490,630,491
492,491,492,631,491
491,491,494,617,491
497,491,493,531,490
493,493,492,434,492
496,493,491,391,491
494,494,492,369,490
495,492,492,375,490
495,491,493,381,489
496,489,491,414,489
494,491,492,471,490
493,490,491,533,489
492,490,493,609,489
491,492,494,638,492
494,490,493,629,490
495,491,492,584,492
496,492,492,485,491
495,492,492,411,491
495,491,492,377,491
493,492,493,370,491
493,490,492,377,490
494,492,493,390,490
492,490,493,438,490
493,491,492,499,490
493,491,492,567,489
494,489,491,628,490
495,490,491,635,489
493,492,494,623,492
495,490,491,546,492
495,492,492,444,490
494,491,492,396,490
495,492,493,367,489
495,491,492,373,490
495,491,493,382,489
495,492,493,408,489
494,492,492,463,491
492,492,492,525,492
494,491,490,603,490
490,494,492,636,491
495,491,493,629,491
495,492,494,594,491
494,493,492,502,491
496,492,492,415,490
495,491,492,381,490
493,492,493,372,490
494,491,491,377,490
494,491,491,388,490
494,490,491,431,488
492,494,490,489,490
495,490,492,558,489
493,489,493,623,489
493,490,493,633,490
493,493,494,623,489
495,490,491,562,491
495,492,493,454,491
494,491,493,401,490
496,491,491,371,490
498,492,491,371,490
495,491,493,381,489
493,489,492,401,492
494,491,492,456,490
489,493,491,515,489
491,491,492,593,489
494,491,493,634,491
494,489,494,633,491
495,492,493,604,489
493,493,492,515,491
496,491,492,425,492
496,491,492,386,492
494,491,491,370,490
494,493,491,378,490
494,492,492,385,492
496,490,493,424,489
494,491,493,482,491
495,492,491,546,490
495,492,493,617,490
492,490,492,636,492
494,493,494,626,492
493,491,493,574,493
494,492,492,468,491
494,491,492,404,490
495,491,492,370,489
493,491,492,371,490
493,493,493,381,489
495,492,492,400,489
493,491,491,448,488
494,492,492,508,490
494,489,490,583,491
493,492,493,631,490
493,491,494,631,489
492,492,494,615,490
494,492,494,528,490
492,495,492,433,491
495,492,492,391,491
494,491,492,368,491
493,493,491,375,492
495,489,491,384,492
496,489,491,415,489
494,492,493,474,490
493,490,491,537,491
495,491,494,611,489
492,492,493,636,489
495,493,493,628,490
496,491,493,582,490
497,494,492,483,491
496,492,494,410,491
494,490,493,376,491
495,489,492,369,490
491,490,492,379,490
494,491,494,392,489
492,490,491,441,490
492,490,493,501,489
493,491,492,572,490
494,492,492,630,491
496,491,491,633,489
494,493,493,621,493
495,490,493,541,490
495,492,492,441,491
494,491,492,393,490
493,490,494,368,490
490,492,491,373,492
494,493,490,383,491
495,490,492,411,490
495,491,493,466,490
494,489,491,527,491
494,489,491,605,489
494,492,493,635,491
493,492,491,630,491
494,492,494,589,490
494,492,494,496,490
493,492,492,414,491
493,491,493,379,490
493,492,493,369,490
490,492,490,377,492
495,491,491,390,492
494,489,491,433,490
494,490,492,492,491
494,493,492,560,490
492,490,494,624,491
494,491,491,634,489
492,494,494,626,490
496,492,493,558,491
496,492,492,451,491
495,491,492,399,491
495,491,494,367,489
495,490,492,371,490
493,490,493,380,490
493,490,492,403,490
495,491,491,458,490
493,491,493,520,490
493,490,492,598,489
494,493,492,637,490
495,493,492,632,491
495,490,494,602,489
494,491,492,510,492
495,492,492,423,493
495,491,493,383,492
494,490,493,370,490
494,492,493,376,487
495,492,493,385,490
494,490,492,428,490
494,489,492,485,490
494,491,492,551,491
493,490,491,621,491
492,490,492,634,492
492,494,492,627,493
493,491,494,574,493
496,494,493,463,490
493,492,493,403,491
494,492,493,372,496
495,491,492,369,496
493,491,492,381,495
494,491,494,399,494
494,491,491,450,489
493,492,492,511,490
493,491,493,584,492
495,491,490,632,490
493,493,491,632,492
492,493,492,613,493
494,494,493,525,501
493,494,493,430,500
496,490,492,390,489
495,492,494,368,490
493,491,493,375,478
495,491,493,381,479
491,491,494,416,488
489,492,493,476,496
492,492,491,540,502
492,494,493,616,499
492,490,492,635,491
496,490,491,627,488
495,490,492,583,491
496,491,492,479,487
496,492,492,407,487
494,491,492,376,489
496,490,493,368,493
494,492,493,378,495
494,493,493,394,494
494,490,492,441,494
494,493,493,503,492
493,491,493,575,487
494,491,490,629,490
494,491,493,632,492
494,490,495,619,493
494,489,493,541,494
495,491,493,439,495
495,491,492,394,492
495,494,494,369,483
495,492,492,374,487
495,491,492,384,488
493,492,494,412,490
494,491,493,466,490
494,491,492,529,491
493,490,492,606,491
493,492,494,636,490
494,491,491,630,492
494,493,494,590,493
494,492,493,493,491
495,492,492,413,489
495,492,492,380,491
495,492,491,370,489
493,491,492,376,491
494,493,492,390,489
492,491,492,434,490
491,491,492,495,490
494,491,493,561,488
493,490,493,626,491
494,490,492,635,491
496,493,494,622,490
492,492,492,555,492
495,491,492,450,490
494,491,492,398,491
493,494,492,370,489
494,491,493,370,490
494,490,492,380,489
493,492,493,404,489
494,492,492,458,489
493,491,493,521,490
493,491,491,601,490
493,494,493,634,489
490,493,492,630,491
494,488,492,600,491
496,490,493,506,491
496,492,492,420,490
494,491,493,384,491
495,491,495,371,489
494,493,491,377,487
495,492,490,386,487
495,493,491,429,490
494,490,492,486,491
494,490,492,550,490
493,493,492,621,491
492,491,494,633,490
493,492,493,624,489
492,494,494,571,493
494,492,493,460,491
496,490,493,402,490
496,491,491,371,490
494,491,491,371,491
493,490,492,379,491
494,492,493,402,491
492,490,492,452,489
494,492,493,513,489
493,491,493,587,489
493,492,493,633,489
494,490,494,632,491
492,491,491,615,490
492,493,494,520,490
494,492,492,427,490
494,491,491,388,490
493,490,492,369,491
492,491,493,377,493
494,490,493,383,489
491,490,492,420,491
494,491,493,478,490
495,491,492,542,490
496,492,491,617,490
494,493,493,635,492
493,490,492,626,490
495,493,493,578,492
492,493,492,474,492
495,492,493,406,491
495,492,492,375,492
495,492,492,371,489
493,491,493,377,490
494,492,491,398,491
494,490,492,444,491
492,492,492,505,489
494,490,493,576,491
495,489,492,632,491
496,493,494,632,490
493,493,495,619,490
497,492,495,535,490
496,492,494,436,490
493,492,491,391,491
495,492,491,368,488
493,492,492,374,492
493,490,492,382,492
493,490,491,411,491
493,491,493,470,490
493,490,492,531,490
494,491,491,611,489
492,492,493,637,490
495,491,492,630,490
496,492,492,589,490
493,492,494,490,490
495,492,492,410,489
494,491,493,377,492
492,490,493,370,491
492,490,493,376,490
492,492,491,393,492
491,492,492,437,492
494,490,491,498,491
493,491,492,567,490
495,490,492,628,490
493,491,491,634,491
494,491,493,623,490
495,490,492,549,491
495,494,492,447,491
495,492,493,397,491
494,492,494,368,489
494,492,494,373,491
493,491,493,383,490
495,493,493,404,489
493,491,492,464,490
493,490,492,524,491
493,489,491,602,492
494,493,492,636,491
491,491,493,629,492
496,492,491,596,490
493,494,495,504,492
494,491,493,417,489
494,493,492,382,491
492,491,492,372,490
495,491,493,375,489
496,491,492,388,492
495,490,492,431,490
490,491,492,489,490
493,492,491,552,489
492,492,491,622,490
494,490,492,635,491
494,492,493,625,489
494,493,493,567,490
494,492,493,459,491
494,492,493,401,489
494,491,491,372,489
494,491,493,371,490
491,491,493,379,490
493,491,493,400,490
493,490,492,455,490
494,491,493,515,490
492,490,492,591,491
493,493,493,636,489
494,492,491,634,491
496,491,492,613,491
496,494,494,518,491
496,492,493,425,490
495,491,493,386,490
494,491,494,369,491
492,492,493,376,490
492,491,493,385,490
493,490,492,421,490
494,492,492,481,489
493,490,493,546,490
494,490,492,619,491
493,490,492,636,491
492,490,493,626,490
494,494,493,576,489
494,492,492,473,490
494,493,494,405,488
493,492,493,374,489
494,492,492,372,492
492,491,493,377,489
494,491,491,396,488
493,491,492,446,491
493,491,492,508,491
492,490,492,578,490
491,490,491,633,490
494,492,494,633,488
492,489,493,618,490
496,494,492,532,491
493,494,493,436,491
494,491,492,393,492
496,491,491,368,490
494,493,493,374,491
493,492,492,384,490
492,492,494,412,489
490,492,494,471,490
494,490,493,534,489
494,489,491,611,489
493,493,492,636,491
493,492,492,629,491
494,491,493,588,492
496,491,493,487,491
495,491,493,410,490
494,492,493,375,491
496,492,491,372,490
494,491,493,376,489
492,493,494,391,489
491,493,493,438,491
491,492,492,499,489
493,492,493,567,489
493,490,491,629,491
493,491,493,633,490
493,489,493,621,491
494,489,493,546,491
496,492,492,446,490
493,492,493,397,491
494,490,493,370,490
494,492,492,375,490
495,492,492,384,491
495,492,493,406,489
492,492,491,464,490
494,490,493,524,490
492,492,493,602,489
491,490,494,635,489
494,494,494,630,492
494,491,491,596,490
494,494,493,500,491
495,491,493,416,490
496,492,493,383,491
495,491,491,372,492
494,492,492,377,490
494,491,494,385,490
495,492,492,431,490
494,491,492,491,489
493,492,493,557,488
493,492,494,625,489
494,492,493,633,488
492,492,491,626,490
493,492,494,561,491
495,491,492,456,491
494,491,492,401,492
493,490,493,370,491
494,491,490,370,490
491,494,490,381,491
494,491,493,402,488
495,491,492,455,489
494,491,492,516,490
494,491,493,592,489
493,492,492,634,489
494,490,493,630,491
492,490,493,606,491
491,494,494,515,490
495,489,494,426,492
495,490,494,387,490
494,490,492,372,492
495,492,492,378,493
496,491,491,387,492
496,491,492,425,490
494,490,492,482,489
493,492,493,546,490
492,490,492,620,489
494,491,493,635,489
495,494,494,625,489
495,494,495,576,490
495,492,493,469,492
495,492,492,404,490
493,491,494,373,491
496,490,491,369,491
494,490,492,378,491
492,491,492,399,489
494,492,493,446,490
493,489,492,510,491
493,490,493,581,490
491,493,492,632,490
497,493,492,633,491
495,491,494,614,491
496,492,491,527,489
493,492,492,433,491
495,491,492,389,491
494,490,492,369,491
493,491,493,373,490
493,490,491,385,491
492,492,494,415,491
491,491,491,473,491
493,491,492,536,490
496,491,492,613,490
495,490,492,636,490
495,492,493,626,492
493,495,494,585,490
493,492,494,482,492
494,493,492,408,491
494,492,494,375,489
493,492,492,371,490
495,491,491,376,490
494,491,491,395,491
495,490,492,441,490
494,490,492,500,489
494,490,493,570,488
491,490,492,628,490
494,493,492,634,489
493,492,494,621,489
494,492,494,542,490
494,493,493,443,489
494,492,494,395,490
493,489,491,372,490
495,491,494,373,488
494,491,492,382,490
493,490,492,408,490
493,491,492,465,491
492,491,491,527,490
493,491,493,607,491
494,490,494,636,490
494,492,492,630,490
495,492,492,593,490
495,492,494,496,492
494,491,492,415,491
494,493,493,379,492
493,489,492,369,491
492,491,493,374,490
493,492,493,386,491
494,491,491,433,491
493,491,492,494,490
493,492,492,561,490
494,491,492,626,491
494,491,492,634,491
495,491,493,624,492
493,495,495,559,492
493,492,493,452,490
495,492,493,399,489
493,491,493,368,489
491,493,494,373,488
495,492,493,381,491
493,493,492,405,490
491,492,493,457,490
492,493,490,519,490
489,490,491,596,491
494,489,493,633,490
496,491,492,629,491
493,491,492,606,491
495,494,495,511,491
493,490,493,421,490
493,492,492,386,490
497,491,493,370,490
495,490,491,377,490
492,492,493,387,491
493,491,493,426,491
493,490,492,485,490
494,490,492,547,490
491,492,491,621,491
494,492,493,636,490
494,491,495,625,490
495,494,495,574,490
496,494,494,466,491
493,493,492,405,490
492,492,494,373,492
495,489,493,370,490
495,491,493,378,491
493,491,493,398,490
493,491,493,448,490
492,491,493,512,490
493,491,494,585,491
493,490,492,634,490
494,492,491,633,491
495,491,491,617,491
496,491,492,524,490
494,493,493,432,491
494,492,493,390,491
492,493,493,369,490
492,492,494,375,488
493,491,493,385,490
494,493,493,417,491
493,490,492,476,490
493,492,492,538,489
492,491,492,616,491
494,490,492,636,492
493,490,493,626,492
492,494,492,584,491
493,491,494,480,492
494,492,492,408,490
493,492,494,376,490
492,492,492,372,491
493,492,491,376,490
493,490,492,397,491
494,490,493,442,490
495,492,493,503,491
493,491,492,573,491
492,490,493,629,490
495,492,493,635,492
494,494,493,621,495
494,491,492,539,491
495,493,493,440,488
494,492,492,395,490
494,494,491,372,491
493,494,494,374,489
493,489,493,381,490
495,492,492,408,489
492,490,493,467,491
492,490,493,528,490
493,490,494,608,492
494,490,493,637,491
494,491,493,627,489
494,491,491,592,492
495,491,492,494,492
495,491,492,414,492
493,493,492,380,491
492,490,493,371,492
494,489,494,376,489
494,492,493,388,489
493,493,492,435,490
493,492,492,495,491
492,492,492,563,491
490,492,494,624,491
495,490,493,633,491
493,491,494,622,491
493,491,493,554,492
494,493,492,451,491
494,492,494,399,490
493,489,493,370,492
495,491,492,374,490
494,491,492,383,492
494,491,491,406,491
493,492,493,457,490
493,491,492,519,490
493,491,493,597,490
492,491,494,633,489
493,492,494,630,489
494,492,492,603,492
494,493,493,509,491
494,491,493,419,490
494,492,492,386,492
495,492,492,372,491
493,490,492,376,490
494,492,492,384,491
492,490,493,429,491
491,493,492,486,490
488,493,492,551,489
494,492,494,621,489
497,491,493,636,490
494,492,494,623,491
497,491,492,568,490
496,492,493,463,490
493,492,492,403,491
492,491,492,370,491
493,491,492,372,492
495,492,494,380,489
492,491,492,401,488
494,493,493,452,488
491,491,492,513,490
493,488,491,588,489
491,491,494,633,491
493,490,494,634,490
496,491,495,611,491
495,492,495,522,490
494,492,493,429,490
494,490,492,391,492
493,493,494,371,492
492,489,494,377,492
494,491,491,385,492
493,492,491,421,491
495,490,492,478,491
494,490,493,541,489
495,489,493,614,491
494,491,492,637,490
494,492,494,626,489
492,493,495,580,490
494,493,493,478,491
494,491,492,408,491
494,492,494,373,490
492,490,492,370,491
493,490,492,378,491
492,491,493,396,491
492,491,492,445,490
493,491,493,505,491
493,490,492,576,490
493,492,494,631,490
494,492,493,635,492
495,492,492,618,490
492,492,492,537,492
494,493,494,438,490
495,491,492,392,491
493,491,492,368,491
492,492,494,373,489
491,492,493,383,491
492,492,491,413,489
495,492,493,470,490
494,491,492,531,491
495,492,491,609,490
495,491,492,636,491
494,492,493,628,490
493,490,492,587,490
495,492,492,488,491
494,491,492,411,490
493,491,494,377,489
493,492,494,371,492
492,491,492,379,490
496,491,495,388,489
496,490,492,438,490
493,492,491,497,491
496,490,491,564,491
496,492,493,628,490
492,490,494,635,490
493,490,494,622,489
495,493,494,550,490
493,493,493,448,490
493,495,494,399,491
497,490,494,368,491
497,491,492,374,490
492,493,494,382,492
491,488,493,406,492
489,490,493,461,491
490,492,494,523,490
494,489,494,600,490
493,491,493,637,492
494,492,493,632,492
495,492,493,602,492
496,493,493,506,492
493,492,493,417,491
494,491,493,383,489
491,494,492,371,492
494,490,493,376,491
493,491,494,385,490
492,491,492,432,491
494,491,493,488,490
493,492,492,555,489
490,493,492,623,489
495,491,492,636,491
494,491,492,625,491
496,491,492,566,491
493,491,493,460,491
494,492,493,402,490
493,491,493,368,491
492,492,494,370,489
490,492,494,381,489
494,489,492,403,488
495,491,492,453,490
493,491,492,516,491
494,491,491,591,491
494,491,492,634,491
494,491,494,634,490
495,492,494,609,491
496,493,493,520,490
493,492,493,427,490
492,492,492,389,490
494,493,493,371,491
493,490,494,377,491
494,490,494,384,489
492,491,491,424,491
493,491,491,480,490
493,491,492,543,491
492,490,493,615,490
493,491,492,637,488
493,492,494,627,490
493,491,495,578,488
493,493,493,474,489
494,492,492,407,490
494,492,494,372,491
492,491,492,373,492
493,493,493,379,492
491,491,492,397,493
492,490,493,445,491
491,490,493,507,490
492,491,491,578,489
493,492,492,631,491
492,493,493,635,489
493,492,491,620,489
497,491,492,534,491
495,494,494,436,492
493,493,493,391,491
495,493,492,369,491
493,490,494,373,490
492,490,494,383,490
492,492,494,413,489
493,493,492,472,490
492,492,493,534,490
492,490,494,609,488
495,491,492,637,490
491,492,492,629,493
495,491,493,587,492
496,494,494,488,492
494,492,492,412,491
494,492,494,377,490
490,493,494,371,488
494,490,494,378,487
495,489,494,391,490
494,491,492,440,491
492,491,492,499,491
494,490,492,569,492
493,491,492,628,491
491,490,494,635,491
495,491,494,621,490
493,491,491,549,492
494,493,493,445,491
493,492,493,398,491
494,492,493,370,490
495,493,491,373,489
492,492,494,383,492
494,490,494,407,489
493,491,492,463,491
493,491,492,523,491
492,490,494,600,489
491,491,492,637,491
494,494,494,631,493
493,491,493,598,491
496,494,494,502,491
494,492,492,417,492
493,491,491,382,489
493,493,491,371,492
492,492,492,378,490
492,492,494,386,489
491,491,495,431,488
492,490,493,489,489
494,491,492,556,489
492,492,493,623,491
492,490,492,636,492
494,491,492,625,492
494,491,492,565,493
494,491,492,457,491
494,493,493,401,490
493,491,493,368,491
495,491,492,371,490
491,493,494,381,490
491,491,494,403,490
493,492,492,454,490
491,493,492,517,490
495,490,494,591,489
496,490,493,634,491
493,490,494,630,491
489,490,494,607,491
494,493,492,518,490
492,493,492,426,493
493,493,492,387,490
495,493,493,373,490
494,494,492,378,492
492,490,494,385,489
494,488,492,425,490
492,492,493,482,491
492,491,492,546,490
492,490,494,617,490
492,491,494,636,490
493,493,494,626,492
494,490,495,578,491
495,492,493,470,491
494,492,493,407,490
494,491,493,376,491
494,490,491,372,491
495,492,492,380,489
493,491,493,401,490
495,491,493,446,490
492,491,493,508,490
491,492,493,581,489
493,491,492,630,489
493,491,492,634,491
493,492,493,617,493
495,491,492,529,493
494,492,494,435,491
494,491,492,391,491
495,492,492,368,488
493,492,492,376,491
493,491,493,384,488
494,493,493,417,487
494,493,492,473,489
492,491,491,536,492
492,490,494,609,492
494,489,493,637,491
494,491,494,627,492
494,491,495,583,491
493,492,494,485,491
493,491,492,411,491
492,493,493,377,490
492,490,493,370,491
495,491,491,379,490
495,491,492,395,492
494,490,492,440,490
492,491,493,499,491
492,491,493,571,490
493,491,494,627,490
493,492,493,632,489
493,493,494,622,490
492,490,492,542,492
494,493,493,443,491
492,493,493,395,492
493,491,491,371,492
494,490,493,372,491
492,492,493,381,491
491,490,491,410,491
494,491,493,464,490
492,490,492,526,490
494,493,493,604,489
493,492,493,636,490
493,490,492,630,490
490,493,494,595,492
493,494,493,497,491
493,491,492,414,492
496,492,493,379,491
491,493,493,370,490
493,490,491,379,492
494,492,493,389,492
493,490,492,434,490
494,492,492,492,489
492,491,492,559,490
492,491,492,623,490
493,493,492,634,492
492,494,493,625,491
493,490,495,557,491
493,492,493,453,491
493,492,494,400,489
492,492,494,370,492
493,490,492,373,490
494,493,494,380,489
492,491,491,406,491
494,491,492,457,490
493,491,493,518,491
492,492,492,595,490
491,491,493,633,491
494,490,492,630,490
492,492,493,605,489
493,494,494,514,490
493,493,493,425,492
492,493,491,387,491
495,492,494,371,490
494,489,493,376,492
493,490,493,386,491
492,490,494,425,490
493,490,493,485,490
491,491,493,551,492
493,489,495,620,490
494,493,492,638,492
493,494,492,627,491
495,492,493,576,492
496,492,493,467,490
494,494,492,404,489
494,492,492,371,491
493,491,493,370,490
492,491,494,379,490
493,491,495,402,492
492,491,492,448,490
493,490,492,510,492
494,491,491,586,491
495,492,492,632,492
493,492,494,632,493
494,494,493,616,493
494,490,493,527,492
494,493,493,432,491
493,491,494,390,491
493,493,494,370,490
493,494,493,375,492
492,492,491,386,491
492,491,495,417,491
494,491,492,476,491
491,493,492,538,491
493,489,493,613,491
492,492,493,637,492
495,491,494,626,489
494,491,492,584,493
493,494,492,480,492
494,492,493,408,491
496,494,494,377,490
492,491,494,370,492
494,490,492,378,490
494,493,495,394,492
492,491,493,442,492
493,494,491,501,492
493,492,492,574,492
494,491,495,630,490
494,492,495,633,492
496,494,492,623,491
494,496,492,542,492
495,492,493,440,490
494,491,494,395,492
495,490,494,368,490
494,491,494,374,491
492,492,494,381,491
493,491,494,408,490
493,493,493,466,490
492,491,492,529,491
494,492,492,606,491
493,492,493,638,491
494,490,492,630,492
494,492,491,593,493
495,492,493,496,490
493,492,493,414,492
492,494,493,381,490
493,491,495,371,490
492,493,494,378,490
496,491,494,390,492
493,491,494,437,491
495,492,493,495,490
491,491,493,563,492
494,489,492,628,491
493,491,494,634,491
493,493,492,625,492
492,492,495,556,494
494,493,492,450,492
493,492,493,400,491
493,493,493,371,490
494,493,492,374,491
495,493,494,380,489
492,490,491,407,492
492,492,493,458,491
493,492,493,520,492
493,491,493,597,492
493,491,494,634,492
494,491,493,631,490
493,493,492,604,493
492,495,493,511,492
494,493,493,421,491
495,492,492,387,492
495,493,494,370,490
491,491,492,377,491
495,492,493,385,492
491,490,495,427,490
492,490,492,487,489
493,491,491,551,492
493,491,494,620,491
492,491,493,634,491
495,491,492,626,492
495,492,492,573,493
496,491,493,465,491
494,492,492,404,491
494,494,493,369,493
492,493,492,372,493
495,493,494,380,490
494,493,494,401,490
494,493,493,451,491
494,492,493,511,491
493,491,492,588,490
492,491,494,632,491
493,490,494,632,492
493,490,495,614,493
493,491,494,525,491
494,493,493,429,491
493,490,492,391,493
494,494,495,370,490
493,494,494,377,491
494,493,492,387,492
492,491,494,417,492
492,493,493,476,491
494,491,492,541,491
494,490,493,614,491
492,491,494,636,490
492,491,494,625,489
493,491,492,582,492
493,493,493,478,492
494,491,491,408,491
494,492,492,376,490
495,492,492,373,492
494,491,490,377,490
493,493,492,396,492
491,494,492,443,490
492,491,493,502,490
494,491,495,574,489
492,490,495,631,490
492,491,494,633,491
496,494,493,619,492
494,492,492,538,492
494,493,493,438,490
494,491,493,395,491
493,490,494,370,490
494,491,493,373,490
495,491,492,385,490
491,493,493,411,488
493,493,493,468,488
492,492,494,531,489
493,491,493,608,490
493,491,493,637,491
493,492,493,628,491
493,492,491,590,494
493,494,493,492,492
495,491,493,414,492
495,491,492,380,491
492,491,494,372,493
492,491,493,377,490
493,494,493,389,489
494,492,492,437,490
494,491,492,496,491
493,491,491,564,492
492,493,493,626,492
494,490,493,632,490
492,491,495,620,489
492,491,495,552,491
495,491,492,448,490
493,492,492,399,491
493,493,493,370,490
494,493,491,374,492
494,492,492,383,492
494,491,492,408,492
492,491,492,459,491
493,491,492,521,490
494,491,493,599,491
491,491,494,633,490
493,493,495,630,490
494,492,492,602,493
494,494,493,505,491
493,492,493,418,491
494,492,491,385,491
495,493,491,371,491
493,491,493,377,490
494,492,492,385,492
492,491,493,430,490
493,491,492,488,490
493,491,493,551,489
492,493,494,621,489
494,490,493,634,491
494,491,491,625,489
492,492,495,569,493
494,491,492,461,491
494,491,492,402,491
493,491,493,370,492
491,492,491,373,492
493,493,492,379,490
494,490,491,402,489
494,492,492,452,490
493,491,493,513,490
494,491,492,591,489
492,490,493,633,492
494,492,493,632,491
494,491,493,610,493
493,490,494,519,491
493,491,493,427,491
489,496,491,390,493
495,491,494,371,491
494,489,493,378,490
495,491,491,386,491
496,491,491,421,490
493,492,492,479,489
492,491,491,543,490
491,494,492,616,490
493,490,494,635,490
493,491,494,624,490
493,492,494,577,490
494,494,493,475,492
494,491,492,407,490
494,492,494,372,490
492,492,492,373,491
492,491,491,379,490
493,490,493,397,491
493,491,493,446,491
492,491,492,506,491
493,493,490,576,490
491,492,493,631,489
495,491,493,632,489
495,492,493,617,490
492,491,492,535,491
495,492,494,435,488
494,491,493,393,490
493,490,492,371,493
493,490,493,372,492
494,492,491,386,491
492,491,494,414,491
494,490,494,470,491
493,492,493,534,491
493,492,492,610,490
494,491,492,636,492
494,493,494,628,490
494,490,492,586,490
495,494,493,487,492
494,491,492,411,491
493,491,493,375,490
492,492,494,372,492
