Sensor0,Sensor1,Sensor2,Sensor3,Sensor4

493,499,497,494,400
494,499,495,493,503
494,499,496,494,279
494,497,495,493,372
494,498,6,496,494
252,495,495,494,493
213,494,495,495,493
234,494,495,495,494
279,494,497,495,493
372,494,498,496,494
502,494,5,495,494
493,213,494,495,495
493,234,494,495,495
494,279,494,497,495
493,372,494,498,496
494,502,494,496,495
494,645,494,496,496
494,796,493,498,497
494,817,494,498,497
493,778,494,495,495
494,649,495,498,496
493,412,493,496,495
494,295,496,497,495
494,222,496,498,495
494,221,496,497,497
494,257,495,496,495
493,315,494,498,496
494,429,494,496,495
494,558,494,497,495
494,721,494,496,496
494,823,495,497,497
494,804,494,496,495
493,740,493,498,497
494,544,494,496,496
493,341,493,497,495
493,266,493,496,495
494,225,495,497,494
494,234,493,496,495
494,269,495,496,495
494,358,495,496,495
493,484,494,497,496
494,623,494,499,496
494,793,494,497,496
494,824,496,498,495
494,789,493,497,497
494,670,493,497,497
494,440,493,496,495
493,306,494,495,496
494,230,493,495,494
493,216,495,498,495
494,254,495,497,495
493,306,496,497,495
494,413,494,496,495
494,546,495,496,495
494,705,493,498,495
494,815,494,496,495
494,803,493,496,496
494,759,493,496,495
493,569,495,495,496
493,360,494,496,496
494,275,493,496,497
493,221,493,497,496
494,237,495,498,496
493,266,495,498,495
493,341,493,496,495
494,470,495,496,496
493,604,495,496,494
494,777,496,497,495
493,816,495,496,495
493,787,495,498,496
493,685,493,496,495
493,469,494,496,495
493,314,493,495,496
493,238,493,497,497
493,220,493,497,495
493,246,494,498,496
493,295,494,495,495
493,404,495,497,496
494,531,495,497,495
493,678,496,498,495
494,810,493,497,496
493,807,495,495,496
493,773,494,495,495
493,594,493,496,495
493,381,494,496,495
493,280,493,496,496
494,217,495,495,494
494,232,493,497,497
494,257,494,496,496
493,336,494,495,495
493,454,494,497,495
493,582,495,498,495
493,754,492,499,495
493,819,493,497,497
494,791,494,495,495
494,702,495,495,495
493,497,494,496,495
493,325,493,496,495
494,250,493,495,495
494,221,495,496,496
493,248,493,496,497
493,283,493,499,497
494,385,495,498,495
493,511,493,497,495
494,652,493,496,495
493,805,494,497,495
493,814,495,496,495
493,774,495,497,495
493,627,495,496,496
493,404,493,496,494
493,289,494,497,496
494,219,493,495,495
494,228,493,495,495
494,258,492,496,496
493,324,496,496,494
494,438,494,497,495
493,566,494,497,496
493,742,493,498,497
493,819,495,498,496
492,797,495,496,496
493,723,496,497,495
493,522,494,496,496
493,335,494,496,495
493,262,494,495,494
493,223,493,495,495
493,249,493,497,495
493,273,493,497,495
494,373,493,496,495
493,495,494,496,495
493,634,494,497,497
493,785,493,498,497
493,808,494,495,495
493,782,495,498,495
493,648,493,497,495
493,431,494,495,495
493,305,495,497,495
493,232,496,496,496
493,232,495,495,495
493,261,494,498,495
493,308,493,495,495
493,423,494,496,495
493,549,494,496,496
494,714,496,498,497
493,813,494,496,495
494,791,494,498,496
493,750,494,498,496
493,552,494,497,496
493,352,494,496,495
494,278,495,496,494
493,222,493,496,495
493,242,495,495,495
493,272,494,495,494
494,353,494,496,495
493,478,494,497,496
493,616,494,496,495
494,779,496,498,495
493,812,493,497,497
493,781,493,498,497
493,674,493,497,497
493,454,494,496,495
493,314,494,495,496
493,236,494,498,496
493,233,495,497,494
494,259,496,497,494
493,303,493,497,497
494,410,495,498,495
494,534,494,497,495
493,683,494,496,494
494,802,494,496,496
494,794,494,497,495
494,758,496,496,497
493,578,495,496,495
493,374,494,496,496
493,287,494,497,497
494,234,494,498,495
493,244,495,498,495
494,269,493,495,495
494,343,495,497,496
493,460,494,497,495
493,590,494,496,494
493,752,495,496,496
493,804,495,498,495
494,781,493,497,497
493,688,497,497,497
493,482,493,496,495
493,324,493,497,496
493,254,494,498,494
494,228,493,498,494
493,261,493,496,496
494,297,496,496,495
494,400,495,497,495
494,519,495,498,495
493,662,493,497,498
493,791,494,496,496
494,799,496,496,496
493,761,492,495,496
493,604,493,496,495
493,393,495,495,495
493,294,495,497,494
494,230,492,496,496
494,242,495,496,496
494,275,494,498,496
494,336,494,498,496
494,446,494,497,495
494,570,495,498,496
494,745,494,496,496
493,806,496,497,495
493,781,496,496,494
493,705,496,496,495
493,512,494,496,495
493,337,494,496,495
493,268,495,496,495
494,233,492,496,496
494,258,493,497,496
493,288,493,497,494
493,380,494,497,496
493,502,494,497,495
494,641,495,499,496
493,786,495,497,495
493,798,496,497,494
493,763,496,497,497
494,635,494,495,495
493,416,493,496,496
494,302,494,496,494
493,234,495,494,494
493,238,494,496,495
493,274,494,497,495
493,321,493,496,495
493,434,494,496,495
493,557,494,496,495
493,713,494,496,495
493,799,493,498,495
493,784,493,496,497
494,726,497,496,494
493,535,493,496,496
493,349,493,496,495
493,279,493,497,497
493,237,494,495,496
493,260,494,495,495
493,280,494,498,497
493,373,493,497,495
493,485,494,497,495
493,618,494,499,496
494,764,494,496,496
493,800,496,497,496
493,765,493,496,494
493,655,495,496,495
494,442,495,496,495
493,314,495,497,496
493,246,495,495,494
493,243,494,498,496
493,263,494,496,495
493,312,494,495,494
493,417,495,497,495
493,542,493,497,495
493,689,492,499,496
493,795,493,496,496
493,783,493,497,496
494,741,494,495,495
494,557,494,497,496
493,366,494,496,495
493,289,495,498,495
493,233,493,495,495
493,252,493,495,495
493,279,494,495,494
494,351,493,497,495
493,473,494,497,494
494,601,495,497,497
494,754,494,495,495
493,796,494,495,495
493,766,493,495,495
493,679,494,498,495
493,467,495,496,495
493,325,494,495,495
493,252,493,494,494
493,241,493,496,496
493,266,496,496,494
493,309,494,497,496
493,406,495,497,496
493,531,494,497,495
494,672,495,498,495
493,791,496,498,497
493,784,494,496,494
493,749,494,497,497
493,582,494,496,495
493,385,494,495,495
494,295,494,495,495
493,235,494,496,496
493,257,496,497,495
494,280,493,496,495
494,342,494,497,497
494,457,493,497,495
493,579,495,499,498
494,741,497,497,496
493,800,494,498,495
493,766,494,496,495
493,692,496,497,495
493,496,494,497,495
493,333,495,497,496
493,263,493,497,494
493,241,494,498,497
493,260,495,495,495
493,294,494,496,494
493,392,494,496,495
493,510,494,498,495
493,645,493,496,495
493,781,496,498,497
493,789,494,498,497
493,759,495,498,497
493,618,495,498,495
493,406,494,496,495
493,304,495,496,495
493,236,493,495,494
493,250,495,496,494
493,275,496,496,494
494,329,495,496,496
493,442,494,496,495
493,561,495,498,495
493,720,493,496,495
494,794,494,497,496
493,775,494,498,497
494,706,497,497,495
493,522,495,497,494
493,341,495,498,496
494,278,495,498,497
493,247,495,498,495
493,266,496,496,496
494,289,496,496,495
492,380,495,497,495
493,491,494,496,494
494,623,494,495,493
493,769,496,496,495
493,785,495,496,497
493,762,494,495,494
493,637,494,497,496
492,424,495,496,495
493,312,493,496,494
492,241,495,495,495
493,251,493,497,497
493,273,495,494,497
493,325,493,498,495
492,429,494,497,495
493,550,495,495,494
493,700,497,497,497
493,790,495,497,494
493,776,493,497,496
493,730,496,498,495
493,545,495,497,495
493,358,495,497,494
492,282,492,496,495
493,248,495,496,496
494,261,495,495,495
493,285,493,496,493
493,363,494,495,495
493,478,494,497,495
492,609,495,499,496
494,755,495,497,494
493,792,496,497,496
493,764,494,497,497
493,662,493,497,497
493,451,494,497,495
493,320,494,497,496
493,248,495,496,494
493,248,495,498,496
493,275,496,497,495
493,319,496,497,494
493,411,494,496,495
493,535,495,497,496
494,678,496,497,495
493,782,495,496,494
493,777,494,496,495
493,739,495,499,496
493,566,494,496,495
493,374,494,496,495
493,289,493,496,496
493,240,493,496,497
493,258,494,497,497
493,284,494,496,494
493,346,494,497,495
493,461,495,496,495
493,589,495,499,495
494,751,496,498,494
493,792,496,497,494
492,765,493,497,494
493,675,496,498,496
493,476,494,496,495
492,328,494,496,494
493,257,494,495,493
493,240,494,498,496
493,264,494,496,494
493,306,494,498,494
493,399,493,497,495
493,518,494,496,494
493,652,494,496,497
493,781,494,496,495
493,779,495,498,496
492,744,495,496,495
493,593,494,496,495
492,394,493,495,495
493,300,494,496,494
493,242,492,497,494
494,251,494,498,496
493,282,493,496,494
493,334,493,495,494
493,450,495,496,495
493,568,495,498,496
493,730,493,495,495
493,796,496,498,497
494,770,494,497,498
494,697,493,497,497
493,506,495,497,496
493,337,496,497,496
494,273,495,496,494
493,244,494,498,497
493,268,494,498,496
493,298,494,498,496
493,383,495,497,495
493,502,494,498,495
493,634,494,499,496
493,777,496,498,495
493,790,496,497,495
493,757,496,499,495
493,628,494,497,496
493,416,494,495,495
493,305,494,496,495
494,243,496,497,495
494,248,496,496,495
494,275,495,496,497
493,330,494,496,495
493,435,494,497,495
493,555,494,497,495
493,710,495,496,495
493,790,494,496,495
494,778,496,497,496
493,715,493,496,495
493,531,495,497,496
493,346,494,496,496
493,281,494,497,497
494,243,494,496,495
493,255,494,498,496
494,286,494,496,495
494,376,495,498,496
494,487,495,497,496
494,621,496,498,495
494,769,497,498,497
493,791,494,496,494
493,760,495,499,497
493,644,496,496,496
493,436,494,496,495
493,314,495,496,495
493,250,496,499,496
494,245,493,496,495
494,271,497,498,498
494,320,494,498,497
494,423,495,497,496
494,542,495,497,496
494,687,495,499,497
494,790,495,497,496
493,781,497,498,494
493,740,497,497,495
493,555,496,496,495
493,363,494,496,495
493,286,496,498,497
494,240,496,496,495
493,251,495,496,495
494,280,494,495,494
493,356,495,496,495
493,474,494,497,496
493,599,494,496,495
494,762,496,496,496
493,795,493,497,497
493,769,494,498,498
494,673,495,497,496
493,461,495,497,496
494,321,495,496,496
494,255,495,499,497
494,243,496,498,495
494,270,496,498,495
494,304,494,497,495
493,408,495,496,495
493,527,495,497,495
493,666,496,497,495
493,788,494,496,495
493,782,495,499,496
494,747,495,497,497
494,586,496,497,495
493,377,495,496,496
493,291,493,497,496
493,236,493,497,496
493,252,494,497,495
493,274,494,498,497
493,341,494,496,495
493,458,494,497,496
493,583,495,499,494
493,750,495,499,495
493,795,494,497,495
493,772,496,497,497
493,687,496,496,495
493,487,495,496,495
493,328,495,496,494
493,260,495,498,497
493,232,493,496,495
494,266,496,498,496
493,290,493,496,496
492,393,493,496,495
493,512,494,496,495
493,650,496,497,497
493,780,496,497,495
493,791,494,497,497
494,757,493,496,497
493,609,493,496,495
493,400,494,496,494
493,298,495,497,496
493,231,493,498,495
493,248,493,496,496
493,269,492,495,495
493,328,492,496,495
493,441,495,498,495
493,563,494,497,495
493,737,496,499,496
493,797,494,498,497
494,778,493,497,497
493,708,493,497,494
493,517,495,496,496
492,336,495,497,495
493,269,494,499,497
494,236,494,499,496
493,259,494,498,496
494,281,494,496,496
493,379,495,497,495
493,496,495,498,495
493,631,496,498,495
493,775,496,496,495
493,793,495,496,495
493,761,496,499,497
493,633,494,496,496
493,424,495,496,496
493,304,493,497,497
494,234,493,496,497
494,243,494,498,495
493,261,494,499,496
493,324,493,496,496
493,430,495,497,495
493,553,495,497,495
493,711,497,498,495
493,802,494,498,497
494,779,495,496,496
493,738,495,496,495
493,537,494,497,496
493,351,494,496,496
493,277,493,497,495
493,237,494,497,497
493,249,495,496,495
493,284,494,499,496
493,364,495,498,496
493,481,494,498,495
493,616,495,499,495
493,765,494,498,495
493,803,493,497,496
493,769,496,497,495
494,660,495,496,495
492,448,496,496,495
493,315,494,498,496
493,237,494,495,496
494,241,495,496,496
493,261,493,497,497
493,308,493,497,496
493,415,494,498,494
493,539,494,498,495
493,687,496,497,494
493,803,495,498,497
492,790,493,498,497
494,751,493,496,497
493,566,495,497,496
492,364,494,497,495
493,283,494,497,497
494,229,493,497,496
493,245,493,498,497
494,274,493,496,496
492,348,495,497,495
493,462,494,496,495
493,597,496,497,497
493,757,493,497,496
492,805,493,497,497
493,779,493,496,494
492,681,494,498,497
493,473,496,497,495
493,318,494,497,496
493,248,493,496,497
493,232,494,497,496
493,253,495,496,496
493,299,495,495,495
493,398,495,498,495
493,522,495,498,495
493,667,496,499,495
493,798,494,497,497
493,793,495,496,495
493,764,494,499,495
493,592,495,496,495
493,385,494,497,495
493,286,493,496,496
493,225,493,497,495
493,238,493,498,497
493,265,494,495,494
493,336,495,498,496
493,450,493,498,495
493,576,495,498,495
493,742,494,497,495
493,806,496,497,496
493,786,495,496,495
493,697,495,496,496
493,500,495,496,495
493,329,493,497,495
493,252,493,496,494
493,230,495,498,496
493,249,493,497,496
493,281,493,497,497
493,385,493,496,495
493,507,495,497,495
493,646,495,496,495
494,796,494,498,496
493,805,496,499,496
493,769,496,499,496
493,632,495,497,495
493,403,494,496,495
493,294,495,497,497
493,225,496,497,495
493,227,495,496,495
493,257,494,497,494
492,317,494,497,495
493,432,494,497,495
493,564,495,497,496
492,726,493,496,496
492,810,494,498,497
493,792,495,498,495
493,721,494,499,496
492,529,493,496,494
492,337,494,497,496
493,267,496,498,496
493,226,494,498,496
493,240,494,495,495
493,277,493,498,495
492,365,494,497,496
493,489,494,497,496
493,628,493,498,497
493,779,493,497,497
493,810,496,497,494
493,773,493,497,497
492,654,496,496,496
492,426,493,496,496
493,299,494,497,497
493,230,492,497,495
493,223,494,498,495
493,257,493,495,495
493,317,496,498,495
493,421,495,498,496
493,549,495,498,495
493,707,493,497,496
493,807,496,497,497
493,801,494,496,495
494,745,495,496,495
493,549,494,496,495
493,356,494,497,495
493,276,494,496,497
494,225,496,498,495
494,244,494,498,496
493,272,495,498,496
493,353,494,498,495
492,474,494,496,494
493,607,494,498,494
493,776,493,496,497
493,814,495,496,495
493,779,494,496,495
493,674,495,496,496
493,460,494,496,495
492,308,493,496,495
493,239,495,495,496
493,225,494,497,496
493,251,493,498,496
493,299,493,495,494
493,404,494,497,495
492,530,494,496,496
493,688,496,498,495
493,808,495,497,494
492,798,495,496,495
493,767,493,498,495
493,577,494,498,496
492,369,494,496,495
493,278,493,495,494
493,215,493,496,495
493,230,491,495,496
493,268,494,497,494
493,335,492,497,495
493,461,493,497,495
493,592,493,498,496
493,763,495,498,495
492,819,494,496,495
493,784,495,498,494
492,689,491,496,496
493,484,494,496,494
492,317,494,495,494
492,243,496,498,493
492,219,494,497,494
493,243,496,498,497
493,284,495,496,494
493,389,495,497,495
493,516,495,497,495
493,658,493,497,496
493,799,494,495,495
493,810,495,498,496
493,770,493,495,496
493,610,494,497,495
493,390,495,497,496
493,286,494,496,494
493,220,493,499,496
493,223,493,496,495
493,263,495,498,496
493,326,495,497,495
493,442,494,496,496
493,573,493,497,495
493,743,496,498,497
493,821,495,496,494
493,792,494,496,495
493,711,493,495,496
493,514,494,496,495
493,325,493,495,495
493,253,495,495,497
493,223,493,496,496
493,244,494,498,496
492,276,494,499,494
493,371,494,498,495
493,499,495,497,495
493,647,496,498,495
493,800,496,497,494
493,810,496,497,495
493,774,495,496,494
493,645,493,497,495
493,412,495,496,496
492,295,494,495,495
493,215,494,495,495
493,219,492,496,496
492,251,495,496,495
493,310,492,497,496
493,428,494,497,495
492,558,493,497,496
492,727,494,498,497
492,816,494,498,494
493,796,493,498,493
493,745,492,496,496
493,540,494,496,495
493,343,495,496,493
493,263,494,496,493
493,222,493,498,496
493,235,493,496,495
492,271,494,495,495
493,360,493,496,495
493,483,493,496,495
493,621,492,497,496
493,784,495,496,494
494,819,493,498,495
493,778,492,496,497
493,673,494,498,495
492,440,494,496,495
492,304,494,497,496
493,228,492,498,494
493,218,493,497,497
493,250,494,495,495
493,299,494,495,494
493,410,494,496,495
493,548,493,497,495
493,698,492,496,495
493,814,494,497,497
493,807,494,498,497
492,762,494,498,498
493,567,494,496,495
493,364,494,497,495
493,268,494,496,495
493,224,496,497,494
493,234,496,495,494
493,262,495,497,494
493,339,493,496,496
493,471,492,497,495
493,601,492,498,494
493,770,492,496,495
493,819,493,497,496
493,788,494,497,497
493,688,496,496,495
493,469,495,497,495
493,311,494,497,494
493,243,494,499,494
493,224,495,498,493
493,248,496,497,494
492,290,496,497,492
493,398,493,497,495
492,528,494,497,495
494,673,494,496,495
493,803,493,497,497
493,809,495,498,497
493,771,494,498,495
492,593,495,497,496
493,381,495,496,495
493,284,494,497,496
493,221,493,497,496
493,228,493,495,494
493,263,495,497,496
493,327,492,497,495
493,457,494,497,495
493,582,495,498,495
493,758,495,497,496
493,821,495,496,494
493,794,495,499,495
493,700,494,496,495
493,496,494,496,495
493,320,493,497,496
493,253,495,499,497
493,220,492,497,495
493,244,492,498,496
493,283,492,498,496
493,387,494,497,494
493,508,493,497,495
493,658,494,499,495
493,794,492,497,494
493,811,495,497,494
493,774,496,497,494
493,626,496,497,494
493,404,495,496,494
493,296,495,495,494
493,226,495,497,494
493,227,493,495,496
493,258,494,496,496
493,316,493,494,498
493,438,496,498,497
493,566,495,497,495
493,733,495,498,497
493,821,498,500,496
493,797,497,500,495
493,729,494,497,496
493,528,496,498,495
493,332,495,497,495
493,262,495,496,492
493,224,495,496,493
493,239,494,496,496
493,280,493,496,495
493,368,496,497,496
493,493,494,496,497
493,636,493,497,497
493,785,494,498,496
493,812,495,498,495
493,776,497,496,493
493,657,498,496,488
494,425,497,497,485
493,303,497,497,487
493,232,497,498,491
493,227,493,496,497
493,255,495,496,499
493,313,493,498,500
493,422,495,497,498
493,550,496,498,497
493,707,495,497,498
493,814,497,498,498
493,799,496,498,496
493,750,495,500,499
493,553,496,498,497
493,353,495,498,496
494,270,496,496,496
493,232,496,499,496
493,238,494,498,494
494,273,495,497,493
493,357,495,498,493
494,478,496,498,496
494,613,497,501,498
494,776,498,499,500
494,818,496,500,499
493,783,495,499,498
493,673,497,499,498
493,453,498,498,497
493,316,499,498,495
493,239,501,496,491
494,229,498,497,494
494,261,498,498,494
493,304,495,498,496
493,407,494,497,496
493,538,498,499,496
493,684,496,499,495
494,806,498,499,494
493,798,499,498,493
493,757,500,499,492
493,582,497,496,489
493,370,496,496,493
493,281,496,496,496
493,223,494,496,497
493,241,495,497,499
493,270,496,497,497
493,340,497,498,491
493,462,496,497,480
494,595,496,496,482
493,763,496,497,489
493,815,498,498,492
493,779,496,495,498
493,692,495,498,498
493,480,497,498,497
494,320,496,499,498
492,252,492,499,500
493,226,488,497,494
493,253,484,499,500
493,293,488,500,494
493,394,489,498,495
492,520,495,498,499
494,660,501,498,493
493,798,509,497,490
493,801,506,498,486
492,764,502,496,487
493,605,498,496,487
494,392,498,496,490
493,290,499,498,496
493,235,500,498,500
493,237,498,496,505
493,269,500,497,507
493,326,497,500,502
493,444,496,500,498
492,569,495,500,495
494,749,494,497,497
492,809,487,499,497
493,784,481,497,499
493,705,481,496,499
493,510,487,496,497
493,334,492,497,497
493,264,502,499,494
493,229,504,498,497
493,255,501,498,497
492,286,498,498,499
492,380,498,500,498
493,502,501,501,497
494,640,502,499,495
493,784,499,498,490
494,801,496,498,480
493,765,493,497,475
493,629,495,498,468
494,417,496,498,469
494,301,492,499,485
493,226,494,495,503
493,237,501,497,503
493,263,503,497,501
493,325,502,497,505
494,434,505,497,501
493,557,496,498,499
494,720,486,499,500
494,802,479,499,498
493,784,472,498,493
493,732,478,502,495
493,534,485,502,493
494,347,502,500,495
492,279,515,497,497
493,239,515,496,498
493,250,514,496,497
493,286,509,495,498
493,371,504,498,490
493,487,499,498,473
493,621,500,499,468
494,772,495,497,481
493,798,499,492,492
493,772,505,495,503
493,654,501,498,518
493,440,500,500,507
493,311,503,501,500
493,242,504,500,495
493,241,500,504,492
494,259,490,501,493
493,318,496,503,494
493,419,495,501,498
494,542,501,499,500
493,692,506,496,494
493,795,510,495,495
493,781,504,492,483
494,740,492,495,484
494,556,476,499,476
493,363,470,500,483
493,281,469,496,491
494,240,474,495,494
494,248,471,493,505
494,280,495,499,503
493,353,513,503,494
493,468,518,503,495
494,601,515,505,498
493,757,513,502,501
494,803,503,503,496
494,775,490,503,493
494,676,489,499,495
494,463,489,497,495
494,322,484,498,503
494,247,481,499,504
494,236,496,502,498
493,260,500,501,494
494,308,494,497,487
494,404,492,489,476
494,527,500,492,477
494,668,495,500,487
494,790,495,504,487
493,786,496,499,476
494,746,496,504,500
494,583,502,500,510
493,383,504,500,503
493,293,498,499,503
493,238,506,498,500
493,244,503,497,488
493,279,502,501,484
494,335,502,505,491
494,452,490,502,472
494,575,473,500,484
494,737,465,500,494
494,794,472,502,494
494,776,475,502,510
494,684,489,503,515
493,496,521,503,506
494,335,533,502,486
494,266,524,500,475
493,236,504,500,469
494,262,483,497,450
494,287,474,488,453
494,390,488,493,484
494,510,499,498,507
493,650,509,505,531
494,779,506,502,525
493,790,514,503,510
493,757,505,497,494
494,616,499,492,502
494,402,486,497,493
493,302,479,500,476
493,236,479,503,479
494,245,485,505,490
493,273,491,498,505
493,328,497,498,522
492,438,496,501,529
494,563,499,500,514
493,727,510,507,503
493,792,497,506,498
493,771,479,505,499
494,701,468,503,498
493,521,472,500,481
494,340,491,497,470
493,275,506,494,456
494,240,520,493,447
493,260,526,496,468
494,288,515,500,486
493,376,498,498,499
493,493,480,503,508
493,626,470,505,520
493,766,473,504,516
494,790,476,498,506
493,756,481,498,507
494,646,474,492,506
494,429,497,496,498
493,310,515,496,487
494,240,512,496,485
494,244,506,498,475
493,276,495,499,484
493,320,493,501,484
494,427,503,501,468
494,549,498,503,469
493,700,492,508,489
494,786,480,505,495
494,775,488,503,505
493,732,500,505,510
493,541,503,497,508
493,359,502,495,503
494,283,503,498,502
493,242,503,498,495
493,256,485,500,491
493,277,472,495,490
494,360,491,497,493
494,477,506,495,495
493,604,520,496,502
493,765,524,497,507
494,791,505,502,505
493,763,493,509,507
494,660,478,511,499
494,451,468,506,488
494,317,475,498,482
494,252,491,493,488
494,240,503,493,482
494,275,507,498,465
494,319,513,501,475
494,416,516,503,504
494,534,507,498,522
494,679,504,502,521
493,784,504,506,494
494,777,493,500,490
494,742,474,500,500
494,571,484,503,518
494,378,490,499,510
494,292,499,497,484
494,241,509,493,472
494,260,513,496,464
494,287,511,498,484
494,350,481,497,500
494,464,436,503,511
494,585,449,507,503
494,748,474,510,497
494,792,479,497,493
494,763,508,491,485
495,685,543,497,491
494,480,534,498,495
494,324,492,494,467
494,257,487,500,471
494,243,503,505,485
494,269,502,504,512
494,306,491,504,523
494,401,501,499,502
493,518,500,494,472
494,658,493,498,479
494,782,492,499,487
494,779,485,507,499
494,749,488,506,512
494,594,485,507,496
494,393,477,497,503
494,299,502,489,510
494,240,520,484,505
494,257,528,493,521
494,279,535,509,521
494,337,523,509,506
494,448,504,501,492
494,567,477,501,472
494,726,463,498,437
494,793,466,501,453
494,767,476,508,487
494,698,482,505,532
494,509,482,504,547
494,339,480,501,508
494,268,472,491,484
494,247,499,499,498
493,259,508,498,504
493,292,506,495,496
494,385,496,503,493
493,500,494,516,496
494,634,487,516,509
493,776,486,502,497
493,783,469,491,459
493,755,505,493,451
494,627,536,498,469
493,415,521,496,497
494,308,499,495,503
493,238,515,500,517
494,254,531,501,519
493,280,533,501,516
494,328,521,497,502
493,433,507,501,504
494,554,482,502,510
494,710,455,502,497
493,789,456,498,462
494,773,453,491,462
494,714,472,491,491
494,533,505,503,534
494,352,525,510,516
493,282,497,500,495
493,243,480,491,481
494,266,491,496,467
494,290,495,500,460
494,370,506,507,475
494,487,509,506,496
494,619,479,502,495
495,767,478,497,500
494,792,507,501,529
494,759,509,500,540
494,651,519,502,530
494,436,520,507,519
494,316,508,500,506
494,245,503,500,496
493,250,488,501,490
494,269,466,506,472
494,320,451,509,458
494,419,443,500,452
495,542,465,491,475
494,694,494,488,506
494,793,527,497,500
494,780,550,496,503
494,740,554,503,500
493,556,534,502,509
493,368,514,500,513
494,290,506,499,506
494,239,499,504,490
494,252,491,500,478
494,279,481,498,477
494,355,470,496,472
494,468,451,495,489
494,596,451,504,503
494,751,454,492,499
494,792,473,493,524
494,768,513,499,514
494,675,542,505,502
494,467,540,508,507
493,324,522,508,486
494,251,500,497,482
494,244,488,497,492
494,268,487,501,488
494,309,467,500,496
493,407,491,506,501
493,526,510,501,526
493,669,519,497,510
493,783,516,494,494
494,778,490,496,479
494,749,466,506,489
494,576,457,504,495
493,382,462,496,505
494,292,480,490,511
493,237,524,494,512
494,258,562,505,506
493,282,561,510,495
493,344,524,504,491
493,459,487,500,466
494,576,476,498,483
494,739,459,499,478
494,795,471,504,470
493,763,467,499,481
494,688,450,492,504
493,491,489,495,511
494,334,528,498,509
494,270,533,500,514
493,239,514,498,506
493,267,503,502,507
493,295,495,498,498
493,394,499,500,494
493,510,509,499,503
493,647,517,496,509
494,777,518,497,501
493,788,498,499,489
494,748,489,506,468
493,602,485,510,484
494,400,477,505,501
493,301,474,494,523
494,243,505,499,521
493,251,519,499,517
493,278,512,501,506
493,333,492,495,500
494,441,475,500,502
494,560,484,496,503
494,728,486,497,501
493,792,501,499,499
494,774,525,499,499
493,708,531,504,499
493,518,510,506,492
493,333,472,503,491
494,269,472,504,495
494,238,468,504,462
493,255,448,493,440
493,287,480,483,426
494,380,528,487,457
494,496,529,493,509
493,632,495,498,530
493,771,502,507,548
493,787,492,503,525
493,756,489,496,501
494,643,512,507,491
493,421,511,504,495
494,310,499,491,502
493,237,500,497,510
493,247,512,506,513
493,276,496,500,493
493,317,489,500,491
493,425,474,496,496
494,551,476,497,497
494,708,488,500,504
493,793,491,501,490
493,780,501,497,473
493,727,523,498,467
493,542,509,497,474
493,353,507,504,492
493,277,500,501,507
493,238,481,501,532
494,250,486,497,511
493,288,496,502,490
494,364,499,505,486
493,477,505,501,511
493,610,501,500,518
493,761,497,499,517
493,798,492,499,513
493,767,503,499,507
493,663,505,500,488
493,446,494,492,473
494,316,477,500,478
494,241,461,500,505
493,243,463,497,524
493,267,506,507,511
493,315,527,504,507
493,416,516,496,500
493,538,518,494,500
493,682,527,497,488
493,799,520,501,479
494,782,498,489,433
494,741,470,496,431
493,564,445,505,473
494,370,449,504,506
493,287,469,500,519
493,239,485,504,516
493,256,515,506,525
493,282,530,507,545
493,355,531,505,520
493,465,519,497,510
493,592,524,498,514
493,755,508,502,506
493,797,474,498,502
494,768,468,495,504
493,678,470,496,499
493,470,490,499,500
493,324,508,500,501
493,251,519,497,501
493,233,529,503,502
493,260,513,499,495
492,299,503,499,492
493,401,490,491,489
493,523,467,504,488
493,665,460,515,484
493,791,461,513,500
494,790,446,498,510
494,754,468,496,515
493,599,530,499,498
493,390,558,497,488
493,291,539,494,477
493,229,516,494,449
493,240,487,496,432
493,266,476,496,452
494,338,487,493,498
493,451,483,499,537
494,574,478,505,543
493,743,504,506,528
494,805,526,508,510
493,782,502,491,492
493,704,498,491,498
494,504,508,503,507
493,330,499,503,515
493,259,486,499,504
493,229,487,497,487
493,255,490,494,496
493,284,504,499,508
493,382,501,499,514
493,505,501,502,509
493,648,498,499,499
493,789,495,497,483
493,800,493,499,444
493,766,486,501,450
493,626,490,510,491
493,408,476,508,535
493,297,480,499,514
493,232,480,492,470
494,241,496,488,474
493,266,510,489,498
493,324,514,498,538
493,439,510,509,531
492,562,496,509,517
493,732,496,509,504
493,803,497,502,497
493,783,505,494,481
493,721,515,491,463
493,531,509,494,472
494,338,487,498,506
493,269,484,501,534
493,231,502,508,537
493,250,497,507,517
493,275,489,500,507
493,372,488,504,509
493,488,487,505,506
493,628,486,498,501
493,782,494,501,502
493,803,493,496,500
493,780,496,501,498
493,649,465,498,476
493,431,451,504,455
493,302,470,498,459
493,227,477,488,440
494,231,486,490,475
493,260,522,498,501
494,311,565,497,534
493,429,542,502,528
493,552,508,502,514
493,709,495,500,521
493,809,501,502,508
493,794,506,500,508
493,751,513,500,515
493,553,508,496,511
493,353,496,491,485
493,271,494,494,460
493,218,493,494,462
494,242,496,497,496
493,272,485,498,528
493,353,462,500,526
493,472,476,501,507
493,608,488,503,497
493,772,498,503,500
492,809,509,502,503
493,787,523,504,501
493,681,517,500,489
493,456,503,499,490
493,309,493,497,489
493,232,476,502,470
493,223,468,498,436
494,245,460,487,436
494,291,474,482,469
493,404,496,490,497
493,535,499,495,543
493,688,494,506,561
493,814,499,507,531
493,807,515,502,522
493,766,524,503,518
493,581,523,502,513
493,370,510,500,507
493,277,507,500,503
494,224,504,500,497
493,229,483,500,488
493,257,478,500,483
493,335,479,501,495
493,455,487,500,500
493,590,498,502,501
493,759,509,503,501
493,816,508,497,494
493,787,494,496,491
493,696,489,497,495
493,480,492,495,501
493,315,503,503,506
493,244,502,502,509
493,217,504,502,507
493,237,508,498,500
493,282,489,495,503
493,389,482,500,502
493,515,462,499,497
493,659,463,501,490
493,803,481,502,487
493,806,492,491,491
493,776,508,498,500
493,608,514,497,505
492,388,504,496,502
493,280,508,497,503
493,211,517,497,500
492,224,516,499,503
492,246,511,498,503
492,323,504,500,500
493,439,493,497,499
493,567,491,496,492
493,741,489,498,476
493,817,488,498,479
493,790,494,496,481
493,713,494,497,481
493,506,496,496,480
493,319,492,496,496
492,245,490,497,518
493,208,482,496,510
492,230,494,500,495
493,266,499,497,455
493,363,494,492,447
493,491,503,495,486
493,635,500,498,525
493,797,502,502,553
493,813,507,508,528
493,774,503,503,515
493,635,500,500,512
493,399,495,499,509
493,273,494,502,509
492,191,494,497,503
492,199,495,496,503
493,232,497,497,499
492,298,498,498,490
493,416,494,498,490
493,550,495,500,493
492,725,489,498,502
493,821,487,497,506
493,800,486,497,507
493,737,488,498,503
492,533,489,500,501
494,331,481,497,499
493,254,487,496,497
492,204,495,498,498
493,229,499,498,498
493,257,499,496,498
493,354,503,496,499
493,482,494,496,499
492,625,470,499,499
493,789,475,504,501
493,820,473,507,500
493,795,468,507,498
493,664,474,498,498
492,440,514,496,499
492,300,526,490,498
493,221,524,489,499
493,213,517,491,497
492,243,502,491,499
493,290,491,486,498
493,410,499,492,498
493,544,507,495,499
493,710,505,496,500
493,828,500,494,498
493,810,494,499,500
493,773,495,499,500
492,571,499,501,500
492,355,497,500,498
492,266,490,498,498
493,205,488,495,499
493,221,493,496,498
492,256,496,497,496
492,337,500,498,487
492,467,502,498,482
493,612,499,496,485
493,791,498,498,485
493,833,495,496,494
493,805,495,498,498
492,698,496,498,493
493,467,496,497,503
492,310,495,498,503
492,226,495,499,506
492,212,496,500,508
492,241,498,500,506
492,283,494,500,504
492,399,495,498,500
492,534,495,499,502
492,683,494,496,495
492,823,493,497,498
492,821,494,497,494
492,782,496,496,499
492,606,496,496,492
493,376,495,495,494
492,278,494,496,500
493,215,494,497,503
492,224,496,499,505
492,249,493,497,500
492,327,493,497,501
492,453,492,497,499
492,589,493,496,497
492,769,496,496,497
492,831,500,498,498
492,804,499,496,498
492,718,500,498,500
492,497,496,496,498
492,315,492,496,498
492,243,494,495,496
492,202,492,494,498
492,239,489,491,497
493,277,489,494,497
493,384,483,494,498
493,515,479,496,499
493,663,475,494,501
493,816,480,490,500
493,831,488,489,498
493,785,502,487,498
492,630,504,488,499
493,398,503,491,498
493,279,500,496,497
492,207,491,499,498
492,211,494,500,500
492,248,497,500,501
492,315,498,497,498
493,434,498,497,498
493,568,498,497,499
493,752,497,496,498
492,832,497,496,497
493,810,495,495,497
493,735,496,496,496
492,527,497,498,499
492,325,497,500,500
494,250,496,497,498
492,200,493,497,500
492,224,493,496,500
492,261,494,497,498
492,364,493,496,499
493,496,492,497,499
493,644,493,498,500
493,806,495,498,499
493,832,495,497,499
493,795,495,498,500
493,657,492,497,499
493,427,493,496,499
492,291,494,497,498
493,214,498,496,497
493,210,498,495,498
493,244,497,497,500
494,298,496,496,499
492,422,496,498,499
493,554,495,496,499
492,719,494,496,498
493,828,494,498,497
493,813,494,497,500
493,763,497,496,498
492,554,495,497,499
492,344,494,496,499
493,264,494,498,500
493,200,494,496,498
492,227,495,496,499
493,253,496,498,498
493,343,495,497,499
493,475,493,497,499
493,613,493,497,498
493,783,491,498,500
493,819,493,496,499
493,788,494,496,499
493,668,494,497,501
493,442,497,496,500
493,292,496,498,500
493,217,494,496,501
493,198,494,495,499
493,236,493,498,501
493,290,494,498,498
493,402,494,497,498
493,530,493,497,497
493,695,495,496,500
493,821,495,497,498
493,811,494,495,497
493,769,495,495,497
493,580,495,498,499
493,363,494,496,497
493,272,495,498,499
493,207,492,497,499
493,225,493,496,499
493,260,493,497,500
493,334,493,495,497
492,460,493,495,498
493,598,493,496,497
493,781,495,498,497
493,831,496,497,498
493,800,497,497,498
493,699,493,497,498
493,480,495,496,499
493,311,494,495,499
493,231,493,493,499
494,210,492,494,500
493,237,495,495,499
493,279,491,494,499
493,392,494,495,498
493,522,492,497,497
493,675,493,500,498
493,816,495,500,498
493,813,494,499,497
493,782,494,496,499
493,612,496,497,499
493,390,494,497,498
493,285,495,496,497
493,219,496,496,498
493,227,493,498,497
493,252,493,498,499
493,328,493,496,499
493,449,494,496,498
493,580,494,496,499
493,756,497,499,498
493,833,494,497,499
493,799,494,496,499
493,726,494,499,498
493,517,494,496,498
493,330,494,496,499
493,252,492,496,497
493,217,493,497,500
493,237,493,495,498
493,272,493,495,497
493,378,494,496,497
493,507,497,498,498
493,649,496,496,497
493,805,499,498,500
493,818,496,499,499
493,784,495,498,499
494,646,493,498,498
493,411,495,497,498
493,295,494,498,498
493,214,492,496,499
493,222,496,496,498
493,254,495,496,497
493,309,495,496,499
493,428,493,496,497
493,559,493,497,497
493,722,494,496,499
493,815,493,497,501
493,797,493,497,500
493,734,496,497,498
492,537,494,497,497
493,337,494,497,498
493,262,494,498,498
493,222,494,497,495
493,238,495,496,497
493,266,495,496,496
493,361,494,496,497
493,482,494,497,497
493,620,493,496,496
494,778,494,496,498
494,809,493,495,498
493,781,495,496,499
493,661,497,496,498
493,434,493,497,500
493,304,492,496,499
493,234,492,496,499
494,224,494,495,497
493,262,492,496,497
493,306,493,498,497
493,422,493,497,498
493,550,493,498,497
493,708,493,497,496
493,808,494,498,499
493,800,492,496,499
493,758,494,499,498
493,564,492,496,498
493,364,491,496,497
493,276,489,495,497
494,233,492,496,498
493,244,495,496,495
493,270,495,497,495
494,352,496,497,496
493,475,496,497,496
493,602,493,497,499
493,769,495,496,498
493,814,494,496,498
493,776,492,495,498
493,679,493,495,497
493,469,494,497,497
493,322,492,495,497
493,254,494,497,498
493,229,492,495,498
493,259,491,496,499
493,302,492,496,498
493,406,493,497,499
493,532,492,496,497
493,676,492,497,500
494,805,493,498,498
493,803,493,498,497
493,767,493,496,498
493,596,494,498,498
493,381,493,496,497
493,291,492,497,497
493,238,493,496,496
493,245,492,495,496
493,272,493,496,499
493,341,493,494,497
493,460,493,495,498
493,584,493,496,496
493,751,494,495,497
494,811,493,496,497
493,787,495,497,499
494,699,491,496,497
494,499,493,496,497
493,329,492,495,497
493,262,491,496,498
494,236,493,496,497
493,262,492,497,499
493,289,492,494,497
493,396,493,496,498
493,515,492,497,498
493,658,493,498,498
494,786,491,497,498
493,802,492,498,498
494,764,494,497,497
494,619,493,497,498
493,409,493,496,496
494,301,493,496,497
494,238,492,498,497
494,241,491,497,497
494,275,491,496,498
494,329,490,496,498
494,445,492,496,496
494,567,493,496,495
493,738,491,498,499
494,804,492,496,497
493,788,494,498,496
494,722,494,496,497
494,527,492,496,497
494,344,491,497,497
494,269,491,497,499
494,232,491,495,496
494,252,492,496,496
493,285,491,495,497
494,379,493,497,497
493,498,492,497,496
493,632,493,498,498
494,783,492,499,498
494,802,493,497,497
494,773,494,498,496
494,650,491,496,498
493,429,491,495,497
494,309,491,496,496
493,234,492,495,497
494,239,491,495,496
494,267,491,495,497
494,325,493,496,497
494,428,492,497,496
494,549,491,497,498
494,707,490,497,499
494,803,491,497,498
494,779,492,495,497
493,740,493,499,497
494,544,493,498,498
493,352,492,497,497
494,282,492,496,496
494,242,493,495,498
494,255,492,495,497
494,285,491,497,499
493,358,492,496,497
493,478,491,497,496
494,608,492,495,494
494,762,493,496,497
493,801,492,496,496
494,766,492,497,498
494,662,493,496,496
493,452,492,496,496
493,321,491,494,494
493,252,490,497,498
493,237,490,494,497
493,273,492,495,496
493,307,490,495,496
493,412,491,495,496
493,533,491,496,495
493,681,490,496,497
494,792,493,496,496
493,788,491,498,497
493,749,491,498,497
493,574,492,497,496
494,374,492,496,496
493,289,491,495,497
493,239,493,494,494
494,249,492,496,495
493,278,490,495,495
493,348,491,495,496
494,465,491,496,496
493,588,490,495,495
494,756,492,495,497
493,795,490,495,497
494,773,490,496,497
493,683,490,495,496
493,480,490,496,496
493,329,491,495,496
493,262,491,498,498
493,246,491,498,496
493,273,492,496,495
493,300,490,496,496
493,404,492,495,496
493,521,492,496,496
493,657,492,496,496
493,783,491,496,496
493,786,492,498,497
493,749,490,495,496
493,605,492,496,495
493,395,491,496,495
493,301,490,496,497
494,242,489,495,497
493,259,490,495,495
493,278,491,497,497
493,338,491,494,495
493,454,491,497,496
493,573,491,497,496
493,742,491,497,496
493,793,490,497,495
493,773,493,496,497
494,700,493,496,496
493,504,491,496,496
493,339,491,494,495
494,273,490,496,498
494,239,490,495,496
493,272,491,497,496
493,295,489,495,497
493,387,488,496,496
494,503,488,496,495
494,639,490,496,498
493,774,488,495,495
494,792,491,498,496
494,760,495,499,497
493,632,494,498,495
494,419,491,496,495
494,307,491,495,495
493,247,493,494,496
494,254,492,495,495
494,274,492,495,495
493,327,490,495,495
493,437,491,497,496
494,554,490,496,496
494,720,493,497,497
493,793,491,497,497
493,777,491,497,496
493,722,490,497,494
493,528,491,497,496
493,350,490,495,496
494,283,493,497,495
494,248,492,497,495
493,262,491,496,495
494,295,490,497,497
494,369,491,496,496
494,490,491,496,494
494,618,490,496,496
494,760,490,497,497
494,790,490,496,497
494,763,492,496,494
494,651,490,496,497
494,439,491,495,495
494,316,491,497,496
493,252,489,497,496
494,252,490,496,495
493,270,487,495,494
493,322,487,494,496
493,422,491,496,495
493,541,492,496,496
493,688,492,496,495
494,791,493,498,494
494,773,490,496,494
493,741,493,496,496
494,553,491,496,496
494,366,490,496,496
493,291,490,495,494
494,241,491,497,496
493,257,489,495,496
494,290,492,496,495
494,360,492,496,495
493,473,491,496,495
494,598,492,497,497
494,755,490,496,496
493,788,491,498,495
493,762,490,496,496
493,665,490,496,496
493,464,490,494,495
493,328,491,494,495
493,257,489,494,494
493,243,489,494,495
493,275,491,496,495
493,314,490,496,494
493,411,490,494,493
494,524,491,496,494
493,667,489,496,496
493,785,491,497,495
493,777,492,496,495
493,743,491,496,495
493,587,490,497,495
493,381,490,497,496
494,300,490,495,495
494,239,491,497,495
494,255,490,496,496
493,283,490,495,496
494,346,492,496,494
493,458,491,496,495
493,580,491,497,496
493,742,490,497,496
493,795,492,498,496
494,772,492,495,495
494,681,492,498,495
493,488,492,495,494
493,333,491,496,494
493,267,491,498,496
493,246,490,497,494
493,264,488,495,493
493,301,491,496,496
493,397,492,495,494
493,511,492,496,495
493,644,491,496,495
493,774,491,498,495
494,781,490,496,496
493,754,493,497,496
493,609,492,495,496
493,403,492,495,496
493,304,490,495,497
493,249,489,494,495
493,247,492,496,496
493,276,489,494,495
493,338,492,496,494
493,444,491,496,494
493,565,490,496,492
494,726,491,497,493
493,789,492,498,495
494,777,491,496,494
494,700,491,495,495
493,517,491,496,494
493,343,492,496,493
493,274,490,495,496
493,245,491,494,496
494,269,491,497,495
494,297,491,498,496
493,385,490,497,494
494,495,491,497,494
493,630,489,495,494
493,776,492,496,494
494,789,494,496,494
493,757,492,496,494
493,638,491,494,495
493,427,490,496,494
494,312,491,497,495
494,252,491,494,494
493,249,491,496,495
493,276,490,496,496
493,327,492,494,494
494,432,490,496,494
493,551,490,494,494
494,711,491,498,495
493,794,492,498,494
494,779,494,497,496
493,728,491,496,494
493,540,491,496,496
493,359,493,495,494
493,284,493,496,493
494,240,493,494,494
493,268,490,496,494
494,286,486,495,495
493,369,491,496,495
493,485,491,496,495
493,612,492,497,496
494,763,491,498,496
493,797,492,495,494
494,767,494,497,494
493,657,490,494,493
493,451,492,495,495
494,321,491,495,495
493,252,493,495,496
494,249,491,495,494
494,266,491,498,495
493,313,490,494,494
493,415,490,496,494
493,535,491,497,494
493,686,493,497,493
494,790,490,497,494
494,781,490,497,495
494,747,490,497,496
493,568,490,497,496
493,373,490,496,494
494,290,493,497,494
493,236,489,496,496
494,257,492,495,493
494,282,493,496,493
493,350,492,496,494
493,467,493,496,495
494,594,492,496,494
494,747,491,499,495
493,795,490,496,495
493,768,490,497,495
493,677,490,496,495
493,477,493,496,493
493,326,491,497,494
493,256,491,497,496
494,246,492,497,495
494,269,493,498,495
493,307,492,496,496
493,404,493,496,494
494,522,491,496,494
494,659,492,496,492
494,783,491,496,493
494,784,490,495,494
494,757,492,497,495
493,594,491,496,495
493,393,491,494,495
493,299,491,496,495
493,242,491,497,494
493,254,491,497,494
494,274,490,495,494
494,341,494,497,495
493,452,491,496,494
493,574,492,496,493
494,737,493,497,493
493,795,491,497,495
494,779,490,495,495
494,701,493,497,494
494,502,492,494,495
493,333,491,496,495
493,268,492,496,496
493,237,493,495,494
493,265,493,496,495
494,290,492,498,493
493,390,491,496,494
493,504,491,497,495
493,640,489,496,496
494,779,491,496,493
493,794,490,498,494
493,756,488,495,495
493,620,489,496,495
493,408,492,496,494
493,305,492,495,492
493,242,491,495,494
493,243,492,495,492
494,276,490,496,494
493,331,489,497,493
493,437,488,497,494
493,558,491,495,494
494,723,493,496,494
493,795,494,497,494
493,780,495,498,494
493,719,494,498,495
494,529,492,496,494
494,343,492,497,494
494,272,490,496,493
494,240,492,495,493
493,251,492,495,494
493,281,491,496,495
494,377,492,496,493
493,490,492,497,493
494,625,490,496,494
494,770,491,497,495
493,797,491,498,496
494,767,489,498,496
494,645,490,496,495
494,433,492,496,494
493,308,493,496,493
494,241,494,497,492
493,236,492,495,492
493,263,490,497,494
493,311,491,496,493
493,424,491,497,494
493,544,492,496,494
494,695,491,496,495
493,795,491,497,493
493,782,492,498,495
493,741,492,496,493
493,552,492,496,494
493,359,491,497,493
493,282,492,498,494
493,229,490,495,494
493,253,493,496,495
493,276,490,496,492
493,355,492,496,493
494,473,491,496,493
493,598,493,497,493
493,760,492,496,494
493,794,494,495,494
493,772,492,497,494
493,664,489,496,494
494,453,493,495,494
493,314,489,495,493
493,247,493,493,494
493,231,491,496,493
493,260,490,496,494
493,299,490,496,494
494,402,491,496,494
492,528,492,497,494
493,672,491,497,493
493,788,492,497,496
493,784,491,496,494
493,745,490,495,494
493,572,491,497,495
492,373,490,495,494
493,284,492,497,495
492,224,490,495,493
493,238,491,494,492
493,266,490,495,492
493,334,491,495,494
492,457,490,496,492
493,579,491,497,494
493,745,492,496,494
493,797,493,496,493
493,767,492,496,494
493,689,491,498,494
493,479,492,495,493
494,321,491,495,493
494,249,490,494,492
492,225,491,496,493
493,249,489,497,494
494,295,489,496,492
493,391,488,497,495
494,512,490,497,493
494,648,493,495,492
493,780,495,496,493
493,793,492,497,493
493,751,494,498,496
493,604,493,495,494
493,393,492,496,493
493,289,492,495,493
493,226,493,495,494
493,240,491,496,494
493,258,492,496,494
493,328,493,495,493
493,437,492,496,494
494,558,491,496,494
494,724,491,498,493
494,799,491,497,495
493,772,492,496,494
493,708,492,497,495
493,511,491,497,494
493,331,491,497,493
493,261,490,494,494
494,233,492,496,494
493,249,493,496,493
494,281,495,496,492
493,376,493,497,493
493,492,492,496,494
493,634,492,496,492
494,778,490,498,493
493,794,491,495,493
494,762,493,496,492
493,633,493,496,493
493,418,492,496,495
494,305,492,495,492
494,232,491,498,495
493,232,490,495,493
493,260,491,496,494
493,311,491,496,494
493,431,492,497,494
493,550,491,498,494
493,717,490,496,495
494,805,490,497,496
493,786,491,497,494
493,734,494,495,492
493,540,493,496,494
493,346,491,496,493
493,278,491,497,492
494,237,492,497,492
494,248,493,496,494
493,279,490,496,491
494,360,492,498,494
493,483,492,497,493
493,617,492,496,492
493,768,493,497,494
493,800,492,497,494
493,776,494,497,495
493,661,492,497,494
493,444,491,496,493
493,311,492,497,494
494,242,490,497,495
493,235,491,496,493
494,267,493,498,493
493,305,491,495,493
493,419,492,497,494
494,543,492,497,494
493,692,494,498,494
493,802,491,496,493
493,789,492,499,495
493,745,493,495,492
493,562,492,496,493
494,364,492,496,492
493,284,492,497,494
493,225,490,496,492
493,245,493,496,494
493,274,490,496,494
493,350,491,496,494
493,465,492,496,494
493,597,491,496,492
493,767,492,499,494
493,802,491,496,493
493,782,494,497,493
493,683,494,497,494
493,470,492,497,495
493,319,491,495,492
493,243,491,498,496
493,227,491,496,492
493,255,491,496,491
494,293,491,495,493
493,404,492,497,492
493,525,492,497,492
493,670,493,496,495
493,799,490,496,494
493,798,491,498,494
493,761,490,496,494
494,589,492,497,494
493,378,492,495,493
493,290,491,496,493
493,234,493,496,493
494,240,495,497,493
493,264,494,495,495
493,337,493,496,492
493,450,494,498,493
493,577,493,496,493
494,745,493,496,492
494,804,492,497,494
493,784,494,497,493
493,698,491,497,493
493,495,493,497,493
493,328,490,496,493
494,260,492,498,493
494,229,493,496,493
494,250,492,497,492
494,281,489,497,495
494,385,492,497,493
493,512,493,496,492
493,643,493,496,492
494,793,494,498,493
494,798,492,498,492
494,765,492,496,495
493,623,492,499,495
493,403,493,496,494
494,296,492,498,495
493,223,492,495,493
493,240,493,498,494
493,260,491,497,493
493,326,493,497,493
494,437,493,497,493
494,562,492,498,494
493,732,492,496,492
494,810,493,498,493
493,785,490,496,494
493,719,491,496,494
494,525,493,496,494
493,338,492,496,494
494,269,491,495,492
493,226,492,499,494
493,253,492,497,494
493,282,493,497,493
494,371,491,496,492
494,495,492,497,492
494,631,492,498,492
494,779,494,496,493
493,803,491,496,493
493,769,491,496,493
493,647,491,497,493
493,434,492,496,493
494,306,492,496,492
493,233,490,495,494
494,237,491,497,494
493,264,492,497,494
493,311,491,495,492
493,427,491,496,493
493,549,491,497,492
493,716,492,498,493
492,808,492,497,492
493,794,489,496,494
494,751,494,497,491
493,547,491,497,493
494,355,492,497,492
493,278,492,496,493
493,234,492,496,494
493,245,490,497,492
493,278,492,496,493
493,358,492,497,493
493,480,492,496,492
493,613,492,497,493
493,776,492,499,491
493,806,489,496,493
493,782,492,496,493
493,667,492,497,493
494,456,492,496,493
493,314,493,497,492
493,244,493,495,492
493,233,492,497,495
493,252,492,497,495
492,305,491,497,494
493,411,491,496,493
493,531,491,497,493
493,680,492,498,495
493,807,490,496,492
493,799,492,499,493
493,761,492,498,494
493,581,493,497,494
493,367,492,496,493
492,285,493,498,493
493,219,491,497,492
493,241,493,498,494
493,273,493,498,493
493,342,492,498,493
493,459,491,497,492
493,592,492,498,493
493,752,490,496,492
493,814,492,497,493
494,784,494,496,491
493,691,495,497,495
494,483,492,498,494
492,321,491,498,496
493,245,492,496,493
493,225,492,495,494
493,250,492,496,494
493,296,492,498,492
493,396,492,496,492
493,519,492,496,494
494,664,491,496,494
493,796,492,497,494
493,803,492,497,493
493,762,492,497,495
493,602,492,496,493
493,392,492,497,494
493,294,492,497,493
494,234,492,498,493
493,237,493,497,494
494,264,491,496,493
494,329,492,498,494
494,448,493,497,493
494,576,493,496,492
494,744,494,497,493
494,817,494,499,494
494,790,492,497,492
494,716,495,497,495
494,512,492,496,494
494,333,493,496,494
494,260,492,497,494
494,229,491,497,495
494,251,494,497,492
494,284,490,496,495
494,384,492,497,493
494,504,493,497,494
494,644,494,498,496
494,793,491,496,493
493,806,492,499,496
494,778,492,498,496
494,642,492,498,495
494,415,492,497,495
493,298,492,496,493
494,232,491,498,493
494,228,491,499,494
494,267,494,498,493
494,323,494,497,494
494,432,492,497,493
494,557,493,497,493
494,724,491,497,495
493,809,493,497,493
493,791,492,496,493
493,732,493,497,492
493,540,492,497,493
494,346,493,497,494
493,273,490,496,492
493,225,489,495,493
494,245,491,495,492
493,277,489,498,495
493,365,491,496,492
493,488,494,496,493
493,624,493,496,492
493,784,494,497,493
492,808,493,495,492
493,775,494,498,495
493,666,493,495,493
493,439,491,497,492
492,309,491,495,492
493,239,494,497,492
493,231,493,495,491
493,260,491,496,493
493,313,493,496,494
493,418,493,497,494
493,549,492,496,492
492,701,495,497,493
492,804,492,499,494
493,796,491,496,493
493,756,493,499,494
493,558,491,496,494
492,363,491,495,493
494,280,492,496,493
494,233,492,496,494
493,242,493,497,493
493,269,490,495,493
493,349,490,496,493
493,471,492,496,492
493,601,491,496,494
493,772,492,498,494
493,809,491,498,494
493,783,490,496,493
493,676,489,496,494
493,468,490,496,494
493,319,490,497,494
493,243,493,495,492
493,234,494,498,494
493,254,493,496,494
493,300,494,496,492
493,406,494,497,492
493,527,492,497,492
494,677,492,497,494
493,804,493,497,493
494,799,494,497,492
493,764,494,498,493
493,590,492,496,494
493,384,492,497,493
493,288,489,497,493
493,233,492,497,492
493,243,492,498,492
493,272,493,496,493
494,338,492,496,494
493,459,492,496,493
493,579,493,497,493
493,755,492,498,493
493,812,493,498,493
494,784,493,498,494
493,692,494,498,495
493,496,492,496,493
493,323,491,497,495
494,259,491,498,495
493,232,493,498,494
493,247,490,496,493
493,293,492,498,494
493,387,491,498,494
493,510,491,497,494
493,652,494,497,494
494,795,495,497,497
493,799,493,496,494
493,770,492,497,495
493,614,492,496,493
493,404,492,496,493
493,299,493,495,492
493,230,494,496,495
493,244,492,495,493
493,267,493,498,494
494,323,492,497,492
493,442,492,496,492
494,567,492,497,493
493,738,492,499,494
494,807,491,496,493
493,789,495,498,495
493,715,491,497,496
493,525,492,497,494
494,339,492,498,494
493,269,491,497,495
494,231,492,496,493
493,257,492,499,493
493,288,493,499,493
493,381,493,497,494
493,494,492,497,493
494,635,493,497,495
493,780,494,497,494
493,800,492,497,494
494,768,491,496,494
494,645,493,496,494
493,430,492,497,494
493,309,492,496,493
493,240,494,495,495
493,238,491,497,495
493,268,492,498,496
493,320,491,497,493
493,425,491,497,493
493,552,492,497,493
493,715,491,499,495
493,807,493,498,493
493,791,494,498,493
493,737,491,496,493
493,547,493,497,494
493,355,493,497,494
493,277,493,496,492
494,235,492,495,493
493,249,492,498,494
493,276,490,495,493
494,367,493,498,494
493,481,492,497,494
493,613,491,496,494
493,770,491,496,494
493,805,493,496,493
493,771,493,499,495
493,663,491,497,494
493,452,492,497,493
493,319,492,497,493
494,248,494,498,494
493,234,491,497,493
494,261,493,498,495
493,311,491,495,494
493,412,491,497,494
494,536,491,497,494
493,680,492,499,496
494,800,492,497,495
493,793,495,497,497
493,755,492,498,497
493,575,492,497,495
493,372,492,497,494
493,286,492,498,495
493,240,493,496,494
493,249,494,498,493
494,277,494,498,492
493,347,494,496,492
493,466,491,498,494
493,592,490,498,492
493,756,492,499,495
493,808,491,496,494
493,774,492,496,494
493,683,493,497,495
493,481,494,498,495
493,325,491,496,494
493,255,494,497,496
493,237,491,498,495
493,263,492,498,494
494,301,493,499,494
493,398,492,498,494
493,522,492,496,494
493,663,494,498,494
494,791,494,497,494
493,792,493,496,494
493,763,491,499,496
493,596,490,496,495
494,394,492,496,494
493,292,492,496,495
493,231,491,497,495
493,246,492,496,495
493,272,494,496,492
493,338,492,498,494
493,448,493,497,494
493,574,493,498,494
493,746,494,498,494
494,803,495,498,496
493,777,491,496,493
493,700,492,498,496
493,502,493,497,494
493,333,492,497,494
493,264,491,495,493
493,237,493,498,495
493,254,491,496,494
493,289,494,497,496
493,384,491,497,495
494,503,492,497,494
493,641,492,497,493
493,779,492,498,494
493,792,492,496,494
494,766,495,499,495
494,633,494,498,494
493,416,493,497,494
493,304,493,497,495
493,232,491,497,493
494,240,493,498,495
493,265,491,496,493
493,320,491,496,494
493,436,492,498,494
493,559,493,498,494
493,717,491,496,493
493,799,495,498,496
493,785,493,498,496
493,727,492,499,495
494,535,493,497,494
493,344,492,497,495
494,273,492,496,494
494,242,494,498,494
493,255,492,496,493
494,285,494,496,492
493,371,492,498,494
493,487,492,497,495
493,625,492,497,494
494,767,493,497,495
494,797,491,497,495
493,766,492,497,495
493,657,495,498,495
493,436,492,496,495
493,313,493,497,496
493,241,489,496,495
493,242,491,497,495
493,270,492,496,494
493,310,493,499,494
494,420,494,496,494
493,544,493,498,494
493,700,494,498,494
493,795,495,497,494
494,784,492,498,493
494,738,494,498,496
493,557,493,497,494
493,361,492,497,495
493,282,491,496,494
494,233,494,498,493
493,251,491,497,496
493,279,493,496,496
494,358,492,499,495
493,471,492,497,495
493,603,493,498,494
493,763,492,496,494
493,795,493,497,494
493,770,490,497,496
494,670,494,497,494
493,462,494,496,494
493,322,494,496,494
493,250,492,498,494
494,233,492,498,495
493,268,491,496,495
493,301,491,495,495
493,408,492,497,494
493,526,494,498,494
493,672,491,497,496
493,793,494,497,496
493,788,493,499,496
493,755,493,499,496
493,586,494,497,494
493,377,493,497,495
493,292,491,496,495
493,239,494,496,493
493,245,493,496,494
493,274,491,496,493
493,338,491,496,494
493,457,492,497,494
493,579,493,498,493
493,751,493,496,496
494,798,492,497,496
493,773,492,497,496
493,688,495,496,494
493,489,493,497,495
493,328,494,497,496
494,262,492,499,497
493,239,492,498,493
493,265,494,498,495
493,289,491,498,494
493,393,492,497,494
494,511,494,498,494
493,646,494,497,493
493,782,493,496,494
493,793,494,499,495
494,753,492,495,495
493,616,494,496,495
493,398,492,496,495
493,298,492,497,496
493,238,491,496,495
493,249,493,496,493
493,277,493,498,495
493,327,492,496,494
493,443,493,497,495
494,567,493,497,493
494,731,495,498,496
493,796,493,497,494
493,774,493,498,495
493,702,493,496,495
493,515,493,497,495
493,338,493,496,494
493,274,494,498,495
494,237,490,496,493
494,260,495,498,496
494,290,492,498,497
494,381,492,497,496
493,494,493,497,495
493,627,493,499,496
493,770,492,496,495
493,795,495,498,494
493,762,494,499,493
493,642,495,496,494
494,427,494,497,495
493,307,492,497,494
493,238,491,497,495
494,239,493,497,495
493,267,492,496,494
493,319,492,496,494
493,431,494,498,494
493,549,492,497,494
493,712,495,497,496
493,797,492,498,496
493,783,492,498,496
493,735,493,496,494
493,537,493,497,495
493,354,493,496,494
493,281,495,498,494
493,241,494,496,493
493,256,494,496,494
494,286,493,498,494
493,361,492,498,494
493,483,493,497,494
493,608,492,496,495
493,761,491,497,496
494,798,492,497,496
493,762,494,497,494
494,665,492,498,494
493,446,494,497,495
493,316,493,497,494
493,250,493,498,494
493,243,495,497,496
493,265,494,497,494
493,314,492,498,496
493,412,493,497,495
493,534,492,496,494
493,679,492,496,494
493,795,493,499,495
493,782,491,497,494
493,746,493,497,496
493,566,494,497,496
493,370,493,497,496
494,292,494,496,494
493,243,492,498,495
493,249,492,496,495
494,281,495,498,495
494,349,494,497,495
493,466,493,497,495
494,591,492,498,496
493,753,492,496,495
493,804,493,498,495
494,768,493,497,496
493,676,492,496,496
493,477,493,496,494
493,327,494,497,496
493,257,492,495,494
493,237,493,498,496
493,266,494,498,495
493,306,493,498,493
493,403,493,496,494
494,519,493,497,494
493,662,492,496,493
493,788,495,497,494
493,786,495,496,494
493,753,495,496,496
493,598,493,497,496
492,390,492,496,495
494,295,492,496,495
493,235,495,496,495
493,248,493,495,494
493,275,492,495,493
493,344,494,499,495
493,451,493,497,494
493,576,493,497,495
493,738,492,496,495
493,799,492,497,495
493,778,495,496,493
493,697,492,497,496
493,502,494,496,495
493,333,492,497,495
493,268,493,498,497
493,243,493,498,494
493,257,492,498,495
493,294,492,495,495
494,392,494,498,494
494,505,493,499,494
493,643,494,498,494
493,779,492,498,496
493,790,494,498,497
494,764,493,496,494
493,620,493,496,495
493,411,493,496,495
493,304,493,496,495
494,237,492,499,497
493,242,491,496,495
493,278,493,498,495
493,325,491,497,496
493,437,492,496,493
494,560,493,496,493
493,721,496,496,496
493,801,494,496,493
493,784,493,499,496
493,719,493,499,497
493,531,493,497,495
494,344,494,497,494
494,278,493,500,493
494,236,492,499,494
493,260,494,499,494
493,289,493,499,495
493,375,493,496,494
493,485,493,498,496
493,622,492,496,494
493,774,495,498,494
493,795,494,499,495
494,766,494,498,494
493,655,495,497,495
493,431,492,496,494
493,313,493,496,495
493,242,496,498,495
494,239,493,496,494
493,268,493,496,494
493,323,493,499,496
493,421,493,497,496
493,548,493,497,495
493,694,492,497,495
493,794,493,497,496
493,784,492,497,494
494,739,492,498,497
493,551,493,496,495
493,361,493,497,495
493,286,493,499,497
493,243,493,498,495
494,251,492,496,494
493,283,495,496,496
493,359,494,497,494
493,475,494,498,495
493,602,493,496,495
493,760,493,497,495
494,801,492,499,495
494,766,490,497,496
493,675,497,497,496
493,457,495,497,494
493,320,493,497,495
493,253,493,496,493
493,236,494,499,496
493,264,493,496,495
494,313,495,499,495
493,411,494,498,495
493,531,494,497,494
494,674,493,497,495
494,791,494,498,496
493,791,494,496,494
494,748,494,497,495
493,579,493,497,495
493,382,493,497,495
494,290,493,496,495
493,245,493,497,495
494,250,492,496,496
493,277,492,497,497
494,346,492,497,496
494,460,493,497,495
494,581,493,498,497
493,747,493,496,495
493,804,495,499,495
493,775,495,498,495
493,692,495,497,495
493,486,493,497,495
493,328,494,497,496
493,263,494,496,494
493,233,491,496,495
493,258,490,496,495
493,294,494,498,494
494,394,492,497,496
493,518,494,497,495
493,656,494,499,497
494,785,494,498,496
493,794,494,499,495
494,754,493,499,495
494,610,493,497,496
493,400,494,497,495
493,297,495,496,494
494,233,494,497,495
494,242,492,496,494
493,277,495,499,495
493,329,492,497,495
493,448,494,497,495
493,567,494,498,496
493,733,493,498,497
493,804,494,496,495
493,782,495,499,495
493,703,492,496,494
493,514,495,498,495
493,338,494,497,495
494,270,494,496,497
494,240,494,496,494
493,253,493,498,495
494,285,492,496,495
494,379,492,497,495
493,497,493,497,495
492,636,495,497,494
493,778,492,499,495
493,793,492,498,496
493,768,495,499,496
493,640,495,498,496
493,423,493,497,496
493,309,492,497,495
493,236,495,498,493
494,246,492,498,493
493,264,493,496,494
493,317,493,496,495
493,430,493,496,495
493,555,493,497,495
493,708,493,499,494
493,800,491,497,496
493,780,490,496,496
493,726,492,496,495
492,543,494,497,495
492,350,493,496,495
493,281,493,496,494
493,230,492,496,496
494,250,491,496,495
493,279,492,498,495
493,369,492,496,495
493,486,492,497,495
493,617,491,496,494
492,764,493,497,496
493,798,492,496,495
493,767,491,496,496
493,666,494,496,495
492,443,493,497,495
493,312,493,496,495
493,238,494,496,494
493,234,493,495,494
492,269,493,498,497
493,311,493,496,495
493,418,493,497,494
493,541,494,497,495
492,686,493,498,495
493,795,493,498,496
493,793,494,497,495
492,753,493,499,496
493,562,492,497,495
494,367,492,496,493
493,284,491,495,495
494,243,493,498,495
493,245,491,497,495
493,280,491,495,495
493,350,493,497,495
493,467,494,497,494
493,595,492,496,495
494,765,495,499,494
493,800,492,497,495
493,777,495,497,495
493,675,492,497,495
493,470,492,496,494
493,323,492,498,495
494,254,492,497,496
493,236,494,497,494
493,261,492,497,496
493,299,491,497,497
493,403,492,496,496
493,524,494,497,496
493,666,491,497,495
493,795,493,498,496
494,793,493,498,496
493,756,491,496,496
493,595,495,497,495
493,382,492,496,496
493,291,493,497,497
493,234,491,497,497
494,246,493,498,497
493,272,492,498,496
494,338,491,497,494
493,450,490,497,495
493,575,492,496,495
493,749,494,499,497
493,803,495,499,496
494,780,495,498,495
493,692,493,496,495
493,497,493,496,494
492,328,493,497,494
494,261,495,499,494
493,231,494,498,494
494,257,492,497,496
493,286,495,498,494
494,389,491,496,495
493,508,493,498,495
493,645,494,497,494
493,784,493,497,496
493,800,493,496,494
493,759,493,498,498
494,618,493,496,495
493,406,492,497,496
494,297,492,496,494
493,231,493,495,495
494,244,495,499,495
494,264,495,498,497
494,330,494,496,495
494,436,495,498,496
494,561,494,497,495
494,723,494,500,497
493,800,493,497,496
493,788,495,498,497
494,717,493,497,498
493,527,493,497,496
493,346,492,496,495
493,269,493,499,497
494,236,492,496,496
494,257,495,497,495
493,285,495,498,495
494,372,494,497,496
493,495,493,497,497
493,626,493,497,497
494,781,494,497,496
494,799,493,497,495
493,768,492,498,497
493,649,493,497,495
494,431,494,497,494
494,305,493,498,496
494,230,493,496,495
494,239,494,499,495
494,263,494,498,495
493,318,495,497,496
494,422,492,498,496
493,547,491,497,496
493,705,494,497,494
493,798,493,496,496
493,784,492,496,496
494,749,495,499,495
493,546,494,497,496
493,357,494,496,495
493,279,492,497,497
494,229,491,498,497
493,249,491,495,494
494,272,494,499,496
493,352,494,497,495
493,479,495,497,495
493,609,495,498,496
494,770,494,499,494
493,804,495,496,496
493,771,493,497,495
492,671,491,496,496
493,455,495,497,495
493,316,493,496,495
494,244,495,498,495
494,231,492,497,497
493,260,495,498,496
493,301,492,498,494
493,412,494,498,496
494,533,494,498,495
494,682,495,496,496
494,800,495,498,495
493,794,492,498,497
494,751,493,496,495
494,574,492,497,495
494,375,493,496,495
494,288,495,497,497
493,225,493,497,495
494,242,493,498,498
494,274,493,499,497
494,344,494,499,497
494,462,493,497,496
494,588,493,497,496
493,760,495,499,497
494,808,493,497,495
494,776,494,497,496
493,684,494,496,496
493,484,493,497,496
493,325,493,497,496
493,255,495,499,496
494,230,492,497,497
494,253,492,498,498
493,291,491,498,497
494,394,494,497,495
494,516,492,497,494
494,656,493,499,496
494,796,495,499,495
493,797,495,499,495
493,763,492,496,496
493,606,495,497,496
493,394,493,497,494
494,292,494,497,494
494,226,494,497,495
493,236,492,496,496
494,267,492,498,495
494,334,492,498,497
494,449,494,497,495
494,573,494,498,497
494,744,493,499,497
493,809,494,498,496
493,782,493,498,494
493,709,495,497,497
493,509,494,497,496
494,333,494,498,495
493,260,494,497,494
493,229,492,498,497
494,251,495,498,495
494,284,491,496,495
493,382,494,497,496
493,500,494,498,495
493,639,494,499,496
493,781,492,497,494
493,802,492,497,497
493,771,495,498,496
493,641,495,498,496
494,416,494,496,495
494,303,493,498,496
493,225,494,496,497
494,239,494,496,495
493,261,493,498,496
493,322,493,498,496
493,430,493,497,495
493,554,494,496,494
494,720,493,498,497
493,801,493,497,496
492,791,494,498,497
493,732,494,498,497
492,537,492,497,495
493,345,494,497,496
493,273,492,496,495
493,236,494,497,493
493,249,495,497,494
493,277,494,496,494
494,367,493,497,496
494,484,494,497,496
493,622,493,496,494
494,771,494,497,496
494,802,493,497,497
494,770,492,497,497
494,660,495,497,495
493,438,493,497,496
493,309,494,497,496
493,241,493,498,497
493,235,494,499,496
494,262,493,498,496
494,307,491,498,496
493,415,491,497,496
493,544,494,497,494
493,693,496,497,494
493,798,494,497,494
494,797,494,499,495
493,748,491,497,495
493,562,493,496,496
493,368,493,497,496
493,280,494,498,498
494,230,493,496,495
494,241,495,498,495
493,267,492,495,496
493,351,495,497,495
493,470,494,497,495
493,598,495,497,494
494,762,496,497,496
493,811,494,497,495
493,773,494,498,496
493,676,492,497,496
493,465,494,498,496
493,315,492,497,497
494,245,495,497,495
494,233,495,499,495
494,253,493,499,495
494,304,495,499,495
494,404,495,499,496
493,525,494,497,496
494,672,496,499,495
494,795,493,499,497
494,794,494,496,495
494,755,494,496,495
493,587,494,497,496
493,383,493,497,495
493,287,493,498,495
494,233,492,497,497
494,243,492,497,496
494,271,493,498,498
493,336,492,498,496
494,455,494,497,495
493,581,494,499,495
494,747,493,499,495
493,812,495,498,495
493,782,495,497,495
493,698,495,498,497
493,498,494,497,496
493,324,493,497,496
493,254,493,495,494
494,226,493,496,497
493,253,492,498,497
493,287,495,497,497
493,390,494,497,495
493,513,493,498,495
494,656,495,499,496
493,795,496,498,496
493,801,492,497,497
493,765,494,497,495
493,622,493,498,495
493,401,493,496,494
493,293,494,496,495
493,223,493,496,496
493,235,492,497,494
493,268,492,497,497
493,323,494,497,495
494,443,493,497,495
493,567,493,499,496
493,734,493,500,497
493,806,492,497,495
493,789,495,498,497
494,716,495,497,494
493,522,494,497,495
493,336,495,497,495
493,264,493,498,497
494,227,492,496,496
493,252,494,498,497
493,279,491,496,497
494,375,493,498,496
493,495,493,497,495
493,629,494,499,496
494,786,494,497,496
493,808,493,497,494
494,775,496,498,494
493,649,496,497,495
493,427,493,497,495
493,306,493,497,495
493,227,494,499,495
493,238,492,497,496
494,261,491,497,497
493,314,491,498,497
493,425,493,498,496
494,552,493,498,497
494,708,494,497,497
494,812,496,498,495
494,795,497,498,495
493,746,496,498,497
495,548,494,497,496
493,355,493,497,496
493,274,494,496,494
494,227,493,496,496
493,245,492,497,496
493,279,495,498,494
494,361,493,497,495
493,481,494,498,496
494,616,494,499,497
494,777,493,499,495
493,810,493,499,496
493,780,491,498,497
493,673,495,497,496
493,450,492,497,496
494,313,494,496,495
494,237,496,496,494
494,227,493,496,496
493,264,495,497,496
493,304,496,497,495
493,413,493,497,496
493,537,493,498,497
493,688,494,499,498
493,800,492,497,496
494,798,496,498,498
493,756,492,497,495
493,574,494,497,494
493,372,495,497,495
493,282,494,498,497
494,234,493,497,496
494,245,496,499,495
494,271,493,497,497
494,346,493,498,495
494,463,494,498,496
494,592,493,499,495
494,757,493,499,495
493,812,492,497,496
493,784,495,497,494
493,690,496,497,495
492,481,495,498,495
493,322,493,498,496
493,248,493,496,496
493,233,494,497,496
493,254,492,496,496
494,293,492,497,497
493,396,493,497,495
493,522,493,497,496
493,661,494,497,495
493,800,494,498,495
494,802,495,498,495
493,763,496,498,495
493,604,493,497,496
493,393,494,497,496
493,290,493,496,495
493,226,493,496,495
493,238,492,497,496
494,266,493,497,496
493,334,495,497,494
493,449,493,498,495
493,573,494,498,496
493,751,494,499,496
493,811,495,499,496
493,785,494,497,498
493,705,496,497,495
493,506,494,497,496
493,329,495,496,495
493,258,494,496,493
493,226,493,496,495
493,257,495,498,496
493,286,492,497,495
493,382,492,498,496
493,507,493,497,495
494,645,494,499,496
493,787,494,497,496
493,803,495,498,495
493,767,493,497,495
493,631,494,496,495
493,414,494,497,495
493,299,494,497,495
493,225,494,498,496
493,244,492,496,496
493,269,495,498,495
493,321,491,497,496
493,434,492,497,496
493,558,492,498,497
493,718,494,496,497
493,810,496,497,497
493,784,496,498,495
493,732,496,497,495
493,534,495,498,495
493,346,493,497,496
493,271,493,496,494
493,237,494,499,495
493,248,492,496,496
493,279,492,496,496
493,367,493,497,496
493,489,494,497,496
494,627,494,497,495
494,780,494,499,496
494,808,496,498,495
493,774,496,497,495
493,660,496,497,495
493,437,493,497,495
493,309,495,497,497
493,242,494,494,495
494,234,493,496,497
493,262,493,497,497
493,311,495,497,495
493,421,494,497,496
494,545,495,498,497
494,700,493,499,498
494,802,494,498,497
493,791,494,500,496
493,743,492,498,495
493,561,493,497,496
493,360,493,497,495
493,283,495,497,495
495,235,495,497,496
494,251,494,499,497
494,273,493,497,496
493,358,495,497,496
494,471,493,497,496
493,603,493,497,496
494,762,493,498,497
494,804,494,496,496
494,781,494,499,497
493,670,493,497,497
493,466,493,497,496
493,323,494,498,496
493,252,494,498,496
493,233,492,497,496
494,265,493,497,497
494,307,494,498,495
494,410,494,498,495
493,527,494,498,495
494,669,493,497,494
493,799,494,499,495
493,788,494,498,496
493,761,492,498,497
493,590,493,497,496
494,381,491,496,496
493,288,491,498,496
493,229,491,496,495
493,249,494,498,494
493,276,497,497,494
493,341,496,497,494
493,457,494,497,495
493,580,493,496,493
493,744,493,499,495
493,800,492,496,495
492,775,492,496,496
494,690,492,497,496
493,492,494,497,495
492,328,493,497,494
493,258,496,498,497
494,238,494,498,496
493,264,493,498,496
493,295,493,495,496
494,389,493,497,495
493,509,492,496,495
493,650,494,497,495
493,788,495,497,495
493,792,495,498,495
493,759,492,497,494
493,613,494,497,495
493,401,494,497,495
493,298,493,495,495
493,237,494,496,495
494,241,494,496,495
493,277,493,499,495
493,327,492,496,495
493,444,494,496,495
493,564,493,497,496
493,728,492,498,497
493,801,493,497,496
493,776,494,498,495
493,704,494,496,496
493,520,493,497,495
493,342,494,497,494
493,273,495,498,494
493,238,492,498,495
494,255,494,498,496
493,291,492,496,496
494,378,492,497,495
493,497,493,497,495
493,628,495,498,495
493,775,492,497,497
493,792,494,496,496
493,768,494,500,496
493,646,494,498,495
493,428,492,497,495
493,309,492,497,497
493,238,495,497,494
493,243,494,498,497
493,264,493,496,496
493,318,493,496,495
493,426,493,497,495
493,552,494,497,496
494,706,492,498,495
493,793,494,498,497
493,786,494,498,496
493,737,494,499,496
493,545,493,496,496
493,361,493,497,494
493,281,493,497,493
493,237,494,496,494
493,253,493,496,494
493,280,493,496,495
493,367,494,496,496
493,482,494,497,495
493,611,492,498,498
493,765,492,498,497
493,799,494,498,496
493,768,495,499,496
493,658,492,496,495
493,452,494,496,495
493,316,494,496,495
493,247,495,495,494
493,238,493,496,495
494,263,494,499,495
493,309,492,496,496
493,416,494,498,496
494,535,493,498,496
494,684,493,498,497
493,795,494,499,496
493,781,493,499,496
494,752,493,496,496
493,570,494,497,496
493,376,493,497,495
494,292,494,496,494
493,241,492,499,497
493,249,493,496,495
494,285,495,496,495
493,348,493,497,496
493,466,493,497,495
493,591,492,498,497
493,750,495,497,495
493,802,494,499,496
493,766,493,497,496
493,682,495,498,495
493,478,494,497,495
493,327,495,497,496
493,258,492,496,494
493,236,494,499,496
493,258,493,497,496
493,299,492,496,496
493,401,493,497,495
493,521,495,498,495
493,662,492,497,494
493,781,493,499,496
493,790,494,499,495
493,756,495,498,495
493,600,495,497,496
493,392,493,497,495
493,297,494,498,496
494,232,494,496,496
494,246,492,496,495
493,274,492,496,496
493,335,492,497,496
493,452,494,497,496
493,572,494,497,495
493,740,492,500,497
493,800,494,498,494
494,777,495,498,494
493,693,492,497,497
493,504,494,496,495
493,334,493,497,495
493,264,493,496,494
494,238,492,496,495
493,259,492,499,495
493,292,492,497,497
494,389,495,498,495
493,507,493,498,496
493,643,493,499,497
493,782,494,498,495
493,787,493,498,495
493,760,494,497,497
493,625,494,497,496
493,412,493,497,495
493,305,493,496,494
493,235,493,496,496
494,250,495,498,495
494,273,491,497,494
494,328,494,498,497
493,437,492,497,496
493,558,492,498,496
494,718,493,496,496
493,793,495,498,496
493,777,494,497,497
493,716,495,497,495
493,529,494,497,495
493,349,494,496,494
493,280,493,499,495
493,235,493,498,495
493,261,492,497,497
494,287,491,496,497
493,375,493,497,496
494,487,494,498,495
493,623,493,499,497
493,764,494,497,496
493,795,495,498,495
493,765,495,497,495
493,654,495,497,495
493,438,493,497,496
493,313,492,496,495
493,248,492,499,496
493,239,492,496,496
494,267,492,496,496
493,317,493,497,497
493,420,494,497,496
493,543,493,496,495
493,689,493,500,497
493,794,494,498,496
493,784,495,498,494
493,740,493,497,497
493,552,494,496,495
493,364,493,497,495
493,282,493,496,495
494,235,492,496,495
493,252,493,496,495
493,283,495,497,496
493,360,495,497,494
493,472,494,498,496
493,601,493,499,497
494,761,493,499,495
494,797,495,498,495
493,764,492,498,495
493,671,496,498,497
493,459,495,497,496
493,321,493,497,495
493,249,493,495,495
493,237,495,499,495
493,264,492,496,496
493,309,496,497,497
493,409,493,498,496
493,531,493,497,496
493,673,494,499,495
493,783,492,499,495
493,786,493,497,497
493,747,496,498,495
493,579,494,496,496
493,384,493,496,495
493,294,494,498,496
493,232,492,496,495
493,254,495,497,497
493,278,492,498,497
493,344,493,498,496
494,458,493,497,495
493,580,493,497,496
493,750,494,499,495
493,795,493,497,495
493,770,495,497,495
493,687,495,497,495
493,489,495,497,496
493,328,493,496,496
493,258,495,499,496
494,234,492,497,497
493,261,492,498,497
493,296,492,498,497
494,390,494,497,495
493,515,494,498,495
494,646,493,500,496
493,785,495,498,495
493,790,494,497,494
493,755,495,498,498
494,611,494,497,495
493,402,494,497,496
493,295,494,497,496
493,232,492,497,496
493,247,491,496,497
493,274,492,498,494
493,327,494,498,496
493,444,494,498,495
493,565,494,499,496
493,733,494,499,496
493,797,495,498,495
493,775,493,499,498
493,702,494,496,497
493,517,494,497,496
493,334,493,497,496
493,268,492,496,496
493,238,492,497,493
493,256,492,497,496
493,286,494,496,494
494,382,494,498,496
493,497,493,498,496
493,634,494,499,495
493,768,492,498,495
493,792,494,498,497
493,765,493,497,494
493,632,494,497,495
493,422,493,497,495
493,308,493,496,495
493,241,495,499,495
493,244,492,497,494
493,267,494,499,496
493,324,493,498,496
493,431,493,497,495
493,551,494,497,495
493,702,495,499,495
493,798,493,498,497
493,776,495,497,496
493,727,494,496,495
493,539,494,496,495
493,354,493,498,496
494,278,492,497,494
493,241,493,498,497
493,256,493,498,497
493,285,493,498,497
493,368,494,497,495
493,482,493,498,495
494,614,493,497,494
493,768,496,498,495
493,795,494,497,495
493,765,494,496,495
493,659,493,499,495
493,448,492,497,495
493,319,493,498,494
493,244,490,497,497
493,241,491,498,497
493,269,493,498,496
493,305,494,496,496
493,417,494,496,495
493,535,495,498,495
493,686,496,498,495
493,794,494,496,495
493,785,494,499,496
493,742,494,496,495
493,570,494,497,495
493,368,493,497,496
493,285,493,497,498
493,236,492,497,495
493,243,493,499,497
493,281,492,495,496
493,352,495,498,495
493,467,494,497,496
493,593,494,497,492
493,755,496,498,494
493,802,494,499,496
493,770,492,498,495
493,684,493,497,497
493,473,493,497,495
493,323,493,496,496
494,255,496,497,494
493,237,493,499,496
494,256,493,496,495
493,303,495,499,495
494,401,494,498,495
493,523,495,497,496
494,663,492,498,494
493,788,494,499,495
493,787,493,497,495
493,754,492,496,496
493,596,493,497,496
493,390,494,497,495
493,292,492,498,495
493,231,492,498,496
493,247,493,499,495
493,273,494,498,495
494,339,496,497,495
493,450,495,498,495
493,574,494,497,495
493,747,493,499,495
492,798,494,497,496
493,776,493,497,497
494,697,493,497,495
493,501,495,497,496
493,331,494,497,495
494,263,494,499,497
494,232,495,499,496
493,259,495,498,494
493,284,493,497,497
494,384,494,497,496
494,507,493,497,495
493,639,494,497,495
493,781,493,497,496
493,795,494,498,494
493,765,494,497,497
493,627,495,496,494
493,406,494,498,496
493,299,493,499,496
493,236,492,499,494
493,243,494,498,496
493,262,492,498,495
493,324,492,497,497
493,434,495,498,496
494,558,494,497,495
493,720,494,496,495
493,808,495,499,496
494,782,493,497,495
494,724,496,497,498
493,527,493,497,496
493,341,493,496,496
493,274,493,496,494
493,226,494,499,496
493,247,492,496,496
493,282,496,498,494
493,367,494,497,494
493,491,493,497,495
494,627,494,499,494
493,771,494,499,496
493,807,493,497,496
493,769,492,498,497
493,651,492,497,497
493,433,493,497,495
493,306,494,497,495
493,238,493,499,496
493,230,493,499,495
493,262,495,498,495
493,315,495,497,495
494,421,494,497,496
493,545,494,497,495
493,709,493,500,496
493,800,493,498,496
493,789,492,498,496
493,745,491,497,497
493,552,494,497,496
493,358,492,497,495
493,277,494,499,496
494,233,495,499,495
493,247,496,498,495
493,276,493,497,497
494,351,494,497,495
494,476,494,498,495
493,606,495,497,494
495,765,494,498,496
494,806,493,497,497
494,780,493,497,494
493,674,493,498,496
493,460,494,496,495
493,315,493,498,497
493,244,493,499,497
493,234,494,499,495
493,253,493,497,495
493,303,496,497,497
493,408,495,498,495
493,529,494,497,495
493,676,494,497,494
494,802,495,498,495
493,792,492,497,497
493,760,496,498,497
494,581,494,497,496
493,375,494,497,496
493,286,494,498,494
494,221,494,499,496
493,241,492,496,497
493,271,495,498,494
494,337,495,498,495
493,460,493,498,495
493,587,493,496,495
494,761,494,499,496
493,809,494,498,494
493,786,492,498,497
493,692,492,498,497
493,487,491,497,496
493,324,494,497,496
493,253,495,499,497
493,224,494,496,494
493,253,497,497,495
493,289,496,497,495
493,392,494,496,496
493,516,494,498,494
493,655,494,499,496
493,793,494,497,496
493,800,493,498,497
493,767,493,497,497
493,610,495,497,495
493,394,494,497,495
494,289,493,498,495
493,231,495,498,494
494,235,496,498,495
