Sensor0,Sensor1,Sensor2,Sensor3,Sensor4

91,493,546,490,492
492,494,620,492,493
491,493,640,491,494
492,494,629,490,495
492,491,580,493,495
492,493,473,491,493
492,493,409,491,494
493,492,371,491,492
492,494,367,492,494
491,494,373,490,494
493,493,392,489,494
493,493,446,490,493
491,493,506,490,493
492,492,583,491,492
492,495,635,492,492
491,493,633,491,492
492,494,619,491,492
492,495,532,491,493
491,493,435,491,494
492,493,393,489,493
491,492,367,492,494
492,491,369,491,495
492,492,379,491,494
491,492,412,492,493
493,492,471,491,493
491,492,537,490,493
492,494,612,490,493
493,494,639,490,494
494,493,632,491,493
493,493,586,492,493
493,492,487,491,493
492,494,412,492,494
491,492,375,493,494
491,493,365,492,492
492,494,372,492,495
492,491,385,490,492
493,492,440,491,493
492,492,500,491,493
492,491,570,490,494
493,493,633,491,494
492,492,638,492,493
493,493,623,493,494
491,493,546,491,494
493,492,444,491,493
492,493,395,490,493
492,494,367,490,492
492,492,368,492,493
494,492,378,490,492
491,493,405,491,494
491,492,464,490,493
492,492,527,491,493
490,492,608,490,493
493,492,638,491,492
493,492,634,492,494
493,495,595,490,493
494,493,499,491,493
493,493,418,490,493
491,493,380,491,495
493,491,367,490,493
493,494,373,492,493
490,493,383,492,493
491,493,431,490,493
491,493,493,491,492
491,491,561,492,494
493,494,628,490,492
491,493,638,492,494
492,490,627,491,495
493,492,563,492,494
493,492,458,491,493
492,493,400,491,493
491,493,369,490,493
491,493,365,490,492
492,493,375,490,493
492,494,400,489,492
491,492,457,491,493
492,493,518,490,492
491,493,601,491,494
491,492,638,491,493
490,492,633,491,492
491,493,610,491,495
493,493,511,490,493
493,492,427,491,493
492,493,386,490,494
494,494,367,491,494
493,492,373,491,495
493,492,383,490,492
493,494,424,491,493
491,493,485,490,492
491,492,550,491,492
491,493,621,491,492
492,494,640,490,492
490,492,629,492,494
494,493,575,492,493
491,493,468,491,493
493,492,406,491,494
492,491,372,491,495
491,492,367,490,493
493,492,373,491,492
493,492,399,490,492
491,493,449,491,492
492,491,510,490,493
492,494,588,489,492
490,493,635,491,494
492,492,635,489,492
493,492,620,493,494
491,492,526,492,494
492,492,433,491,493
492,493,390,491,492
493,492,369,491,493
493,494,370,492,493
491,493,381,491,494
493,492,417,490,493
492,493,476,490,492
492,493,541,490,492
492,491,617,492,492
493,493,641,491,492
492,494,629,490,492
491,494,582,490,493
493,494,482,491,493
491,492,412,490,493
493,492,373,492,492
491,492,368,492,494
491,491,373,491,494
491,492,392,491,493
491,493,442,490,493
491,492,502,491,493
492,491,578,489,492
491,495,633,490,493
493,493,636,490,494
494,493,624,490,494
494,493,539,492,494
491,492,441,491,495
492,494,395,490,494
490,492,368,493,493
491,493,367,491,492
492,494,378,490,494
492,491,410,490,493
492,493,470,491,493
491,493,532,490,493
493,492,611,490,494
492,492,640,491,493
492,494,631,490,493
490,491,592,492,494
494,493,494,492,493
492,492,415,491,493
491,493,377,491,492
491,494,366,492,493
491,492,373,490,494
493,492,385,491,492
492,492,436,490,493
492,492,496,490,494
491,492,565,492,492
491,492,630,491,494
492,492,638,490,492
492,494,627,491,494
492,494,553,491,494
493,494,450,491,493
493,493,400,490,494
494,493,367,491,493
492,492,367,492,493
493,494,378,492,493
490,492,402,492,493
491,492,459,491,493
491,493,522,491,493
491,491,600,490,492
493,493,639,492,492
492,492,635,491,494
492,492,604,491,495
493,492,507,491,495
492,492,419,491,493
491,492,383,490,493
493,494,365,491,492
490,493,369,491,492
491,493,381,489,492
492,494,427,490,492
492,492,489,491,493
492,492,555,490,491
491,493,624,491,494
491,492,639,492,493
491,492,627,492,493
491,493,569,491,494
493,493,462,491,494
493,493,404,491,494
492,494,368,490,492
493,494,366,491,495
494,493,376,491,494
492,494,397,490,494
491,491,453,490,492
492,493,515,491,492
491,492,592,492,492
490,493,635,491,493
493,494,637,492,493
491,494,614,490,493
491,493,521,492,493
493,493,429,491,494
492,492,389,491,495
493,491,368,491,494
491,492,371,490,492
493,493,379,492,492
490,492,421,490,493
491,492,479,490,492
491,493,543,489,492
493,494,618,490,494
491,493,639,491,494
493,491,630,490,492
492,495,582,493,494
492,492,475,492,494
492,492,409,491,493
492,493,373,490,494
494,493,364,490,493
492,492,375,492,493
493,495,393,490,493
494,492,445,490,493
492,492,506,490,491
491,494,579,491,493
491,491,634,489,493
493,493,635,492,491
491,493,620,492,492
492,494,533,491,493
492,493,437,490,492
492,491,394,492,493
493,494,366,491,492
491,493,371,491,494
492,491,379,491,495
492,491,412,491,493
491,492,471,490,493
492,492,534,491,492
492,492,615,490,491
492,494,638,490,493
493,494,630,490,494
494,494,589,490,493
491,493,488,490,494
492,493,412,490,493
492,492,378,492,495
491,492,366,492,493
491,492,371,491,492
492,493,390,490,494
491,493,436,490,494
492,492,499,490,492
492,493,571,489,493
493,492,631,491,494
492,492,638,491,494
491,491,624,490,492
492,491,548,492,494
493,494,447,491,492
491,493,396,491,492
491,493,366,491,492
493,494,367,489,494
491,492,378,490,493
493,493,404,491,492
491,492,465,490,493
491,492,525,491,494
490,491,606,492,494
491,494,640,490,494
491,494,631,491,495
492,492,600,490,492
492,494,502,491,493
492,492,418,491,494
493,493,383,492,492
491,493,367,491,495
492,494,370,490,493
491,493,384,493,492
490,492,430,491,492
491,492,490,491,492
491,493,558,489,494
491,491,629,490,493
492,493,637,491,492
491,492,629,492,495
492,491,564,491,495
492,492,458,491,493
492,493,402,490,493
490,492,368,493,493
493,492,368,490,491
491,493,375,490,492
492,494,399,489,492
493,493,456,491,492
491,492,517,490,493
492,493,595,489,492
492,492,640,492,493
490,492,634,492,493
491,493,610,492,493
494,493,517,491,494
491,493,425,491,494
493,492,387,489,493
493,494,368,491,494
493,492,372,491,495
492,491,382,491,495
492,494,422,489,492
491,491,482,490,492
492,493,549,491,491
490,493,621,491,492
492,493,638,490,493
493,494,629,492,493
491,492,575,490,494
493,493,470,491,493
492,492,408,491,494
491,491,372,491,496
491,491,366,491,493
492,494,375,489,493
490,492,394,490,494
492,492,448,490,492
491,492,510,490,492
491,493,584,489,492
493,493,636,491,492
492,492,637,492,495
493,494,617,490,495
491,492,530,491,494
491,493,434,492,494
491,493,391,491,493
491,493,367,491,495
491,492,368,490,493
493,492,380,492,494
494,494,416,490,494
492,492,474,491,493
493,492,539,490,494
491,494,615,490,494
491,491,639,490,493
493,492,630,491,491
490,495,584,491,493
492,493,482,491,494
492,493,413,491,493
491,494,374,490,492
491,492,365,490,494
492,491,375,491,494
491,491,391,491,494
491,491,441,491,492
492,493,502,491,492
491,492,573,489,494
493,494,633,489,492
492,493,636,490,493
493,493,623,489,493
494,493,542,490,493
492,493,443,491,494
493,492,395,490,493
493,494,368,492,493
490,492,367,492,493
491,493,375,492,492
491,494,410,491,493
491,493,465,490,493
492,492,529,491,492
493,493,610,490,493
492,492,639,491,494
492,492,632,492,492
493,495,592,493,495
492,492,494,490,493
493,493,416,491,493
492,493,378,492,493
491,493,364,491,494
493,493,374,492,493
493,493,385,490,494
491,493,434,491,493
493,493,496,491,494
492,492,564,492,494
492,491,630,492,494
492,493,639,491,494
494,494,625,492,492
494,492,559,491,493
493,493,452,491,493
491,493,399,491,494
494,494,367,490,492
491,493,367,491,494
493,491,375,490,493
493,492,404,492,494
492,493,460,492,494
492,492,521,492,494
491,494,601,489,492
491,494,638,491,494
493,492,634,491,492
492,495,604,491,492
492,494,509,492,494
492,492,420,491,494
492,492,386,491,493
493,492,366,493,493
494,493,373,491,494
494,492,384,492,496
492,492,427,492,494
492,493,486,491,492
492,493,555,491,492
490,493,625,491,495
492,495,639,490,493
493,494,629,490,493
494,495,571,491,494
494,493,465,491,494
492,493,405,491,493
493,495,367,492,495
491,493,367,493,493
491,494,375,493,493
492,493,397,490,495
493,493,452,491,492
491,492,513,491,494
493,494,592,489,492
493,494,638,491,494
492,492,636,492,494
493,494,615,490,495
492,493,524,491,494
492,493,430,492,494
492,493,390,492,493
491,492,368,492,493
492,494,369,491,493
491,493,382,492,495
492,495,419,490,494
492,493,479,491,494
493,494,546,491,494
493,492,620,491,494
492,492,639,490,494
494,494,630,492,492
490,493,583,491,495
493,494,476,491,494
493,494,410,490,493
492,494,372,491,493
491,493,366,491,495
493,492,376,491,493
492,494,394,492,496
492,493,445,491,493
492,492,506,491,493
491,492,579,491,494
494,494,634,491,492
492,492,637,492,494
494,494,623,490,494
494,495,537,492,494
493,494,438,491,494
493,493,395,491,492
492,494,369,491,494
491,494,368,490,493
492,493,378,491,493
490,492,410,491,493
491,493,469,491,493
493,493,534,491,492
492,494,612,492,493
491,492,640,490,494
493,492,633,491,494
492,492,591,492,496
493,492,489,491,494
493,493,414,492,493
493,493,377,490,493
491,493,364,490,493
492,494,373,490,493
492,494,385,490,494
491,493,436,490,492
493,493,499,492,492
491,492,569,490,494
492,492,633,491,494
491,492,638,492,493
490,493,624,493,493
494,493,552,491,493
493,493,448,491,495
493,492,397,490,493
493,495,368,490,493
493,493,369,491,494
493,492,376,491,492
491,492,407,492,494
491,493,461,491,493
492,492,525,491,493
491,492,605,493,492
490,494,638,491,494
492,492,635,489,493
493,495,601,494,495
491,494,503,491,494
493,493,420,490,494
492,492,385,492,496
492,495,365,490,494
491,493,372,493,494
493,492,384,492,493
491,494,429,490,493
491,493,490,491,493
491,494,557,489,493
492,494,627,491,493
491,493,640,491,494
492,494,626,489,496
493,492,567,492,495
492,492,461,492,494
491,491,402,492,493
493,493,368,492,492
491,493,368,492,495
491,494,374,490,493
493,496,399,490,493
493,494,455,491,494
491,493,516,492,493
493,493,598,491,493
491,494,637,492,495
491,493,634,493,493
490,494,613,493,492
491,493,517,491,494
494,493,427,491,494
492,492,389,492,495
493,495,366,490,494
494,493,372,491,495
492,493,382,491,495
492,491,422,491,492
492,494,482,490,494
491,493,548,490,494
493,493,620,492,492
492,494,638,490,492
492,495,629,490,493
492,491,580,493,494
493,493,471,491,494
492,492,407,491,494
493,492,372,490,495
492,492,367,492,494
490,491,374,490,493
493,494,394,492,492
491,492,447,490,494
491,493,508,490,492
492,494,582,490,492
493,494,636,491,494
491,493,634,492,495
493,492,623,491,492
491,494,530,492,495
493,493,434,492,494
491,493,393,492,493
491,492,367,492,493
492,492,370,492,495
492,494,379,490,495
491,491,414,490,493
492,493,473,491,493
492,493,539,490,494
492,492,615,490,492
493,494,641,491,493
490,493,631,490,494
490,492,585,492,493
493,493,485,492,494
492,493,412,491,493
492,491,377,491,492
492,494,366,492,493
490,492,373,491,494
493,492,389,490,495
492,492,440,491,494
492,492,500,490,493
492,492,571,492,492
493,494,633,491,492
492,493,635,490,493
494,494,623,490,493
493,495,544,491,494
492,494,445,491,494
491,492,396,491,495
492,493,366,491,493
492,493,368,492,494
491,493,377,492,492
490,492,407,491,492
492,492,464,490,493
491,493,527,491,493
490,491,607,489,493
493,493,639,491,494
493,493,634,491,494
492,492,593,490,492
492,492,498,491,494
492,493,416,490,493
491,492,379,492,493
491,492,365,491,492
491,493,372,491,494
491,491,385,489,492
493,494,434,492,493
491,492,494,490,493
492,492,563,490,494
493,492,631,492,494
491,492,638,492,493
493,493,627,490,493
491,493,558,491,495
493,492,453,491,493
492,493,400,490,493
493,495,368,490,492
493,493,366,492,493
491,492,377,491,495
491,494,400,490,494
491,492,459,490,493
492,492,520,491,492
490,492,599,492,493
493,492,639,490,493
492,494,635,492,494
491,494,606,490,493
494,494,511,491,493
492,493,424,490,493
492,492,385,491,492
493,492,367,491,492
492,494,372,492,494
490,492,381,492,493
490,492,424,491,492
491,492,486,490,492
490,493,551,490,494
491,494,622,489,493
490,492,639,491,494
493,491,629,491,494
493,492,575,492,495
492,492,468,491,493
491,493,404,491,492
491,493,371,490,494
492,493,364,490,493
492,494,374,490,493
493,495,397,489,493
492,492,450,491,493
491,492,512,489,491
490,493,589,490,494
491,491,636,491,493
491,492,635,492,492
490,494,618,490,494
494,492,523,491,493
492,492,432,490,494
490,493,388,490,492
492,494,366,489,492
493,493,371,489,493
492,492,381,490,491
489,493,415,490,493
491,492,478,490,493
491,492,542,491,492
490,492,617,491,492
491,494,639,490,492
492,491,631,492,494
493,495,581,490,493
492,493,480,491,494
493,492,410,490,494
493,491,375,491,495
492,492,367,490,493
493,494,372,491,493
491,492,393,490,494
491,494,442,490,492
491,492,502,490,492
492,494,576,489,492
490,491,633,491,493
492,492,637,490,491
492,494,624,491,495
491,491,537,491,494
492,492,439,490,493
491,492,395,491,492
490,493,367,489,494
491,493,367,490,494
490,491,379,489,492
492,494,408,489,493
493,493,468,490,493
491,492,531,490,492
490,493,613,490,494
491,494,640,490,493
490,492,630,491,492
490,493,589,491,492
491,493,492,491,494
492,492,416,491,493
492,493,377,492,494
490,492,366,490,495
492,491,373,491,495
493,492,387,491,494
491,492,434,490,492
491,492,496,490,493
492,492,566,490,491
489,493,628,490,492
492,493,636,489,493
492,493,625,489,493
494,494,554,492,493
491,492,449,491,493
492,493,398,490,492
491,491,369,491,493
491,492,367,491,491
490,493,376,491,492
493,492,404,490,492
491,493,460,490,492
491,492,522,490,492
492,493,602,489,493
493,492,639,491,494
492,491,631,490,492
492,491,603,492,494
494,494,505,491,494
492,492,419,491,493
491,493,381,490,492
491,494,365,490,493
490,492,372,490,493
493,493,382,492,492
490,492,430,490,493
491,492,488,490,493
491,492,556,491,493
490,492,626,492,492
492,492,638,490,492
491,493,626,492,495
493,491,564,490,493
492,493,460,491,493
492,493,404,490,492
492,493,369,492,492
491,492,367,490,494
491,493,374,490,493
489,491,399,492,493
490,492,453,491,492
491,493,514,490,493
491,491,594,490,491
491,494,638,491,493
490,493,635,490,494
493,492,613,490,495
493,493,520,491,494
493,493,428,491,493
491,492,388,491,493
492,495,366,492,492
491,493,369,491,493
492,493,379,490,492
492,494,420,490,492
491,493,481,491,493
491,492,546,489,493
490,493,620,491,494
491,491,640,491,494
491,492,630,492,492
491,492,581,493,494
492,493,473,492,493
491,492,409,491,493
491,494,370,490,492
491,494,365,489,494
493,493,375,490,493
492,492,392,491,492
491,492,446,489,492
491,493,507,490,492
490,492,581,492,492
491,492,634,491,492
492,494,636,491,494
490,491,620,489,492
493,492,533,491,493
492,493,436,491,493
492,491,393,490,495
493,492,369,491,494
491,492,370,492,493
493,493,379,491,492
490,493,414,490,494
491,492,471,490,492
491,493,535,488,491
492,494,613,489,491
492,492,639,491,492
492,491,631,491,491
491,494,586,492,495
491,492,486,491,494
491,492,413,491,493
491,492,376,490,493
493,492,363,490,492
491,491,373,491,493
492,494,387,488,492
492,492,437,490,492
492,492,500,490,492
490,493,569,490,494
491,492,633,489,492
493,494,638,491,492
490,493,623,492,493
490,493,545,491,493
492,492,448,491,492
491,492,397,492,494
494,495,367,489,492
491,494,368,491,495
493,491,377,491,494
493,491,407,491,494
491,492,465,490,493
491,493,526,491,492
490,492,608,489,493
491,494,637,489,492
492,493,631,489,493
493,495,597,490,493
491,492,499,492,493
492,492,417,491,493
491,494,382,492,495
491,491,366,492,493
491,492,371,491,492
491,493,384,490,494
492,492,430,490,492
492,492,493,490,492
491,493,559,489,493
492,493,627,490,494
493,492,638,491,494
492,492,627,489,492
492,495,562,493,494
492,494,455,491,493
491,492,400,490,493
491,493,367,491,492
492,495,367,490,493
490,492,376,492,494
494,494,401,491,492
491,492,458,490,493
491,492,518,491,494
490,491,599,491,493
491,492,638,490,494
492,493,632,490,491
492,491,611,491,492
492,494,512,491,493
492,492,423,491,492
492,493,387,489,492
489,492,366,490,495
492,491,370,489,492
492,491,382,492,494
490,492,423,491,493
491,492,483,490,492
491,493,549,490,491
491,491,623,491,493
493,494,639,491,493
491,493,630,491,494
493,493,575,491,495
493,493,468,491,493
493,492,405,491,493
493,492,370,493,494
493,493,367,491,492
491,494,373,490,493
492,495,394,489,492
492,494,449,490,493
491,493,511,489,493
493,493,587,491,492
490,492,637,491,494
491,492,635,491,493
490,493,619,493,493
491,493,527,491,493
491,492,432,490,493
492,492,392,490,492
491,493,366,489,492
492,493,369,489,493
492,493,380,489,493
493,492,415,490,492
491,492,476,490,493
491,492,539,489,493
491,491,618,491,493
490,492,638,491,492
491,494,629,491,494
492,492,586,491,493
492,493,482,490,494
492,493,411,490,493
492,494,373,489,492
493,494,366,490,494
493,493,373,491,492
492,491,392,491,491
491,494,442,490,493
491,492,503,491,492
490,491,573,491,492
490,491,632,490,493
491,492,634,490,492
492,491,624,491,495
492,495,538,490,493
491,493,440,491,492
493,493,394,490,493
494,493,367,489,492
490,493,367,491,494
492,491,377,489,492
491,491,410,491,493
490,492,467,490,492
491,492,529,490,492
490,493,610,490,493
490,493,638,491,494
492,492,633,491,491
491,492,592,492,493
492,493,494,492,494
492,493,417,490,493
492,492,378,492,492
491,492,366,491,493
492,494,372,489,492
491,493,383,488,492
492,494,434,489,492
491,491,496,491,492
491,491,564,489,490
491,494,631,491,492
490,492,636,491,492
491,493,624,490,491
491,494,555,490,492
492,492,453,490,494
492,492,399,489,492
490,492,368,489,493
490,490,368,490,493
490,491,376,490,494
491,490,404,488,492
491,492,458,490,492
491,493,521,489,494
491,493,600,490,491
490,492,637,489,493
494,492,633,491,494
492,494,601,490,495
492,492,508,491,493
493,493,421,491,493
492,493,383,491,492
490,493,366,490,493
492,494,372,492,491
491,492,383,489,494
490,493,426,490,494
492,492,488,491,493
491,492,554,491,491
490,492,623,490,492
492,493,638,492,493
490,492,627,489,492
493,492,569,491,492
492,492,463,490,493
492,491,403,490,494
493,493,369,489,492
491,493,366,490,494
492,491,376,489,492
492,495,400,492,493
491,492,452,491,493
492,492,513,490,492
491,493,593,490,494
492,494,635,490,493
491,492,635,492,493
492,493,615,490,494
494,493,521,491,494
494,493,431,490,492
491,493,389,492,494
490,491,366,490,493
493,494,370,491,492
491,493,379,490,492
491,495,418,490,493
491,493,479,490,492
491,493,545,492,493
492,494,619,492,492
490,493,641,491,494
492,491,630,491,495
493,492,583,491,496
493,493,475,492,495
492,492,409,491,497
493,495,372,489,497
490,492,365,491,496
491,493,372,490,496
492,494,392,489,498
491,492,446,490,495
491,493,508,491,493
491,493,582,490,492
493,492,636,491,490
491,492,636,492,491
490,495,622,490,491
490,493,533,491,494
494,494,438,491,492
491,494,393,490,492
492,495,366,490,493
494,494,371,490,493
494,493,378,491,492
491,492,413,491,494
492,493,472,490,493
491,492,536,491,493
489,492,612,492,492
492,494,639,490,494
491,491,633,489,493
492,495,590,492,494
492,494,489,490,494
492,493,413,490,494
493,492,378,490,494
494,494,365,490,493
490,491,373,492,495
493,494,388,492,494
490,492,438,491,495
491,492,498,490,494
492,494,567,490,495
491,492,630,490,494
492,493,636,491,493
493,492,627,491,495
493,492,549,492,492
492,493,447,491,490
492,493,398,491,489
493,493,368,493,489
491,494,369,491,491
491,495,376,490,492
493,494,404,489,495
492,493,463,489,495
492,492,524,490,493
491,491,607,490,493
492,494,639,491,494
490,493,632,492,493
490,492,598,491,494
492,494,503,491,495
493,492,418,490,494
492,492,383,492,495
493,495,367,490,495
493,492,373,490,495
492,491,383,490,495
491,495,429,490,494
491,492,490,490,495
492,494,559,491,493
490,493,627,490,495
491,494,637,489,496
493,495,628,489,497
493,492,566,493,500
494,494,458,491,492
492,492,402,491,487
492,491,370,492,492
491,491,366,492,491
491,493,376,490,493
493,493,398,492,492
491,492,456,489,493
492,493,516,490,492
492,494,595,489,492
493,493,638,490,494
491,494,633,491,495
492,491,612,490,494
493,495,517,492,496
491,493,425,492,495
491,492,387,491,494
490,492,368,490,495
491,494,370,490,493
491,492,382,492,493
493,494,423,490,493
492,493,483,491,492
492,492,548,490,493
491,492,622,490,492
493,494,639,492,493
491,493,630,491,494
490,494,575,492,494
492,494,470,491,494
492,494,406,491,494
491,493,372,493,493
493,493,367,490,493
492,495,376,492,495
493,492,398,493,497
491,493,448,491,499
493,494,510,490,496
493,493,584,492,495
493,493,637,491,496
493,494,635,489,493
492,494,619,490,494
494,494,529,491,491
492,493,435,491,491
492,492,390,490,492
491,492,370,491,492
490,492,370,492,492
490,493,379,492,492
490,492,414,491,492
492,493,475,491,494
491,493,538,491,496
491,492,617,490,498
493,494,640,491,501
493,493,632,492,502
494,493,585,490,499
494,494,484,492,498
493,494,412,490,493
492,494,374,492,494
491,494,365,491,487
492,494,373,490,488
491,492,391,490,492
493,492,441,491,495
492,493,504,490,495
491,493,576,491,500
492,493,633,492,503
492,495,638,490,500
491,494,623,493,487
493,493,544,491,486
492,494,443,491,496
491,493,396,490,497
492,493,367,489,487
493,491,368,491,493
490,491,379,490,500
491,495,406,489,496
491,493,468,491,498
492,493,529,491,502
492,494,609,492,505
494,494,642,490,504
494,496,633,492,501
491,495,595,490,487
494,493,497,491,494
492,493,416,490,495
492,494,380,490,490
490,491,366,493,490
493,493,373,492,487
492,494,384,492,488
491,494,433,491,494
491,493,496,490,498
491,493,564,489,502
493,492,629,491,487
493,492,640,492,484
491,491,627,492,492
491,491,558,492,498
493,492,454,491,499
493,493,401,491,498
491,493,369,490,493
492,495,366,490,493
492,494,376,490,497
493,494,401,489,492
493,493,459,491,490
490,492,520,490,490
491,494,599,491,494
491,493,639,492,495
491,493,633,492,493
492,494,605,491,496
495,494,510,492,497
494,495,423,492,501
494,496,387,491,498
494,495,369,491,498
493,493,373,491,499
493,495,383,489,503
490,492,428,489,493
492,493,487,490,490
490,493,554,490,495
490,493,623,490,491
492,494,638,490,494
494,493,631,492,497
494,494,572,491,498
493,493,466,491,498
493,493,406,491,494
491,491,370,492,486
491,492,367,490,488
493,494,374,492,493
491,493,398,491,497
492,494,451,491,498
492,494,512,490,498
493,495,589,488,494
492,495,637,490,495
493,493,637,489,501
494,495,620,493,509
492,494,525,493,511
492,494,432,492,492
490,493,390,490,490
493,494,366,491,495
492,493,372,494,498
495,495,382,491,497
495,493,419,490,493
493,492,477,490,492
495,493,543,490,489
492,496,621,493,500
493,496,641,492,509
493,496,631,492,504
492,495,581,492,490
493,493,478,494,492
494,492,412,496,483
495,493,373,497,502
493,494,368,493,515
494,494,377,490,521
494,494,394,491,517
487,493,444,490,504
489,495,506,492,480
492,491,577,490,461
492,493,633,488,478
490,493,635,488,484
492,492,622,489,496
491,494,536,492,497
493,493,438,494,500
492,493,394,496,509
492,493,369,496,508
491,494,367,494,497
493,494,376,490,495
492,493,412,488,502
492,494,468,490,493
492,492,534,490,487
493,492,613,490,497
492,492,640,493,500
493,492,631,491,494
494,493,591,493,492
494,493,490,491,491
492,493,414,491,489
491,495,376,490,495
491,496,365,489,501
491,493,375,490,508
494,493,387,492,499
492,492,437,491,477
493,491,497,491,469
492,490,566,492,480
492,495,629,490,481
492,493,636,491,497
493,492,626,490,505
493,496,550,491,496
492,493,449,491,496
492,493,398,491,496
496,493,368,495,492
494,492,369,496,493
495,495,376,494,495
494,493,406,495,509
492,493,463,493,518
490,494,523,491,507
493,493,607,490,496
493,495,639,493,501
495,493,634,491,480
495,493,602,491,485
494,492,504,489,497
493,493,419,490,499
491,492,384,494,488
491,494,365,493,486
491,494,370,492,486
491,494,382,491,486
493,493,428,491,483
493,492,492,491,492
492,494,557,492,499
492,494,629,491,504
495,495,642,493,515
494,495,630,495,520
495,495,569,493,514
499,495,463,494,517
496,493,404,493,492
495,494,367,491,476
493,494,366,490,459
491,493,375,491,484
493,494,398,492,495
493,494,456,490,502
492,494,515,491,501
491,494,596,493,502
493,497,638,494,498
493,496,634,496,495
493,495,613,495,500
492,495,520,497,497
491,495,427,489,481
487,491,389,491,489
494,491,368,493,499
494,492,370,493,498
493,492,383,492,487
496,495,421,490,488
495,496,484,489,492
493,495,548,491,491
491,496,619,491,489
492,494,642,492,493
493,493,632,491,500
492,494,578,492,507
496,495,475,494,506
497,497,411,494,507
497,497,374,490,504
497,498,369,492,490
493,495,376,495,486
492,497,395,493,500
491,496,450,495,498
494,495,510,489,492
490,494,585,488,492
493,493,639,491,480
491,492,638,492,484
490,491,623,491,491
490,492,532,490,490
491,492,435,491,492
493,493,393,493,498
496,494,371,493,507
498,497,372,490,502
496,496,382,490,499
495,495,415,489,488
494,493,473,487,487
492,494,540,492,498
492,493,615,491,488
491,494,640,492,504
493,495,632,491,499
494,494,586,492,483
496,492,487,492,486
495,494,413,492,494
491,495,376,490,503
494,498,370,491,523
492,498,378,493,520
492,496,390,491,503
495,497,443,494,498
494,498,503,496,489
495,498,573,496,477
495,494,634,492,488
495,494,637,486,481
492,495,625,488,502
495,492,544,492,489
491,490,443,495,474
496,492,398,492,481
494,493,370,491,488
491,495,369,492,499
494,493,380,490,495
493,495,405,489,504
494,495,466,490,490
496,496,529,489,490
495,494,609,490,496
496,495,640,493,511
496,496,637,499,534
497,498,597,496,530
497,497,502,492,520
495,496,419,492,481
491,494,380,489,487
492,494,368,488,481
495,497,375,492,490
494,492,386,493,494
498,492,434,497,479
496,493,494,496,469
491,494,560,490,473
491,493,630,486,494
491,494,640,487,513
491,496,628,489,515
492,498,561,490,510
492,496,456,488,484
494,495,402,491,476
495,496,372,491,493
494,498,368,491,494
493,494,381,490,508
492,491,406,491,497
492,493,459,495,476
490,491,519,498,477
493,492,602,499,498
494,494,638,495,496
498,494,636,490,515
498,497,609,491,494
498,500,514,502,513
494,500,428,506,535
496,503,390,503,542
497,502,372,493,524
495,499,373,482,475
494,499,385,491,512
495,496,430,494,494
491,492,487,492,464
488,487,552,487,472
493,490,624,489,473
494,492,641,493,508
499,498,632,494,537
500,505,578,495,539
497,500,471,495,516
494,493,407,493,473
493,492,369,491,467
487,494,368,487,486
492,494,377,492,505
494,497,401,489,506
492,493,451,492,509
497,488,514,489,511
493,490,589,490,480
490,493,636,488,514
495,498,636,487,487
496,498,622,490,493
502,500,527,491,504
498,500,436,490,514
496,497,395,488,523
491,491,368,489,499
493,490,373,493,464
495,494,381,502,487
490,495,420,501,489
485,496,481,501,506
487,496,543,503,497
492,499,624,502,540
503,502,648,497,578
505,502,635,492,527
497,495,587,491,477
492,495,482,490,490
495,491,412,491,488
493,494,376,496,478
491,491,366,486,481
495,492,373,486,488
495,492,390,491,486
496,493,444,493,492
495,494,505,494,476
494,498,580,494,510
491,499,639,498,527
491,497,640,503,524
488,497,625,500,483
484,490,538,491,473
504,495,444,499,511
501,498,399,492,513
497,503,369,482,502
500,500,374,481,519
496,496,384,487,516
493,494,414,494,510
494,494,473,494,493
493,490,534,491,510
496,495,614,490,525
495,499,641,489,498
496,500,634,495,508
497,492,596,506,479
503,493,496,505,494
500,494,416,489,494
492,490,378,481,467
483,489,366,495,485
489,491,372,493,481
493,494,388,486,495
493,494,438,494,501
493,497,499,501,498
491,500,568,501,492
492,502,633,502,486
498,497,639,486,494
500,492,626,479,481
494,485,554,487,503
495,493,453,486,523
492,497,402,487,515
492,498,372,493,530
498,497,373,491,534
497,493,379,493,543
498,493,407,488,556
497,499,464,497,468
486,500,524,496,443
488,495,602,495,466
493,500,645,502,511
498,496,638,504,489
496,489,603,508,500
498,496,510,515,493
494,495,423,509,497
491,489,385,479,507
494,487,364,466,511
484,487,372,482,495
492,494,384,491,497
491,497,430,493,485
486,497,489,495,482
489,497,557,491,487
494,499,629,493,490
497,500,640,490,496
503,499,632,493,512
504,502,574,506,537
500,499,469,508,550
503,492,409,500,529
490,492,367,480,495
493,490,367,488,476
493,492,377,499,498
494,494,400,501,500
496,493,455,490,464
492,495,516,487,469
489,494,594,489,480
486,494,640,490,494
496,496,639,487,518
500,497,616,486,535
503,492,524,495,492
499,491,428,497,486
496,496,391,493,529
490,496,372,491,528
491,496,372,493,482
489,488,380,491,465
487,485,419,490,478
494,487,480,490,483
497,494,547,482,511
495,499,623,485,532
492,499,644,490,545
500,503,634,501,528
494,501,586,506,528
498,501,475,498,452
493,491,408,487,484
496,493,374,487,504
498,492,367,486,469
489,483,373,486,462
485,492,393,491,515
493,495,449,492,528
502,501,514,495,540
494,504,585,493,509
494,498,637,497,490
489,487,636,496,410
481,493,619,483,487
485,494,536,497,525
490,491,439,501,508
500,495,395,501,516
510,495,372,503,518
510,500,375,502,549
504,500,384,509,522
488,488,410,496,426
483,492,471,487,469
485,495,536,481,486
489,491,612,486,480
496,489,639,496,486
500,490,631,489,471
506,493,589,483,487
506,497,489,491,514
493,503,418,504,548
502,506,384,504,566
502,506,371,499,517
499,500,375,492,487
494,488,388,491,491
482,489,439,493,490
491,485,498,488,474
489,486,570,489,493
488,488,629,489,449
486,489,635,487,492
489,495,626,491,515
501,500,548,500,522
506,502,449,493,505
492,505,400,486,518
487,508,371,487,506
490,500,373,488,480
491,497,382,489,491
486,485,409,485,522
491,490,468,489,534
497,496,530,490,518
495,493,607,489,424
494,490,636,493,462
495,485,633,495,497
501,491,596,496,498
489,493,499,489,491
489,491,416,484,478
488,490,381,487,496
492,492,364,488,502
496,491,372,489,503
494,492,385,488,519
493,493,431,491,525
493,488,489,491,467
492,489,557,490,488
491,489,626,489,467
492,490,635,489,482
492,492,627,491,490
493,494,562,491,509
494,498,459,491,519
495,500,405,492,529
498,503,371,489,510
497,499,370,492,520
498,496,378,493,501
497,499,401,489,475
495,491,456,489,460
499,484,518,502,492
496,489,600,509,512
490,495,638,497,471
487,494,633,480,495
489,493,608,479,506
487,488,513,491,489
493,491,426,489,502
496,493,387,487,518
491,494,367,491,505
496,491,371,495,504
494,492,382,499,486
496,495,422,500,469
493,496,485,493,475
489,498,552,493,472
490,497,624,493,498
494,497,640,489,500
491,495,631,485,526
492,500,579,489,518
495,498,472,492,512
506,496,411,505,544
516,494,375,499,481
510,486,363,491,423
499,489,373,477,492
470,493,396,486,520
487,495,452,495,534
494,499,514,496,525
501,498,589,497,512
497,494,638,503,491
491,492,634,506,472
499,490,620,492,459
491,491,524,479,480
496,492,431,490,486
495,497,391,492,495
491,493,368,499,489
489,489,368,503,479
497,492,380,499,513
498,494,417,488,517
497,493,476,489,518
493,491,540,487,478
491,485,613,486,454
492,490,635,486,477
492,493,630,484,493
498,494,582,490,500
497,496,481,494,508
503,501,417,518,544
511,510,384,522,550
501,503,372,511,510
483,496,374,480,461
480,483,388,475,480
490,483,440,483,484
487,487,500,481,492
486,489,571,481,467
485,492,632,483,480
487,496,635,485,491
493,493,622,487,488
494,488,539,490,476
493,489,440,490,476
494,489,393,488,510
494,495,369,489,516
492,492,367,489,511
492,492,376,490,486
491,496,407,489,500
488,496,469,488,501
489,498,530,486,502
491,497,613,486,518
494,492,641,491,512
499,492,635,496,533
499,491,595,491,476
492,488,491,489,461
490,487,412,493,470
489,493,378,498,498
490,501,366,490,509
489,501,373,484,486
501,496,390,491,501
503,496,436,494,490
494,487,496,490,501
489,491,566,494,520
487,494,632,496,518
490,491,638,492,476
491,486,620,494,461
495,488,554,495,490
495,494,452,490,501
499,499,398,487,494
501,502,370,488,522
499,498,370,489,477
484,495,377,491,484
490,492,402,488,482
495,487,459,486,483
489,486,519,489,499
488,493,601,495,496
492,492,640,496,517
502,497,634,495,514
496,492,603,488,500
502,494,508,492,486
502,492,419,489,465
487,484,379,480,478
479,487,365,490,488
496,493,371,496,506
493,496,383,499,505
489,498,427,486,498
495,497,488,496,486
487,497,558,504,522
494,503,632,518,546
496,500,645,519,498
498,493,632,507,491
492,484,567,466,473
479,488,462,473,488
484,490,402,491,478
495,487,364,487,466
497,489,364,485,479
491,494,373,487,481
497,495,397,493,481
493,494,453,498,492
491,495,515,494,513
495,498,593,490,525
494,494,639,488,524
493,497,636,499,514
498,499,619,505,522
494,495,524,496,463
481,489,427,486,472
487,487,386,479,456
492,488,364,484,478
491,486,370,485,485
495,489,377,485,483
493,488,418,488,477
495,494,478,483,482
488,493,544,486,513
494,497,619,493,523
497,497,640,492,519
501,500,633,493,497
492,496,580,488,484
484,497,478,490,507
491,497,411,491,488
487,492,373,489,483
491,492,367,490,487
495,491,375,488,483
491,486,393,489,478
490,490,443,490,483
491,493,505,490,509
493,496,580,489,514
494,491,634,490,498
493,487,636,489,510
494,495,620,490,500
491,490,533,491,480
491,490,435,491,497
492,490,391,491,493
493,493,367,490,512
492,495,370,490,537
495,498,381,488,501
491,492,409,489,417
489,489,466,491,447
497,494,534,492,488
494,497,612,492,505
491,495,640,490,499
484,493,631,494,499
491,492,588,494,494
492,493,488,491,480
492,494,415,489,488
493,492,376,491,501
494,491,366,497,513
497,494,377,501,511
494,496,389,483,508
486,497,438,484,485
487,490,499,491,491
492,485,567,488,486
493,492,630,496,488
500,498,637,495,494
503,499,626,485,509
503,496,550,492,488
499,493,448,499,490
491,488,397,488,482
481,486,367,483,481
476,491,367,488,490
490,492,375,491,490
492,494,407,499,505
494,496,464,509,512
499,500,528,499,497
497,500,607,487,501
491,496,639,481,499
487,488,633,489,471
493,486,599,499,492
493,490,501,496,486
489,491,416,483,471
479,491,379,492,482
491,493,364,493,490
502,495,376,492,509
502,498,384,488,507
493,494,434,487,544
489,487,488,484,459
490,492,559,498,503
511,498,629,501,497
505,497,640,490,490
484,493,627,482,500
491,490,563,493,512
496,489,457,489,484
494,491,400,489,482
492,497,367,489,484
482,495,368,482,487
485,489,372,485,483
489,483,401,491,491
489,485,453,490,481
488,489,513,488,482
489,493,595,486,488
490,495,635,490,489
496,497,634,487,493
494,500,611,488,486
494,495,516,486,501
491,489,427,490,497
492,487,388,491,510
491,493,365,489,501
491,491,370,492,466
489,489,379,492,483
489,494,422,489,517
491,494,486,489,526
492,494,550,491,493
488,491,620,488,463
491,494,641,493,502
494,493,630,491,500
494,491,577,489,483
491,492,469,487,490
490,489,404,491,477
496,492,369,491,493
495,493,365,488,493
494,491,373,491,484
493,494,396,495,492
493,491,448,493,509
493,488,507,493,489
490,486,585,490,496
494,489,634,488,498
491,494,634,487,505
493,496,620,497,499
486,498,529,500,483
483,492,433,495,471
488,494,390,482,483
497,493,366,487,486
499,491,367,492,506
494,491,380,494,482
489,495,413,495,490
490,494,476,494,496
491,496,539,493,503
491,499,616,488,522
493,502,644,487,528
488,503,635,485,504
489,495,586,488,465
490,484,482,491,458
495,484,411,494,494
496,486,374,488,480
487,490,362,484,458
488,492,372,491,501
499,492,388,493,504
496,492,440,485,496
487,494,500,480,498
491,495,574,495,503
502,492,635,505,485
501,491,635,515,463
497,489,624,509,477
494,488,540,487,480
467,490,439,474,494
477,493,393,479,496
492,495,369,494,539
502,498,370,498,522
496,498,380,503,502
501,493,407,489,474
492,490,462,477,468
479,490,526,484,486
485,488,605,480,479
489,490,638,483,487
488,492,630,487,493
493,494,593,490,505
494,497,499,490,511
493,496,417,488,512
493,492,380,490,513
493,492,366,495,473
490,487,372,493,476
489,490,383,482,473
491,493,433,486,480
491,491,494,489,483
493,492,561,489,484
493,495,627,489,496
492,493,637,489,496
490,491,624,491,502
493,491,557,493,495
493,493,451,492,486
492,492,398,492,484
494,490,367,490,479
490,490,362,490,493
492,491,374,488,500
493,495,397,488,487
489,493,455,489,487
489,495,517,489,489
488,493,596,487,496
487,494,636,488,507
491,498,632,490,485
489,492,598,487,485
491,488,505,489,493
493,490,417,490,494
492,491,379,491,496
494,491,363,489,487
491,493,367,491,499
489,488,376,489,492
494,490,423,489,493
491,491,481,489,474
490,490,547,488,497
494,493,624,496,505
498,495,637,498,501
495,499,626,491,504
490,505,571,484,511
494,500,467,494,517
495,496,405,493,487
489,490,369,487,466
491,484,361,481,469
490,486,373,488,485
489,489,398,491,500
489,492,450,489,485
488,493,510,489,481
492,494,588,489,496
491,495,635,489,490
491,496,636,487,491
492,490,615,489,484
495,488,521,495,487
491,491,430,496,472
486,490,386,489,489
488,489,368,487,497
487,491,369,488,505
492,493,379,490,510
496,493,420,487,488
487,495,479,489,496
490,494,543,491,483
492,491,618,490,475
488,490,639,490,482
486,490,629,492,490
491,495,582,487,487
486,493,477,485,487
496,493,409,489,492
498,493,373,490,517
490,494,366,488,517
488,497,376,489,501
489,497,395,488,482
489,496,444,488,485
492,488,506,488,481
493,485,578,490,484
487,487,632,491,473
490,491,636,490,485
490,493,623,493,490
492,494,534,493,487
493,494,438,490,493
493,492,394,488,499
493,491,366,492,485
492,494,371,492,488
491,492,377,490,488
490,489,410,490,483
488,488,470,490,484
490,489,531,487,494
492,491,611,487,495
493,494,639,489,496
491,492,630,492,507
490,498,592,489,529
493,500,494,489,509
494,497,416,495,488
495,493,376,495,463
489,487,364,488,478
489,490,370,477,488
491,492,385,487,482
490,493,435,488,480
486,490,497,491,481
490,491,567,488,488
487,489,629,487,494
490,490,638,487,490
492,491,625,490,493
491,492,551,489,495
492,496,448,489,494
489,495,398,489,494
490,490,365,490,485
494,491,367,487,496
491,494,378,487,497
492,494,404,488,502
491,493,463,489,498
494,491,523,488,469
491,488,605,487,485
491,493,640,491,490
486,495,633,493,491
487,495,601,492,496
490,492,504,494,490
491,488,419,487,487
493,492,382,486,494
494,494,368,487,509
495,491,373,489,497
491,493,384,491,484
489,493,429,489,491
490,491,489,489,499
490,493,555,489,478
488,493,625,491,483
489,491,638,491,492
491,492,627,491,476
486,490,564,489,479
491,491,459,489,486
493,491,404,490,491
491,490,370,490,495
490,494,366,486,494
489,493,376,490,494
491,491,400,489,490
489,492,454,488,485
489,492,515,488,485
491,491,593,490,490
490,491,638,489,494
492,492,633,489,493
490,489,613,491,491
490,492,517,491,493
491,493,428,491,489
492,492,387,489,489
491,493,365,489,491
491,492,369,488,491
491,494,381,487,492
492,494,423,488,492
490,493,481,488,489
491,492,548,489,488
491,493,620,489,492
491,488,637,490,494
492,489,627,489,496
492,489,575,490,489
492,489,470,489,497
493,489,406,489,494
493,491,369,491,485
493,493,365,489,487
492,492,375,489,491
488,493,395,490,477
489,490,444,488,483
491,493,509,489,484
492,491,581,488,492
490,493,633,487,501
491,493,636,489,508
492,493,619,492,491
489,493,531,488,487
488,493,436,490,491
490,492,390,490,483
489,492,368,490,489
489,494,369,490,492
491,491,380,489,488
490,494,416,490,487
489,492,472,489,487
491,491,537,488,488
492,491,614,489,490
491,489,639,491,492
493,491,628,489,491
492,490,587,490,492
495,492,483,491,492
496,493,411,490,491
494,494,374,490,490
493,494,367,490,491
495,494,373,488,490
492,492,388,490,490
493,491,439,489,489
492,492,501,489,489
490,492,572,490,490
489,494,631,489,490
487,492,638,489,493
489,490,621,488,491
491,491,542,489,492
496,491,445,489,493
497,490,395,491,492
499,493,368,489,492
494,495,368,491,494
493,493,376,491,493
493,492,406,490,493
491,491,465,489,492
492,491,526,489,487
485,493,605,487,485
481,492,639,490,491
489,492,632,489,491
493,493,597,489,491
494,493,499,489,490
491,493,415,490,490
493,492,380,488,489
497,491,363,490,488
495,492,370,488,490
489,492,383,488,492
486,489,432,489,492
492,490,493,488,492
496,491,560,490,493
499,490,629,490,494
499,492,638,492,494
499,493,627,491,494
507,495,558,493,495
510,496,456,491,496
511,495,400,490,494
504,494,367,488,492
503,493,368,490,493
499,491,376,490,490
471,490,396,489,490
472,487,455,488,489
486,487,517,488,489
494,488,597,490,489
498,491,636,490,490
506,490,633,492,493
499,494,605,490,494
496,492,512,490,493
501,496,422,490,493
503,495,387,490,495
495,493,368,488,492
491,493,370,489,493
482,493,382,486,491
478,492,423,487,491
483,491,485,488,492
487,492,550,487,492
486,490,623,492,493
492,490,639,492,490
499,493,630,493,494
500,492,574,492,493
501,493,468,490,491
498,493,406,491,490
497,492,369,489,491
493,493,364,489,492
495,491,375,490,494
496,494,396,488,495
499,492,451,489,494
488,493,511,491,495
489,492,589,489,492
489,494,635,487,485
490,491,634,489,495
501,493,617,491,495
507,493,526,491,493
504,492,431,489,494
500,494,389,490,491
483,492,365,488,490
475,493,370,488,491
481,492,380,488,490
484,491,416,488,490
484,491,476,487,491
491,493,542,488,492
499,491,618,491,492
501,493,638,489,492
497,494,630,488,492
493,494,582,493,495
502,493,479,492,495
506,493,411,493,494
499,491,374,494,495
504,491,367,494,493
510,492,375,492,496
518,492,391,490,495
515,492,442,490,495
495,491,502,488,492
481,492,574,485,491
462,494,633,486,491
462,492,633,487,489
475,490,623,488,493
483,495,537,489,493
493,492,439,491,494
494,492,394,492,493
500,491,368,495,494
505,490,369,494,492
502,492,379,494,494
514,493,409,491,494
515,491,468,489,493
493,491,530,488,493
468,491,611,488,494
477,493,637,487,493
487,493,631,488,495
493,493,589,493,495
497,494,491,492,496
498,495,415,491,494
491,494,379,493,494
484,493,365,488,492
478,494,371,488,492
476,490,387,487,492
482,490,435,487,493
489,491,496,488,492
489,492,564,488,492
487,492,631,489,494
488,493,636,489,493
491,493,624,488,493
494,493,553,488,494
495,492,450,489,494
495,492,398,488,492
496,493,366,488,494
493,491,366,489,493
492,492,374,489,493
493,492,402,489,492
490,492,461,489,494
498,492,521,489,492
505,491,604,490,493
486,492,638,491,495
493,491,634,492,494
503,491,603,491,493
496,493,504,491,494
484,492,419,488,493
486,492,381,490,492
486,492,364,488,492
493,494,370,488,494
492,492,383,492,496
491,492,428,488,494
485,492,489,488,494
484,491,556,488,493
487,491,626,489,492
488,492,638,488,494
488,492,625,490,493
489,491,568,490,494
494,493,459,490,494
496,492,402,489,493
491,493,367,488,492
489,492,368,490,493
487,492,372,491,495
490,491,397,488,493
491,491,454,489,493
491,491,513,489,493
491,492,592,490,493
490,490,638,490,495
492,493,633,488,494
490,492,615,489,495
493,492,518,490,495
493,492,428,489,496
491,493,389,489,492
490,494,368,491,495
490,493,370,488,495
490,492,379,490,493
489,492,418,488,493
488,492,480,489,492
487,491,546,490,493
489,492,619,490,493
489,492,640,491,495
488,490,629,491,498
493,491,579,491,497
493,492,473,490,496
487,492,407,490,496
491,492,368,490,495
495,491,366,488,492
492,493,372,488,492
490,494,391,487,492
491,492,446,489,493
492,491,507,488,494
491,493,580,488,492
488,491,635,490,494
489,492,634,490,491
490,492,620,491,493
496,491,534,491,495
495,492,436,491,495
493,492,392,488,495
492,493,366,488,494
492,491,368,490,495
493,490,378,489,493
492,491,413,491,495
492,493,471,488,493
486,491,536,489,493
487,492,612,490,492
489,493,639,488,494
490,493,632,491,494
493,491,587,489,496
498,492,487,491,495
487,491,412,489,495
491,491,377,489,496
490,492,366,490,495
490,493,373,490,494
488,492,386,489,495
490,491,439,491,493
490,491,499,491,493
492,491,569,489,493
492,493,632,490,493
489,491,637,489,496
491,493,623,487,496
490,491,546,490,494
492,492,446,490,496
492,492,396,490,496
491,492,369,489,494
491,493,368,490,496
491,492,377,489,494
493,492,406,488,494
492,491,463,489,494
491,492,526,489,494
490,493,605,488,495
490,492,637,488,493
492,493,631,489,494
490,492,595,490,494
492,493,499,491,494
493,494,419,490,495
492,492,380,489,494
492,491,365,491,495
495,491,374,490,495
495,491,384,489,496
491,491,432,489,493
487,492,492,490,494
487,492,560,488,494
492,493,626,489,493
491,493,637,489,494
492,494,626,490,494
494,492,561,493,494
492,493,456,492,495
491,493,400,491,496
491,492,370,491,496
490,492,367,489,494
490,493,375,489,493
490,494,403,489,496
491,493,456,488,494
491,492,519,489,493
491,493,598,489,494
492,492,639,489,495
492,492,634,491,492
491,494,607,492,497
491,492,512,491,494
492,493,424,491,494
490,492,385,491,493
488,492,366,489,492
489,492,372,489,495
489,493,381,488,495
490,492,425,488,493
494,493,486,489,494
492,492,550,488,495
491,491,623,488,494
491,494,639,490,493
489,492,629,488,495
490,494,572,490,494
491,493,468,490,495
491,494,405,489,493
491,495,371,488,495
489,493,367,490,496
493,492,375,488,493
493,492,400,491,495
490,492,450,489,494
490,492,511,489,493
490,493,588,489,495
490,493,635,489,495
491,492,637,488,494
492,494,617,488,495
493,494,527,489,495
492,494,433,490,495
490,494,392,489,496
491,494,367,488,493
490,492,371,491,494
489,492,380,491,494
489,493,416,489,494
490,493,478,489,494
490,492,540,490,494
490,492,617,488,494
492,494,640,490,495
492,493,631,491,496
493,493,585,491,497
492,495,480,491,495
492,493,411,490,495
494,494,374,491,492
490,494,364,489,494
492,495,373,488,496
492,495,390,492,495
490,493,443,489,494
491,493,503,489,493
491,492,577,489,495
490,491,633,490,494
491,492,635,490,494
493,493,624,489,494
490,492,538,490,496
492,494,440,490,494
491,494,395,489,494
491,495,366,489,494
493,494,370,490,493
491,492,380,490,496
490,493,408,489,495
491,492,471,489,494
490,492,531,490,494
489,492,610,490,494
490,494,638,490,496
490,492,630,489,493
491,492,594,491,496
492,494,494,490,495
491,493,415,490,495
494,493,380,489,495
491,494,365,488,495
490,492,374,489,495
492,494,387,491,494
490,493,435,490,494
490,492,496,489,494
491,493,566,490,494
490,495,628,488,495
490,493,637,489,495
492,493,627,489,496
492,493,555,490,496
492,493,451,490,495
492,494,399,491,495
489,492,367,488,494
491,494,367,489,493
489,494,376,489,493
489,495,401,488,494
491,493,460,488,493
493,492,523,490,494
493,492,603,489,493
491,494,641,490,494
490,493,633,490,495
490,493,603,492,495
490,494,508,490,496
491,493,422,490,495
491,493,386,491,494
491,495,368,489,495
491,493,372,489,496
493,493,384,489,493
490,495,427,490,495
489,492,487,489,493
491,493,555,490,493
491,493,625,491,494
490,493,637,489,494
491,492,629,491,497
491,496,568,489,496
490,493,463,489,495
492,494,405,490,495
493,492,371,489,496
492,492,368,490,496
491,492,376,489,495
493,492,399,491,494
493,493,453,488,494
490,493,514,489,494
490,494,591,488,493
492,494,636,488,494
490,494,635,490,496
492,492,612,491,494
491,494,522,491,496
492,494,431,491,496
491,493,389,492,496
491,495,369,489,496
491,494,370,489,496
491,492,382,489,494
492,495,422,489,494
490,493,481,489,494
492,493,545,489,493
490,494,622,490,496
490,495,639,489,495
490,493,630,491,494
490,493,581,492,495
491,493,476,492,495
491,493,410,490,496
491,492,376,490,493
491,494,367,491,494
490,494,376,489,494
492,492,395,489,496
491,491,446,489,495
491,493,506,489,493
489,492,581,491,494
493,494,635,490,493
491,494,635,489,493
492,494,620,489,494
492,495,534,491,496
493,494,438,490,495
492,493,393,491,494
493,492,370,491,496
491,493,371,492,496
490,492,380,491,495
493,494,413,489,494
490,493,472,489,494
491,492,535,488,493
491,495,613,489,493
492,494,640,489,495
492,492,632,490,495
493,494,587,491,493
491,493,488,490,495
492,494,413,490,494
491,492,378,492,495
489,492,366,491,493
491,494,373,490,494
491,492,387,489,493
491,492,440,490,494
491,494,502,489,493
491,493,571,489,495
492,492,633,490,495
491,495,636,488,494
490,493,624,489,495
494,494,546,491,495
491,494,448,491,495
490,494,397,490,494
492,494,371,491,496
491,494,369,490,495
490,494,376,490,496
493,492,409,490,495
490,492,465,490,494
490,492,524,490,494
490,492,605,488,494
492,493,638,490,493
491,492,633,491,495
492,495,596,489,494
492,495,501,490,495
492,493,418,489,495
491,494,381,491,496
492,492,367,489,494
491,494,374,491,494
486,493,385,492,493
487,492,431,490,494
491,492,493,488,494
493,493,559,488,492
490,491,629,490,494
493,493,640,490,495
493,492,629,491,496
493,492,564,491,494
492,495,457,491,495
492,492,402,490,495
493,493,368,491,493
491,495,367,490,493
491,494,376,489,494
492,495,400,488,493
490,492,458,491,493
490,493,518,489,493
491,494,600,490,495
491,492,640,491,494
489,492,633,491,494
490,493,610,489,495
494,494,515,491,495
492,493,425,490,493
491,494,387,489,493
491,495,368,489,494
492,493,372,489,493
491,494,382,489,495
491,492,423,489,493
490,492,485,490,494
490,492,551,491,493
489,492,622,492,492
490,492,641,490,495
491,494,629,490,495
491,492,577,490,495
493,494,470,490,495
492,494,407,491,495
492,492,372,490,496
491,493,366,489,494
492,493,376,492,494
492,494,397,489,493
490,494,449,491,493
491,493,510,490,493
491,494,584,489,495
491,492,637,490,493
492,493,635,491,493
491,492,621,490,496
491,493,530,491,495
491,493,433,490,495
491,494,392,489,493
490,492,370,492,494
491,492,370,490,493
491,494,379,489,492
490,495,416,490,493
489,493,476,490,494
491,493,542,489,494
492,493,617,491,493
491,492,641,491,494
490,492,632,492,494
490,493,586,493,495
491,493,482,491,495
492,493,412,491,494
491,494,375,491,497
492,495,366,490,494
493,495,375,491,495
492,493,390,490,495
493,495,441,490,493
491,493,504,491,493
492,494,574,491,493
491,493,634,491,493
491,494,636,490,492
491,494,623,491,496
492,492,541,490,494
491,493,442,491,495
492,493,396,490,494
493,494,369,490,494
492,491,370,491,495
491,494,377,489,495
490,492,409,489,493
491,493,468,490,493
490,493,529,490,493
490,494,609,491,492
491,494,639,489,494
492,493,633,491,493
492,494,595,490,494
491,494,494,490,495
492,493,417,491,495
491,492,382,492,496
490,492,365,489,495
492,493,372,491,493
491,492,387,491,496
492,494,434,490,492
490,493,497,490,492
491,493,563,489,494
490,493,629,490,494
491,492,639,490,493
492,494,626,492,495
491,492,556,492,494
491,492,453,491,494
491,492,400,490,495
493,494,367,490,493
490,491,368,492,493
493,493,377,490,493
493,494,404,489,494
491,492,460,490,494
491,492,520,489,492
491,494,603,492,494
490,493,639,490,494
491,494,633,490,492
491,495,603,491,493
491,495,508,491,494
492,493,423,491,494
492,494,385,493,493
490,492,368,490,495
492,493,373,491,495
491,492,384,493,495
490,492,427,490,493
492,493,488,490,493
491,492,555,490,492
491,495,624,490,493
492,495,640,490,494
493,494,629,491,494
490,493,570,491,494
492,493,463,491,494
491,492,405,490,495
491,492,371,491,495
490,492,367,492,492
490,493,374,491,493
493,491,400,490,493
491,494,452,490,494
491,492,513,489,493
492,494,592,489,493
493,492,638,491,495
492,491,633,489,492
492,492,617,492,495
493,494,521,491,495
492,493,431,491,494
491,493,389,491,493
491,493,366,490,496
491,493,372,490,494
493,494,380,492,494
491,493,421,490,494
492,493,481,490,494
491,492,545,491,494
490,494,618,489,493
490,493,640,491,494
492,492,631,490,492
491,494,580,490,493
492,494,478,491,494
491,493,410,490,494
492,493,373,492,494
490,493,367,490,494
491,493,373,490,495
492,492,395,491,495
490,492,446,491,494
491,492,506,491,493
492,493,580,491,492
490,494,635,491,495
491,494,635,488,493
493,495,622,489,493
493,495,536,491,495
492,493,438,491,494
493,493,394,491,493
492,494,366,492,494
491,493,369,492,494
490,493,379,492,493
490,494,411,490,495
492,492,471,490,493
489,492,536,491,494
492,494,612,489,493
492,494,641,490,494
491,492,632,491,495
492,492,590,491,493
492,494,489,491,494
491,493,412,491,494
492,493,376,491,493
490,493,365,490,492
490,494,372,490,493
491,491,389,491,495
492,494,438,490,494
491,492,500,490,493
492,492,570,490,494
492,492,633,491,495
490,492,637,490,494
493,494,624,493,493
490,493,549,491,495
491,493,447,491,494
491,494,396,490,493
492,495,367,490,494
490,493,368,492,495
493,493,379,491,492
490,494,407,491,494
490,492,464,490,493
490,492,525,491,493
489,492,604,492,493
489,492,639,491,494
490,494,631,489,495
488,491,600,490,494
491,494,502,491,493
491,493,419,490,493
494,493,383,491,492
491,493,368,491,494
490,494,371,489,493
490,492,383,492,493
490,493,431,491,493
490,492,491,491,493
491,492,558,491,492
492,495,626,491,493
489,493,638,491,494
493,492,628,491,494
493,493,565,492,495
492,493,457,492,494
492,492,403,492,493
493,494,368,490,494
491,495,365,491,493
492,495,376,490,493
491,495,399,490,493
492,494,456,491,493
491,492,518,490,493
492,493,595,492,492
492,492,639,491,494
491,493,635,492,493
490,493,612,493,494
494,493,516,490,493
491,493,426,490,494
491,491,385,490,493
491,495,366,490,492
492,494,372,490,493
492,493,381,492,492
490,492,425,491,493
490,493,484,490,494
491,492,549,491,493
490,493,622,492,491
490,493,638,491,494
492,492,629,490,492
493,495,578,493,494
492,494,469,491,495
492,494,407,491,494
493,493,373,490,495
493,492,367,493,495
493,494,374,490,493
491,493,397,490,494
492,492,448,491,493
491,493,510,491,492
491,494,583,490,492
491,494,636,491,494
491,493,636,490,494
490,494,618,493,495
494,492,529,490,494
493,493,434,491,494
491,492,393,492,493
492,494,366,492,493
491,493,371,490,494
492,493,378,491,492
490,494,415,489,492
491,494,475,491,493
490,492,539,491,493
492,494,617,489,492
490,494,639,491,494
490,492,632,492,494
490,493,587,493,494
491,493,484,493,494
493,493,412,491,495
493,494,374,492,492
492,493,367,492,494
494,494,374,490,494
493,493,392,490,494
492,492,442,491,493
491,493,501,490,493
491,492,573,490,492
492,491,633,491,493
491,494,635,490,492
492,495,624,491,492
491,491,544,492,495
492,494,443,491,494
491,492,396,490,494
493,493,368,490,494
493,492,370,492,494
491,492,379,490,493
492,495,408,492,492
491,493,467,491,493
490,492,527,490,492
491,494,607,490,492
493,494,640,490,494
492,493,633,491,493
490,492,593,490,495
493,493,496,492,494
492,493,417,491,494
491,493,381,492,494
490,493,366,493,493
491,492,373,491,495
492,494,383,490,495
490,492,435,490,493
492,493,496,490,493
492,493,563,490,493
492,492,630,491,492
492,494,639,492,494
490,494,627,490,493
490,492,555,492,494
492,493,454,491,493
491,493,400,491,493
492,491,370,491,493
492,494,367,492,493
490,493,377,490,494
493,492,403,490,494
492,493,459,490,493
491,492,520,491,494
490,494,599,490,493
490,493,638,491,494
491,492,634,490,493
492,495,604,491,493
494,495,511,491,494
492,493,425,492,494
491,493,386,490,494
493,494,366,491,493
491,492,372,492,494
491,493,383,492,493
490,493,427,491,492
492,492,487,491,492
491,493,553,492,494
490,492,624,490,494
493,492,639,490,494
493,492,630,491,495
493,492,568,491,493
492,493,465,491,493
491,494,405,491,493
490,492,370,493,494
490,493,366,491,492
491,494,375,491,493
491,494,397,492,494
490,492,452,490,492
491,493,514,491,492
492,492,591,490,494
493,493,638,491,494
490,493,636,492,494
493,494,615,490,494
491,493,522,491,494
493,493,431,491,493
492,494,389,490,493
492,496,367,490,493
492,493,370,492,493
491,493,382,491,495
491,495,419,491,494
491,492,480,490,493
491,493,544,491,492
490,493,620,493,494
491,492,640,490,492
492,495,631,492,493
491,495,580,490,494
492,493,476,490,493
492,493,410,490,494
492,492,374,490,494
490,493,364,490,494
491,492,376,490,493
491,494,392,492,493
490,493,444,491,493
491,493,506,491,492
490,494,579,491,494
490,495,635,489,493
490,494,636,491,495
491,491,623,491,495
493,492,537,491,495
492,494,440,491,494
492,493,393,492,494
491,493,368,490,494
492,494,367,491,493
492,494,377,490,492
492,495,410,490,493
491,492,471,491,493
492,492,533,490,491
490,494,611,491,494
490,492,639,492,493
491,493,631,492,492
490,493,590,493,493
491,493,490,491,494
492,493,414,491,492
491,492,379,492,492
492,494,365,490,494
493,493,373,490,493
492,493,388,490,492
490,493,435,491,494
492,493,499,490,492
491,492,567,492,493
490,493,630,491,492
492,494,636,490,492
491,492,626,493,495
493,495,549,490,494
492,493,450,492,494
492,493,398,491,495
493,492,370,490,495
491,492,369,490,493
493,493,375,492,493
491,493,406,491,494
491,493,462,491,493
490,493,522,490,492
492,495,604,489,492
492,494,639,491,492
491,493,631,491,494
491,492,598,491,492
492,492,503,492,495
493,493,420,491,493
491,493,383,492,493
490,493,366,491,495
492,495,371,490,494
491,492,384,490,492
492,493,430,490,493
492,493,491,490,492
492,493,558,490,491
491,494,628,492,493
491,494,639,490,493
491,493,626,492,493
491,493,563,491,494
492,494,460,492,494
493,492,404,491,494
493,494,369,493,493
491,494,368,491,495
493,492,376,492,495
492,492,401,492,494
491,492,455,491,493
492,494,514,491,493
491,494,594,491,494
492,493,639,490,493
492,494,633,490,493
493,494,612,490,493
494,494,518,492,494
492,493,426,491,493
493,493,387,491,492
492,491,369,492,494
490,492,371,492,493
491,493,381,492,492
493,492,423,491,492
491,493,483,491,493
491,492,548,490,492
492,494,620,490,494
493,493,640,491,494
492,492,628,491,492
491,492,578,492,495
493,495,471,491,493
491,492,407,492,493
491,493,370,492,492
492,495,366,490,493
493,495,375,493,494
491,492,396,490,494
492,493,448,491,492
491,492,510,490,493
491,492,585,491,494
491,492,636,492,492
492,493,636,491,492
491,495,618,491,495
493,492,529,492,494
492,493,435,490,493
492,494,393,490,493
492,495,370,493,493
490,492,370,491,494
492,495,379,491,495
490,491,416,492,494
491,492,475,491,493
491,492,538,491,493
493,493,615,492,492
492,494,641,492,493
491,494,631,490,494
493,495,585,491,495
494,494,485,491,494
492,493,414,491,493
491,494,374,491,496
493,493,368,490,494
493,494,374,492,493
491,493,389,492,492
491,494,441,490,492
491,493,502,491,493
490,493,571,489,492
490,493,635,491,494
492,492,638,492,494
492,491,625,491,495
492,492,545,492,494
491,494,443,491,494
492,493,396,490,493
493,493,367,492,492
491,493,367,489,492
492,494,377,489,493
492,492,408,492,492
492,493,466,490,492
491,493,528,491,494
491,491,610,491,494
490,492,639,491,493
490,494,631,492,492
491,493,596,491,495
493,494,496,492,493
492,494,418,492,493
492,493,380,490,493
493,494,366,491,494
493,493,374,491,492
492,494,382,492,495
491,492,433,490,492
491,492,495,492,493
490,493,559,491,491
490,493,627,490,491
492,492,639,492,494
493,494,626,490,494
491,492,559,492,494
493,493,454,492,494
493,493,401,491,494
492,492,370,490,492
491,494,367,492,493
490,493,377,490,493
490,493,401,491,492
491,493,458,491,493
492,493,519,490,492
492,494,599,490,493
489,493,638,490,494
493,492,633,490,492
492,492,608,493,495
491,494,511,492,495
493,493,425,492,494
491,493,387,491,494
490,493,366,491,494
492,493,373,490,493
493,494,382,490,493
493,493,426,490,493
492,493,486,491,492
490,493,552,491,494
490,494,622,490,493
489,493,638,492,492
490,493,627,491,493
491,494,571,491,493
492,493,468,492,494
491,493,405,491,494
491,492,371,490,492
492,492,368,491,494
493,492,375,491,494
492,491,399,491,494
491,493,450,490,493
491,492,512,491,493
492,493,590,491,492
490,493,634,490,493
492,494,634,490,493
493,495,616,493,494
490,493,525,491,494
493,493,433,492,493
492,493,391,492,495
492,491,368,492,494
491,493,370,493,494
492,493,381,491,492
490,493,416,491,494
492,493,479,491,492
490,493,541,490,492
492,494,616,490,493
492,493,639,491,492
491,491,631,492,494
491,495,581,490,494
491,493,480,492,494
491,492,411,492,494
491,493,373,492,492
490,494,365,492,494
491,491,373,489,493
492,492,393,493,493
492,492,444,491,494
492,493,504,490,493
492,492,577,491,494
491,494,633,490,494
490,492,635,490,494
493,493,621,493,493
491,494,536,492,494
492,493,441,492,493
492,495,395,492,493
490,494,367,490,494
491,494,367,491,494
491,492,380,492,495
492,492,411,492,493
491,492,470,491,492
491,493,532,492,492
490,493,612,491,494
492,494,639,490,492
492,493,631,490,493
493,494,589,490,494
493,493,493,491,493
492,492,415,492,494
491,492,379,489,491
491,494,367,492,492
490,492,372,492,492
491,492,385,492,491
491,493,437,491,493
492,492,498,490,492
491,492,566,492,492
492,493,630,491,494
492,492,638,491,494
492,492,626,492,492
492,495,551,492,494
492,492,449,491,494
493,493,398,491,492
491,493,367,491,493
492,494,367,490,492
493,493,378,492,493
493,493,405,490,492
491,493,461,490,492
492,493,523,491,493
490,491,605,492,494
491,492,638,491,492
491,494,634,491,494
492,493,598,491,492
492,492,506,491,493
492,492,419,490,493
492,493,383,490,493
494,494,367,490,492
491,494,370,491,494
491,492,381,489,491
492,492,431,492,493
491,492,490,491,492
491,492,554,490,491
491,492,628,491,494
491,493,636,490,492
490,493,627,490,493
494,493,567,492,494
493,493,461,492,494
493,492,404,490,493
492,495,370,493,494
491,493,367,491,495
492,494,375,491,492
492,494,398,490,492
491,493,454,490,493
491,493,515,490,492
490,492,594,490,494
493,492,636,490,492
492,492,636,492,494
490,492,615,493,494
491,493,519,491,493
492,493,428,490,493
490,493,387,491,495
492,492,369,490,492
492,494,371,489,493
493,493,382,489,493
493,493,422,491,492
491,493,482,490,493
492,493,545,489,492
490,492,622,492,492
490,493,639,491,492
491,494,628,490,492
493,493,581,493,493
492,494,472,492,493
492,492,408,490,493
493,492,374,490,494
493,492,368,492,495
491,492,375,492,493
491,495,394,490,493
490,492,446,491,492
492,493,509,491,492
491,494,581,490,491
491,494,634,489,493
492,493,637,492,492
490,494,622,490,494
493,494,531,491,493
492,493,436,491,494
491,492,393,492,494
491,491,369,492,493
493,493,371,491,492
491,493,377,491,495
492,491,413,489,492
491,493,473,490,493
491,493,536,490,493
493,493,613,491,491
491,492,640,491,494
492,494,630,489,493
490,492,587,494,493
491,493,486,492,494
492,493,412,491,493
492,494,375,492,495
491,492,366,490,494
493,493,373,491,492
493,492,391,491,495
492,491,440,491,494
492,493,499,491,493
492,494,570,489,492
490,492,632,490,494
492,492,636,490,492
492,494,624,490,492
492,495,545,491,493
492,494,446,491,493
491,493,397,491,494
492,493,366,491,494
491,492,370,492,494
490,492,378,492,493
489,492,406,491,493
493,493,466,491,493
491,493,526,491,493
491,494,606,489,492
492,493,639,491,494
492,493,632,492,494
493,492,597,491,495
492,495,498,491,494
492,493,418,491,493
493,493,380,492,492
490,493,365,491,492
492,494,371,490,493
493,494,385,493,493
490,493,432,490,492
491,492,494,491,493
492,492,561,491,493
491,491,628,492,493
491,492,637,491,494
493,492,628,492,492
491,493,560,491,494
493,494,454,491,493
491,493,400,491,493
493,494,368,490,492
493,493,367,491,491
493,492,378,491,492
491,494,400,492,493
491,492,458,492,492
491,492,518,491,492
490,492,596,491,492
490,494,639,491,493
491,493,633,490,493
491,492,608,493,494
494,493,513,492,494
493,493,425,491,494
493,492,387,492,492
492,495,367,493,494
490,493,370,490,494
493,494,381,492,492
491,494,424,491,493
490,493,484,490,492
491,492,551,491,492
492,494,622,490,492
492,493,637,492,494
491,492,630,493,494
490,491,574,493,494
492,492,468,491,493
493,493,406,492,492
490,492,369,490,495
492,493,366,489,493
492,494,375,490,493
492,494,396,489,493
493,493,449,490,492
491,493,511,491,494
491,491,586,489,492
492,492,636,492,492
490,493,634,492,492
491,493,617,492,492
492,492,528,492,494
492,493,434,491,494
492,492,390,491,493
493,494,368,491,494
492,492,372,492,495
492,492,380,490,492
493,494,418,492,493
491,494,476,490,493
491,493,540,491,491
491,493,616,491,493
492,493,638,490,494
491,493,630,491,494
494,493,584,493,493
492,493,480,491,494
492,493,412,491,493
491,492,375,492,495
491,492,366,492,493
491,493,375,490,494
490,493,388,491,495
492,492,443,491,492
491,492,504,491,492
491,493,575,490,493
493,493,634,491,492
491,494,637,492,494
491,494,622,491,493
491,492,540,492,494
492,492,442,492,494
491,492,394,492,493
494,492,370,491,492
492,494,368,493,494
491,492,379,490,494
493,493,411,491,493
492,492,469,491,493
492,492,530,490,492
492,491,611,492,493
492,493,639,490,492
491,494,630,490,491
492,494,590,492,493
493,494,493,492,494
492,493,415,491,493
491,493,380,490,493
493,492,365,491,492
492,492,374,491,494
491,491,388,493,494
490,492,435,492,493
492,493,497,490,492
490,493,563,490,494
492,491,628,489,492
492,494,638,490,493
492,493,625,490,494
494,493,552,492,494
492,493,451,492,494
491,493,397,490,494
491,492,369,493,493
491,493,367,492,492
490,493,375,491,494
493,492,406,490,492
491,495,462,491,493
491,493,521,490,493
492,493,604,490,493
492,492,639,491,494
491,491,633,492,494
493,495,601,490,494
490,493,506,491,494
493,493,420,491,492
491,493,383,492,492
490,493,365,490,492
492,494,373,491,493
490,493,384,490,493
490,492,427,490,493
492,493,490,490,493
491,492,556,492,494
490,492,625,492,493
493,493,639,491,491
491,494,628,492,495
492,495,565,490,493
492,494,462,491,494
492,493,404,490,494
493,493,369,493,492
492,492,369,492,492
492,494,375,492,494
491,492,400,492,493
491,492,455,492,493
491,493,514,491,492
491,494,594,490,494
492,494,637,490,493
491,492,633,492,493
493,492,615,490,494
494,493,521,491,494
493,492,428,491,492
492,494,388,492,494
491,492,366,490,493
493,493,370,492,492
490,493,380,491,491
490,494,419,490,493
491,492,482,490,494
491,494,546,490,492
489,492,620,489,494
493,492,641,491,494
491,492,630,493,494
491,491,581,489,493
493,494,476,492,493
492,493,408,491,494
491,494,370,490,491
491,495,366,490,493
492,495,375,491,494
493,494,394,490,492
491,493,445,490,492
492,492,507,490,492
492,492,582,491,493
490,492,635,492,492
490,493,635,492,492
491,492,623,490,494
491,495,533,492,494
492,493,436,491,492
492,494,393,490,493
494,495,368,490,494
492,492,369,491,491
492,494,381,491,495
492,495,412,490,493
491,493,473,491,492
491,493,536,492,491
489,492,613,492,492
492,492,641,492,492
492,494,631,492,494
490,492,587,490,494
494,494,488,491,493
492,494,414,491,494
492,492,377,491,495
493,495,366,489,493
491,493,375,492,494
493,494,388,492,492
491,493,439,491,492
491,493,500,491,492
491,493,568,491,493
491,492,633,490,493
492,494,636,491,492
492,492,626,491,495
492,492,549,492,494
492,492,447,491,494
493,493,397,490,493
490,492,369,490,494
492,491,366,489,492
492,494,377,490,492
492,494,405,490,492
492,493,465,490,492
492,493,526,490,493
490,494,605,491,494
491,492,640,491,493
491,493,633,492,492
491,492,598,493,493
491,493,501,491,494
492,493,419,491,492
491,492,383,492,495
492,495,367,490,493
493,493,374,491,494
492,492,385,491,495
492,494,430,490,493
491,493,493,490,492
491,493,558,491,491
490,493,627,491,491
491,494,637,491,492
491,494,627,492,495
491,495,562,491,493
492,493,457,492,493
493,493,401,491,493
492,492,371,490,494
491,491,368,492,493
492,493,376,492,491
489,492,401,490,493
491,493,455,491,492
491,493,517,490,492
491,494,595,490,491
491,493,637,490,494
491,494,634,492,495
493,493,611,492,492
492,494,515,492,495
493,494,426,492,494
490,493,388,494,494
490,492,368,491,495
491,495,371,491,493
492,492,383,493,492
493,493,424,490,492
491,494,484,491,492
492,492,550,490,492
491,493,620,491,494
492,493,639,491,493
493,492,629,492,493
490,492,576,493,493
492,492,470,493,493
491,493,406,491,494
492,494,370,492,494
492,491,369,490,493
492,494,375,489,492
492,495,397,490,493
492,494,450,491,493
491,493,512,491,492
491,493,588,490,493
490,493,635,491,494
492,492,637,492,493
490,492,621,493,494
491,493,529,493,494
493,494,435,492,493
491,494,393,492,495
492,495,366,490,493
493,493,372,490,494
493,493,382,491,494
493,494,415,491,494
492,493,478,491,493
492,494,540,493,493
490,493,618,492,493
492,494,640,491,492
492,495,630,493,494
492,492,583,490,493
493,493,483,492,494
492,493,411,490,493
493,493,376,490,493
493,493,368,491,494
491,491,375,491,493
492,495,388,493,494
490,492,442,491,492
491,493,503,491,492
490,493,574,491,491
490,494,633,491,492
492,493,637,492,493
494,495,625,490,493
491,494,541,492,495
494,494,443,492,495
493,493,398,492,495
492,492,370,491,494
495,494,368,492,492
492,492,380,492,495
491,495,407,490,492
491,493,468,491,492
491,494,530,490,492
490,492,609,493,493
493,492,641,491,492
492,494,633,492,494
491,492,594,492,495
491,493,496,492,494
491,492,416,492,493
491,493,379,490,494
490,493,365,490,494
491,491,373,490,493
492,494,384,489,492
493,494,435,490,493
493,493,497,492,493
492,494,565,492,494
492,495,629,491,493
491,493,638,492,493
491,494,625,492,492
491,494,556,492,493
493,493,454,491,494
492,494,400,493,494
491,492,368,490,493
493,493,369,491,495
493,492,378,492,494
492,492,402,490,492
492,493,461,491,493
492,494,522,490,492
489,492,601,491,492
490,494,637,490,492
492,495,634,490,493
493,495,604,494,494
492,493,509,492,493
493,493,422,492,493
493,492,385,491,496
494,492,368,492,494
491,493,372,493,494
493,494,383,489,493
490,493,427,491,493
492,493,487,491,492
491,493,552,489,491
491,495,624,490,493
493,493,639,492,492
491,492,630,491,494
491,494,569,492,495
492,492,464,492,493
492,492,404,492,493
491,493,370,493,494
493,493,368,491,492
492,494,376,492,494
491,495,397,490,493
493,493,452,490,493
492,493,514,490,493
492,492,592,490,494
491,493,635,490,493
491,492,635,490,493
492,492,615,493,493
491,493,521,492,493
492,493,430,492,493
491,494,391,492,494
492,495,366,490,492
490,493,372,492,494
492,492,381,490,495
493,492,420,491,494
492,492,480,490,493
491,493,543,492,494
491,492,619,490,494
492,494,639,491,492
492,494,629,490,495
492,495,580,490,495
492,493,478,492,491
493,494,409,491,493
492,494,373,491,501
493,492,367,493,497
492,492,375,492,486
492,493,394,494,490
491,492,446,491,493
492,493,506,491,493
491,492,582,492,493
491,494,634,490,494
493,493,636,491,496
493,492,623,490,491
491,494,534,491,491
493,493,437,491,491
491,492,393,492,494
491,491,368,491,492
491,493,368,492,491
491,492,379,491,494
491,494,409,490,493
492,493,473,491,492
491,493,534,490,492
492,493,613,490,492
493,492,641,491,492
492,494,631,492,493
491,495,587,490,493
492,493,489,492,494
492,493,413,492,493
492,494,376,491,491
490,494,366,490,494
490,492,373,490,494
493,494,388,492,491
491,492,439,491,493
492,492,500,491,493
492,492,570,492,493
490,494,630,491,493
491,493,636,491,494
491,491,627,490,492
491,495,547,491,493
492,494,447,491,492
492,493,399,492,493
490,493,368,490,493
493,494,368,490,491
491,492,379,492,494
490,491,407,492,493
491,492,464,491,493
491,493,525,491,492
491,493,604,490,494
492,492,639,490,492
492,493,633,490,493
492,493,598,490,494
493,493,504,491,493
492,493,418,491,492
492,492,382,492,492
493,494,366,492,491
491,493,370,491,492
491,494,381,490,491
492,494,431,491,493
491,492,490,491,492
491,492,558,491,491
493,494,627,490,493
492,493,638,491,494
492,492,628,491,493
491,493,562,491,494
492,492,457,491,492
491,493,403,491,493
491,491,370,491,495
491,491,367,492,492
490,492,377,490,492
492,492,398,492,491
492,493,457,489,491
491,492,516,490,491
491,493,594,489,491
492,493,637,489,492
492,492,634,491,491
491,493,611,491,494
493,494,515,491,492
492,493,425,491,493
491,492,387,492,493
491,492,368,492,491
493,492,372,491,492
492,493,380,492,494
492,492,422,490,491
490,493,481,490,491
492,493,547,489,491
493,494,622,492,491
490,492,639,491,493
492,494,628,489,494
492,491,577,492,494
492,492,470,491,493
492,492,407,491,492
493,494,370,493,494
491,492,366,490,493
493,493,373,490,491
491,493,393,489,491
491,493,447,490,491
491,493,510,490,491
490,492,585,492,492
493,493,636,491,491
491,493,637,492,492
491,491,619,492,494
491,492,529,491,493
492,492,433,490,491
492,492,390,491,491
494,492,368,490,491
491,494,368,490,492
492,493,378,489,491
493,494,414,489,491
490,492,475,490,491
492,492,538,490,490
490,491,617,490,492
490,491,639,491,492
490,492,630,491,492
491,494,585,490,493
491,492,482,492,492
492,493,411,490,491
491,494,373,491,490
490,493,364,489,491
492,494,373,489,491
492,494,391,492,491
490,492,441,490,491
491,492,502,490,492
491,491,574,490,493
491,491,632,491,492
490,493,635,491,492
492,492,624,491,491
490,494,542,491,493
492,494,441,491,492
491,493,394,490,492
493,495,366,489,492
493,493,369,491,491
492,491,378,491,491
491,495,407,491,492
491,492,468,491,492
490,492,527,491,491
489,492,608,489,492
492,492,638,490,491
491,491,632,491,493
492,495,592,489,491
491,493,495,490,492
492,492,415,490,491
492,493,381,490,491
490,491,365,490,493
492,491,372,490,491
492,491,387,492,493
489,491,432,491,492
491,492,494,491,491
490,492,562,490,492
489,492,626,490,493
491,492,638,489,492
492,493,626,490,492
494,493,556,491,493
493,493,453,491,492
490,492,400,491,494
492,494,366,490,492
491,492,368,492,492
490,492,375,491,492
490,492,401,491,491
491,492,461,490,491
490,492,519,490,492
491,491,601,489,490
492,493,639,490,492
492,492,634,490,493
492,492,605,490,494
492,493,509,491,492
492,492,421,491,492
492,494,384,492,493
490,491,366,492,491
490,493,370,492,491
491,493,381,490,493
492,492,425,489,491
491,492,486,490,492
491,493,553,489,491
492,493,623,489,493
492,491,639,491,493
492,494,628,490,494
490,491,571,491,493
493,493,465,491,493
492,492,404,491,492
492,494,367,490,491
492,494,368,492,492
490,494,376,491,493
491,493,397,491,493
493,492,454,489,492
491,492,513,491,492
491,491,591,492,492
490,492,636,490,492
492,491,632,490,491
492,491,618,492,494
492,494,522,491,492
492,493,430,490,492
492,493,390,490,493
490,492,367,491,494
491,491,370,489,491
492,494,382,492,493
490,491,419,492,492
490,491,478,490,492
491,493,544,490,492
491,493,616,490,492
491,491,638,492,492
493,493,631,490,493
493,493,581,490,494
493,493,477,491,492
492,494,409,492,493
491,492,371,489,492
493,493,365,491,491
492,493,374,491,492
491,494,390,490,491
492,494,444,489,491
491,492,507,491,492
492,493,578,491,490
490,493,637,491,493
491,492,637,492,493
491,492,622,493,493
490,492,537,491,493
492,493,438,491,493
493,492,394,491,491
491,493,367,491,491
491,494,368,490,492
493,493,379,489,492
490,492,411,490,492
492,493,470,490,491
491,493,535,490,492
489,491,613,492,493
490,492,639,491,491
490,493,632,490,493
490,494,587,492,495
492,493,491,490,492
491,493,414,491,492
492,493,378,490,493
494,493,366,491,494
493,492,372,490,491
492,491,389,492,494
493,493,437,490,492
490,492,499,491,491
490,492,565,490,491
490,493,629,489,493
492,492,638,490,492
492,493,624,492,492
490,493,551,491,494
493,493,449,491,493
492,492,398,491,493
491,495,367,489,492
490,492,368,492,493
492,492,377,490,490
490,494,403,490,491
491,493,462,490,492
491,493,523,491,491
490,492,606,489,492
492,493,638,490,491
492,491,635,492,493
490,491,601,492,494
490,492,503,492,493
492,492,419,491,493
492,492,384,491,491
490,493,366,492,493
490,494,373,490,493
492,492,384,490,493
493,492,430,490,493
492,493,491,490,491
491,492,557,491,492
492,494,626,491,491
490,493,637,491,491
490,493,625,489,491
491,494,563,492,494
492,492,459,491,493
492,492,403,491,492
493,493,370,489,492
492,491,368,491,494
492,491,375,491,493
492,495,399,489,492
490,491,456,490,492
492,493,516,490,491
490,493,595,490,490
490,493,637,490,492
492,493,633,490,493
493,493,613,493,492
494,492,518,491,493
492,493,428,491,493
491,492,388,492,493
491,492,368,493,492
492,494,370,490,493
492,492,380,490,491
490,491,423,491,492
491,494,483,490,491
491,493,547,489,493
492,492,620,489,493
491,494,639,489,493
490,491,629,489,493
492,495,577,492,493
491,493,472,491,493
491,492,406,491,492
491,493,372,490,494
491,493,366,489,492
490,492,374,491,493
492,493,396,489,494
491,492,448,490,493
491,492,508,489,494
491,491,583,489,491
492,494,635,492,490
490,492,636,490,492
491,494,618,491,490
492,495,529,491,493
492,493,435,491,492
491,493,393,492,493
493,493,368,492,492
492,494,371,492,493
491,492,380,492,494
490,491,414,492,492
491,491,474,490,491
492,492,537,490,491
490,491,616,491,491
492,494,640,490,492
492,493,631,491,493
494,493,585,490,492
492,493,484,491,493
492,492,409,490,492
492,492,375,492,493
490,492,366,492,491
490,492,372,490,491
491,493,387,491,491
491,492,442,490,492
490,493,501,491,492
490,492,574,489,492
493,493,634,491,493
491,491,636,491,494
491,491,623,489,493
493,492,543,492,495
493,493,444,491,496
492,493,396,492,495
491,494,367,493,496
492,494,369,492,497
491,493,379,491,495
493,492,406,491,495
491,493,468,491,487
491,492,529,493,486
490,491,609,492,490
490,493,639,490,492
491,494,630,490,493
491,491,595,489,491
493,494,497,491,491
492,493,416,490,492
492,493,380,490,492
494,493,365,491,491
491,491,374,491,493
492,494,382,489,492
490,492,434,491,491
491,492,494,491,492
491,492,559,490,493
492,492,630,489,491
492,493,638,492,492
490,493,627,490,493
494,493,559,491,494
492,493,454,490,493
493,493,399,490,492
490,492,370,492,492
493,493,367,491,492
491,494,375,490,492
490,494,401,490,491
491,493,457,490,492
491,492,520,490,492
492,492,599,491,491
493,492,640,491,493
492,492,635,492,493
490,491,607,493,494
491,492,511,491,493
492,493,423,492,492
491,493,385,491,494
493,494,366,489,492
492,494,371,489,493
492,493,382,489,493
494,492,425,491,492
491,493,486,490,492
491,493,551,490,492
490,492,625,492,492
490,492,638,491,491
491,493,626,491,494
493,492,570,490,493
492,492,466,491,493
493,496,405,490,493
493,493,371,490,493
493,492,368,491,495
492,494,374,489,493
491,492,399,490,493
493,493,451,491,492
491,493,513,490,491
491,493,588,490,491
491,493,635,490,493
493,492,636,492,492
492,493,617,490,492
491,493,523,490,493
493,492,432,490,494
491,492,391,492,495
490,491,368,489,492
493,493,370,492,492
490,491,380,490,494
490,494,417,489,492
491,493,479,490,492
491,492,542,489,492
490,492,618,491,493
