Sensor0,Sensor1,Sensor2,Sensor3,Sensor4

491,494,492,492,633
491,494,492,493,641
490,492,491,1,493
491,492,372,493,492
494,491,372,491,492
492,494,380,491,495
491,491,408,490,493
4,492,493,399,491
493,491,492,372,493
492,494,491,372,491
492,492,494,380,491
495,491,491,408,490
493,493,493,465,490
493,3,491,492,372
493,492,494,491,372
491,492,492,494,380
491,495,491,491,408
490,493,493,493,465
490,493,492,493,528
490,493,492,492,604
492,492,493,492,637
491,494,493,494,629
491,493,491,491,592
493,494,493,493,497
492,494,492,493,419
492,493,492,493,382
491,495,492,492,370
490,493,493,493,376
492,493,493,493,389
490,494,493,493,435
490,493,492,492,492
490,494,491,493,558
489,493,491,492,625
490,494,493,492,632
491,492,491,494,621
490,492,492,495,556
491,493,492,493,455
491,494,493,494,403
490,494,490,492,372
493,493,493,492,372
491,494,492,492,381
491,494,492,491,406
493,493,492,493,457
491,493,493,492,519
490,493,492,493,595
491,492,491,494,632
489,492,493,494,631
489,493,493,494,602
490,493,491,492,510
491,493,492,493,425
491,493,491,493,387
492,495,492,492,371
492,493,490,493,375
492,492,490,493,385
489,494,494,494,427
490,492,491,492,485
490,493,492,493,551
489,492,493,494,620
489,494,493,492,636
491,492,491,494,623
491,495,493,492,568
491,493,492,492,466
491,493,492,492,407
491,492,491,493,372
492,492,491,491,372
491,494,492,495,378
489,493,490,491,401
489,493,493,493,452
489,493,492,493,512
490,493,492,491,588
490,494,493,491,631
489,493,493,493,631
492,493,492,492,612
490,493,491,494,521
491,493,492,493,432
490,492,492,493,392
490,495,491,491,372
489,494,493,493,374
491,493,491,491,384
491,495,492,491,421
490,494,492,492,478
490,493,491,492,541
490,493,490,492,614
492,494,492,492,636
490,494,493,495,626
490,494,493,495,580
490,494,493,494,479
492,494,492,492,412
490,494,493,494,375
491,492,492,491,371
492,493,491,492,378
491,492,491,493,396
492,492,491,493,445
491,493,492,492,504
490,492,491,494,578
491,494,491,494,630
489,493,493,492,633
490,493,493,492,620
490,494,493,493,534
491,494,493,493,439
491,492,491,493,395
492,494,491,491,371
491,493,491,493,372
491,492,491,493,381
491,495,492,491,411
489,492,491,492,471
491,493,491,493,532
489,493,493,493,608
489,493,492,492,636
491,494,492,494,626
489,494,491,492,588
490,493,493,493,489
491,494,490,492,415
491,493,491,493,379
490,492,491,494,370
490,493,492,492,376
492,493,493,493,392
490,492,491,492,437
490,494,492,492,497
490,493,492,492,567
491,494,491,492,627
490,494,493,492,632
491,492,492,492,623
492,495,492,495,546
491,494,492,494,449
491,493,492,493,400
490,493,491,492,371
493,494,493,492,373
490,491,491,493,380
491,495,491,491,408
492,494,491,492,463
491,493,491,492,522
490,493,492,492,600
491,492,493,492,636
491,493,491,494,628
489,493,493,495,595
489,493,494,494,504
491,493,492,493,421
491,493,491,493,385
491,495,493,494,368
490,493,491,492,375
492,493,491,492,385
492,492,490,493,430
491,493,492,492,489
490,492,492,493,555
492,493,491,492,622
490,494,493,493,635
491,495,493,492,625
491,495,493,492,560
491,494,492,493,460
491,494,492,494,405
490,493,491,492,370
493,493,492,493,369
490,492,492,494,379
490,494,491,491,403
489,493,493,493,456
491,493,491,493,515
490,494,492,492,592
490,494,493,492,634
491,494,491,492,630
492,494,492,494,605
489,494,492,492,517
491,493,492,492,425
491,493,492,492,388
490,492,491,493,369
490,492,492,494,375
492,494,490,494,384
489,493,490,492,423
491,494,492,492,481
490,494,492,492,547
491,493,490,492,618
491,493,492,492,635
491,493,491,494,627
491,494,493,494,572
490,493,492,493,470
491,494,492,493,409
490,493,492,492,374
493,493,493,492,371
491,492,492,494,377
492,494,491,491,399
492,493,491,493,448
491,493,491,493,508
491,492,490,493,582
491,494,493,494,630
490,492,491,492,633
493,494,493,493,615
490,494,494,494,529
491,494,494,493,435
491,493,491,492,392
491,495,492,491,369
490,493,492,492,372
492,493,491,492,381
492,492,490,493,415
491,492,490,492,473
490,493,491,493,537
489,493,490,491,614
490,492,492,493,635
491,494,492,492,628
491,494,493,492,585
491,493,492,493,483
491,493,492,494,413
490,493,491,492,376
493,493,490,492,368
490,492,492,494,376
490,492,492,495,392
490,494,491,491,441
490,493,492,493,503
491,492,491,492,572
490,494,492,492,629
491,494,491,492,634
492,493,490,493,621
490,494,491,493,541
491,494,493,493,444
492,493,491,492,397
490,493,493,494,369
489,492,493,493,374
492,493,490,493,381
491,494,493,494,408
490,492,491,492,467
490,493,492,492,527
491,493,490,492,606
492,493,492,492,635
490,492,492,493,626
491,494,491,491,590
490,492,492,493,495
491,493,492,493,418
490,493,493,493,384
490,493,493,492,368
491,492,492,492,377
491,492,492,494,387
493,494,490,492,433
491,493,492,493,495
490,492,491,493,559
491,494,492,491,623
490,492,492,493,634
492,493,493,492,623
491,494,494,492,556
491,495,493,493,454
491,493,491,493,401
491,493,491,492,372
490,493,493,493,369
492,492,491,493,378
490,492,491,494,403
490,492,491,494,461
491,493,491,493,518
490,493,490,493,598
492,494,493,492,635
492,494,491,491,631
492,494,491,492,604
493,494,492,493,511
492,494,492,493,422
491,493,491,492,387
491,495,491,493,368
490,493,492,494,374
489,493,493,493,386
489,492,489,492,427
491,494,492,493,485
491,492,491,493,553
491,494,491,491,621
492,493,491,493,635
491,492,491,493,626
491,494,493,493,565
491,493,492,493,466
491,494,491,493,406
490,493,493,493,371
489,493,493,492,372
490,492,490,493,377
491,495,491,491,399
489,492,491,492,453
491,493,491,492,511
491,493,491,492,587
491,493,491,494,632
491,493,491,491,631
492,494,494,494,612
493,494,491,493,523
492,494,493,493,431
490,494,493,492,393
490,495,492,492,369
491,493,492,491,373
492,493,493,493,384
490,492,490,492,419
491,492,491,492,477
490,493,491,493,541
490,493,491,491,616
490,494,493,493,636
491,492,491,492,627
491,494,493,492,580
490,495,493,492,477
490,493,492,493,411
490,493,490,491,375
492,493,493,493,370
491,492,491,493,376
491,493,491,493,393
490,492,492,494,444
490,492,491,493,506
491,493,490,492,576
490,493,491,493,630
490,494,491,491,633
491,494,491,492,619
492,494,491,492,536
491,494,492,493,438
491,494,491,493,397
490,495,493,494,369
490,493,492,493,371
490,493,493,493,382
489,493,494,492,412
491,492,492,492,469
490,492,491,493,533
491,494,490,492,610
492,494,491,492,634
491,493,491,493,627
491,494,493,492,585
492,493,492,493,490
491,494,492,493,415
490,493,492,493,379
490,493,493,493,370
490,495,493,493,378
491,492,491,494,388
491,495,491,492,438
490,492,491,492,497
491,493,491,492,564
491,492,490,493,626
490,492,492,492,635
491,494,493,494,622
489,494,491,492,549
490,494,493,493,449
491,494,492,492,400
490,494,493,492,373
490,492,492,493,372
492,494,491,493,381
490,493,490,493,406
491,492,491,493,461
490,493,492,493,523
489,492,490,491,603
492,493,493,493,634
491,492,492,494,631
491,494,492,492,598
492,496,492,493,502
491,495,493,493,421
491,493,491,493,384
490,493,491,492,367
491,495,492,492,377
490,493,492,493,385
489,492,492,494,430
489,493,491,493,489
490,493,490,492,556
490,494,493,493,622
490,492,491,492,635
492,494,490,492,624
492,494,491,492,563
491,494,493,493,459
491,493,492,492,404
490,494,492,492,370
490,492,492,494,370
490,493,492,493,379
489,494,493,493,402
491,491,490,492,456
490,493,492,492,515
489,493,490,492,595
492,493,490,492,633
491,492,491,493,630
491,492,492,494,608
491,495,492,492,515
490,494,492,493,428
491,494,492,493,390
490,494,494,493,370
490,495,493,492,376
491,495,492,494,384
489,494,491,492,423
489,493,492,494,483
490,493,491,492,547
491,492,490,493,616
491,492,493,494,637
491,493,491,494,625
490,493,491,492,575
493,494,493,494,470
491,494,492,493,409
491,494,493,492,375
490,491,492,494,369
492,493,490,492,377
489,493,494,492,398
491,491,491,493,448
491,492,491,492,508
490,492,492,494,581
489,492,491,492,632
492,494,493,492,633
490,491,491,495,619
491,495,492,491,529
491,494,493,492,435
491,494,492,492,394
490,493,493,492,370
491,492,493,491,374
491,491,491,494,381
489,492,492,495,416
489,493,493,494,473
490,492,491,492,538
491,493,492,492,612
490,492,493,492,638
492,493,491,492,628
493,493,491,493,584
493,493,492,493,484
491,494,492,492,413
491,494,492,492,378
489,491,492,494,370
490,493,493,493,377
491,494,493,492,393
489,494,493,493,441
491,492,491,492,501
490,494,492,494,571
489,493,490,491,630
491,492,491,493,632
491,492,493,494,621
491,495,493,491,544
491,493,492,493,443
490,493,492,493,398
490,493,493,493,370
490,494,493,491,372
491,494,492,494,380
489,492,490,491,410
492,492,492,493,466
490,492,491,492,529
491,492,491,493,605
490,492,492,494,636
491,493,490,492,629
490,494,493,492,592
492,493,493,492,496
491,494,492,492,417
491,494,491,491,381
492,495,492,491,368
492,494,492,492,375
491,492,491,493,389
490,495,492,494,433
490,492,491,492,494
490,493,491,494,560
489,492,493,493,627
491,492,492,492,636
492,492,493,494,623
492,495,492,492,557
492,494,492,492,453
491,494,492,492,401
490,494,493,493,368
492,492,491,491,370
491,494,493,494,379
490,492,492,494,404
490,493,492,493,458
490,493,492,492,520
490,494,491,491,600
490,492,492,494,637
491,493,491,493,632
492,492,490,493,602
492,492,492,493,509
491,493,492,493,423
490,494,492,493,384
490,494,491,491,369
490,494,492,493,374
491,494,492,492,385
490,495,492,492,428
490,492,491,494,486
492,494,491,494,554
489,493,491,494,623
492,493,492,494,636
491,494,494,495,626
490,493,492,493,571
493,494,493,494,464
492,494,492,492,406
490,494,493,492,373
490,495,492,491,369
492,495,491,492,377
490,493,493,492,400
492,493,493,492,453
490,493,491,493,514
491,492,491,493,589
490,492,491,494,634
490,493,493,494,635
493,493,491,493,614
490,494,494,493,522
492,494,493,494,431
490,494,491,492,391
491,495,492,492,370
491,494,493,494,372
489,493,491,493,381
491,494,494,492,420
490,492,491,494,479
491,493,492,494,543
490,493,493,495,620
493,493,491,494,640
492,495,493,495,628
490,495,493,492,583
493,495,491,493,476
492,494,492,492,410
491,494,494,493,374
493,492,491,494,368
492,495,492,495,375
490,493,492,495,394
490,493,493,493,444
490,493,492,493,505
490,493,491,494,578
491,494,493,492,635
490,493,493,494,637
492,493,491,494,621
494,494,491,493,535
492,494,492,493,438
491,494,492,493,394
490,493,493,492,371
491,493,493,494,372
491,493,493,493,381
490,494,493,492,412
490,492,492,493,470
490,493,491,492,534
489,493,492,493,613
492,493,491,494,638
491,492,491,494,629
490,492,492,491,591
492,495,493,493,489
491,494,492,492,413
490,493,493,493,378
490,494,494,492,368
492,495,491,491,374
492,494,491,492,388
489,493,493,493,437
491,493,492,493,499
489,492,492,493,568
489,492,491,495,629
490,493,493,494,637
490,493,492,494,625
491,495,494,493,546
491,494,493,493,448
491,494,492,492,399
492,494,491,491,370
493,494,492,492,370
490,494,491,494,377
491,495,492,491,408
490,492,492,494,463
490,492,492,493,525
490,493,493,493,604
492,493,491,493,639
491,494,492,494,630
489,493,491,490,599
493,494,492,492,502
492,494,492,492,419
492,494,491,493,381
491,495,494,492,368
490,493,492,493,373
491,494,491,494,386
489,493,494,492,432
490,494,493,492,490
491,493,492,494,557
489,491,491,492,628
492,494,493,493,637
491,492,491,494,625
490,492,491,494,562
491,493,492,494,458
491,494,492,493,403
491,493,493,493,369
492,493,493,492,370
491,495,492,492,379
492,494,491,491,402
492,494,493,493,455
490,493,492,492,517
491,494,492,491,595
490,492,492,494,636
490,493,492,494,634
490,494,493,494,609
490,494,495,493,515
492,494,493,493,425
491,494,492,493,386
491,495,492,491,370
492,494,491,492,372
492,493,491,493,382
489,494,493,492,422
490,492,490,492,482
490,494,492,494,549
489,492,492,494,621
490,494,492,492,639
491,495,491,494,627
489,495,492,491,578
491,493,492,493,469
491,494,492,493,408
492,493,491,492,371
492,493,491,492,368
491,495,492,494,376
490,493,491,491,399
493,494,493,493,448
490,493,492,493,511
490,493,492,492,586
491,495,493,492,634
490,493,493,494,635
492,492,491,492,619
491,495,492,494,528
492,494,492,493,434
491,493,491,493,391
490,493,492,492,370
492,494,493,493,372
492,492,491,493,381
490,495,492,492,418
491,493,491,492,475
491,493,491,492,538
489,492,492,492,616
492,492,492,492,639
491,492,492,494,629
490,492,491,495,583
490,493,492,494,482
491,494,492,492,412
490,493,493,493,374
492,492,490,492,368
491,495,491,492,376
492,494,491,492,393
493,494,490,492,440
491,493,492,492,502
489,492,492,493,573
491,494,491,491,631
489,493,493,493,637
490,494,493,492,624
490,495,494,492,539
491,493,492,493,442
491,494,492,493,395
490,493,491,492,368
493,493,491,494,369
491,492,491,493,377
490,495,492,491,411
489,492,492,494,468
491,493,490,494,530
490,493,493,493,610
490,494,492,492,639
492,494,492,494,630
490,493,491,492,595
493,494,493,494,494
492,494,492,493,415
491,492,492,494,378
491,492,491,493,366
490,492,492,494,374
492,493,491,494,386
489,492,490,492,434
491,493,492,493,495
490,493,492,492,565
491,494,492,491,629
491,493,492,494,636
491,492,491,493,626
490,494,494,494,553
491,493,492,494,452
491,493,491,494,400
490,493,493,492,370
492,493,493,493,369
490,492,491,493,376
491,495,492,491,405
491,493,491,492,460
491,493,491,492,521
490,493,493,492,600
492,492,491,492,639
492,494,493,494,632
490,494,494,495,602
490,494,494,494,509
491,493,492,493,421
491,493,492,493,383
491,495,492,491,366
490,493,493,493,371
492,493,491,493,383
492,492,490,493,427
491,493,491,492,486
490,494,492,494,554
489,493,490,491,624
490,493,493,492,638
490,494,493,492,628
491,494,493,492,570
491,493,492,493,464
491,494,492,493,404
490,493,491,492,369
492,493,492,492,366
490,492,491,493,376
490,492,491,491,401
491,493,493,493,452
491,493,491,492,513
490,493,492,492,592
490,494,493,492,636
491,493,491,492,634
492,494,490,493,612
490,493,491,494,521
491,494,493,492,429
491,493,492,493,388
490,493,491,495,367
489,493,492,493,372
491,493,491,493,382
490,494,492,495,419
490,492,492,492,478
490,493,492,492,545
491,493,490,491,619
492,493,493,492,638
491,492,492,494,628
492,495,492,492,578
490,494,493,494,474
491,494,493,494,410
490,494,493,493,372
493,494,490,492,368
491,495,492,494,375
490,495,491,491,395
492,494,491,492,445
491,494,489,493,506
491,493,491,493,577
490,495,493,492,632
490,492,491,492,634
492,491,493,493,620
489,492,494,493,535
490,493,492,493,438
490,493,490,493,392
489,495,491,491,370
489,494,492,492,369
491,495,491,492,379
491,494,490,494,413
490,493,491,492,471
490,493,491,493,534
489,490,489,492,612
492,491,492,491,638
491,493,491,491,630
491,493,491,492,591
493,493,492,493,487
491,494,492,492,414
490,493,492,493,376
490,492,490,494,366
489,492,492,494,375
489,493,492,494,390
489,493,490,492,437
491,492,492,493,499
491,492,491,493,569
491,494,491,491,630
491,493,490,492,635
491,492,490,493,623
490,494,493,493,546
490,492,492,492,448
490,492,491,493,397
490,493,494,494,369
489,493,492,492,371
490,492,490,493,377
491,495,492,491,406
489,492,491,492,463
491,493,491,492,524
490,492,490,492,603
490,492,491,491,637
491,493,492,494,630
489,492,490,492,598
489,494,493,492,500
490,494,492,492,420
490,494,492,492,384
491,495,492,491,367
489,493,493,493,373
491,492,492,492,386
489,491,490,493,429
489,492,491,492,490
490,492,491,493,557
489,493,490,492,624
490,494,493,492,635
490,492,492,491,626
492,496,492,492,563
492,494,492,493,459
491,494,492,493,402
490,494,491,492,368
491,494,492,491,370
489,493,491,493,375
489,495,492,494,400
489,495,492,493,455
491,495,491,491,515
490,495,492,493,594
490,492,491,491,635
491,494,490,492,631
491,494,490,492,608
492,494,491,493,515
492,496,493,492,426
490,495,492,493,390
492,496,491,494,368
490,496,493,492,374
490,494,492,491,384
490,493,492,492,421
490,493,491,491,482
490,491,492,491,547
491,490,489,490,617
492,492,491,493,634
490,491,492,494,627
493,493,491,490,574
490,493,493,493,470
491,493,492,493,408
490,496,492,492,373
490,499,492,492,369
491,498,492,493,376
490,497,490,493,397
489,498,493,493,448
491,495,491,492,507
490,492,491,493,581
489,488,491,493,632
489,488,492,491,631
491,491,493,490,617
490,495,492,493,527
491,500,493,493,432
491,501,492,494,393
492,496,491,492,370
490,491,492,491,370
490,492,492,492,383
491,496,491,494,415
489,489,492,493,472
490,489,492,492,539
490,494,490,493,612
491,497,491,492,638
489,500,493,495,629
492,503,491,492,584
493,506,493,494,482
492,508,493,494,414
491,501,492,493,374
490,485,492,492,368
492,478,493,492,375
491,490,493,491,393
490,493,492,491,441
491,491,491,491,500
490,488,491,492,572
491,493,490,493,631
491,496,491,493,632
490,494,493,494,620
490,493,493,496,541
491,496,493,492,443
492,496,493,493,396
491,484,490,493,369
490,486,491,491,370
491,493,491,491,379
491,496,490,491,409
490,494,492,492,466
490,496,493,493,530
490,499,491,494,606
489,503,493,495,636
489,496,494,494,631
490,494,490,492,591
490,501,493,492,494
491,502,492,492,418
491,493,492,491,380
492,499,492,492,367
492,503,493,493,374
491,499,492,491,388
491,504,492,494,432
490,485,490,492,493
490,478,490,491,561
489,487,493,491,627
491,493,491,491,634
490,494,494,492,624
492,499,494,495,555
491,504,493,494,452
492,507,493,494,401
490,509,492,495,369
490,489,489,490,368
489,473,491,492,377
491,481,489,491,405
490,494,491,491,458
490,495,492,491,520
490,499,491,494,599
489,502,491,493,636
491,509,493,493,634
490,510,492,495,600
490,502,493,495,509
491,506,493,494,423
490,497,492,493,386
492,491,489,492,369
491,495,492,494,373
489,501,490,491,384
492,485,490,491,426
491,491,492,492,487
490,494,491,491,553
490,493,491,493,623
491,472,490,491,635
490,474,492,491,626
490,484,494,492,569
491,493,493,494,462
492,503,494,493,405
492,506,495,496,371
493,507,493,495,368
491,509,495,497,377
490,517,496,498,401
490,511,493,494,451
489,478,491,492,514
491,485,492,492,592
490,488,493,491,635
491,489,492,491,634
491,491,489,491,616
493,501,494,494,522
492,505,493,494,431
492,503,494,494,389
494,503,494,494,368
493,514,495,496,374
491,517,496,493,383
490,489,495,492,420
488,488,493,492,480
492,506,493,492,545
493,500,494,492,619
492,503,494,494,638
490,506,492,495,628
491,501,491,493,582
491,490,490,493,474
493,482,491,493,409
491,485,492,495,374
492,501,491,494,369
495,499,493,492,377
495,504,493,495,398
496,483,490,492,445
494,485,489,492,505
494,481,488,493,577
490,485,490,493,633
493,488,490,493,634
489,490,489,492,621
490,496,495,493,535
492,501,497,494,438
489,487,495,493,396
490,493,493,495,370
492,499,491,495,372
490,497,490,494,380
491,513,491,494,412
491,541,493,495,473
491,530,493,493,535
491,490,493,495,610
492,490,495,495,640
491,490,490,494,630
490,451,490,489,588
491,464,491,491,487
492,471,493,490,414
492,487,494,491,378
489,496,491,491,366
491,492,493,494,372
491,495,494,495,387
490,501,493,495,438
492,496,491,494,499
490,485,494,495,568
489,496,491,493,632
490,502,491,493,637
492,500,491,492,624
493,490,494,493,549
492,500,493,492,448
494,501,495,493,398
495,488,496,495,368
492,485,496,495,371
492,508,495,495,380
489,522,495,494,410
489,517,492,495,464
491,503,490,490,526
493,506,489,492,605
492,514,491,495,637
490,493,493,491,633
490,467,492,495,598
493,474,494,497,502
492,481,493,494,419
491,471,493,495,383
492,481,493,494,370
491,505,491,495,374
490,508,490,494,388
489,510,493,500,435
493,514,492,501,494
495,513,494,498,561
498,500,492,497,630
499,496,488,490,637
497,484,492,489,629
503,502,496,491,564
509,509,495,493,459
502,511,496,493,404
495,489,491,492,367
485,466,490,491,368
485,495,499,494,379
492,516,493,493,401
490,498,494,493,456
488,490,492,494,518
490,469,493,497,597
487,498,494,498,639
490,510,496,495,637
492,513,492,494,612
493,507,491,492,516
493,468,494,491,426
495,474,488,491,385
496,467,491,493,371
500,481,494,497,373
498,485,495,499,383
489,496,492,498,426
484,506,491,495,485
486,513,496,494,551
489,514,493,495,626
495,521,493,498,641
495,515,490,500,632
494,518,489,499,580
489,492,486,493,471
488,509,490,492,412
505,493,493,492,372
513,441,491,489,368
516,464,496,490,378
502,487,494,495,401
503,519,492,498,450
490,529,496,495,512
477,507,485,494,584
478,479,491,493,631
488,444,496,492,633
491,467,492,493,621
491,484,498,498,530
493,496,496,497,437
492,502,495,495,396
491,502,494,496,374
491,509,493,497,375
490,508,492,489,381
493,506,495,492,420
493,509,493,493,476
495,511,495,494,541
497,522,497,498,617
492,514,492,496,641
493,484,497,499,631
488,512,498,497,589
484,496,491,495,485
491,499,491,495,415
492,479,494,494,378
487,479,494,494,367
492,482,497,490,374
492,460,492,496,393
492,483,493,491,441
494,468,490,493,504
497,499,492,494,575
496,500,490,495,635
494,504,496,500,640
491,508,494,501,626
492,500,491,497,543
491,489,491,494,446
491,506,494,492,398
491,509,493,494,372
491,521,494,498,375
487,498,496,496,381
492,468,498,498,414
495,509,498,500,471
492,517,493,494,533
492,521,493,491,611
496,477,492,493,638
496,471,495,496,634
491,502,496,500,598
489,496,493,494,496
489,521,497,499,421
494,531,496,495,384
494,473,489,491,367
498,452,489,492,374
497,485,490,492,387
485,495,494,493,434
486,506,491,496,496
489,519,495,499,567
497,488,497,495,630
502,490,499,494,639
503,484,500,494,627
489,520,494,493,558
484,543,489,497,456
490,525,496,492,403
505,493,491,491,370
502,451,490,492,369
498,461,490,498,377
481,487,487,495,406
480,508,490,499,463
487,497,492,499,525
492,511,497,494,605
492,500,493,498,640
491,507,493,495,636
490,504,492,492,604
492,477,492,495,509
493,464,491,494,423
491,484,495,492,386
495,514,494,494,374
502,546,500,503,378
487,537,497,501,392
491,518,499,494,429
494,430,492,490,486
493,466,492,494,557
497,479,494,496,627
500,505,501,494,644
509,514,508,495,632
508,508,507,498,572
503,534,509,502,469
499,548,488,497,408
496,503,487,492,370
488,502,492,490,368
475,453,489,491,376
481,472,487,493,400
488,481,485,497,455
490,501,489,499,517
493,497,493,499,599
490,519,494,496,640
485,513,497,485,636
487,488,497,484,613
495,482,498,490,521
497,482,494,492,430
499,479,492,494,388
494,477,487,494,370
496,497,490,499,371
490,493,491,506,383
477,528,491,506,428
486,512,499,504,485
492,527,497,500,552
489,469,497,484,620
492,481,499,480,639
494,493,495,488,630
499,488,490,492,581
516,495,489,497,477
524,514,490,500,414
529,510,495,504,375
507,513,498,504,368
476,491,492,501,380
475,510,493,497,397
492,520,490,493,450
496,480,485,489,507
495,442,493,482,579
488,471,496,486,632
481,505,496,493,638
484,518,495,494,623
488,498,497,494,532
490,488,496,492,436
489,469,491,495,394
487,499,497,497,370
489,501,501,495,374
491,513,495,496,379
498,478,503,497,418
511,517,508,501,476
504,526,504,499,539
497,516,506,489,611
488,428,483,486,637
482,460,476,492,632
489,485,490,491,590
492,488,493,492,487
484,504,493,492,414
486,507,490,491,378
486,489,489,491,365
488,499,490,501,377
489,537,496,505,394
490,555,498,502,441
490,518,495,498,504
489,495,492,495,571
494,438,488,493,631
506,441,495,498,644
512,487,493,493,628
505,473,485,490,550
489,508,490,489,447
484,510,490,483,395
482,515,501,492,368
487,508,501,496,367
486,467,491,496,376
486,495,491,493,407
490,516,496,492,464
491,531,498,496,529
488,512,496,493,607
490,456,494,487,637
493,469,496,486,632
494,495,503,492,597
492,496,494,500,502
486,516,490,506,424
500,551,496,506,387
498,503,489,492,366
489,464,486,488,372
483,489,485,492,386
495,464,488,490,429
499,470,495,491,492
500,492,495,492,559
490,498,493,497,626
485,503,497,499,643
499,505,494,501,630
498,500,490,497,565
489,505,491,496,459
496,465,493,491,403
497,488,487,490,368
491,493,498,490,370
494,519,504,493,379
497,534,503,493,401
498,463,490,491,456
493,476,491,493,517
495,491,498,495,603
511,490,496,499,641
510,489,489,495,638
495,516,493,493,612
495,497,494,495,516
492,480,487,500,427
495,507,492,503,391
490,535,493,498,370
483,533,506,485,372
495,504,508,487,382
501,531,502,494,425
486,540,483,489,479
478,416,475,487,547
486,443,494,493,621
492,496,499,494,641
483,483,485,494,629
484,465,482,495,576
488,463,489,492,468
488,480,491,491,408
491,492,489,490,367
490,485,497,494,369
491,504,498,496,378
492,530,501,495,397
491,530,498,493,453
495,543,496,494,512
494,521,497,499,591
493,478,486,492,633
484,422,472,492,634
489,458,495,490,622
501,477,497,492,528
498,494,491,491,432
487,511,497,495,392
477,511,495,498,369
489,502,495,498,373
492,520,495,496,381
491,505,492,486,414
488,451,493,486,472
491,454,491,495,541
490,508,493,499,619
495,518,497,496,644
496,510,503,493,635
499,501,495,492,588
507,511,498,493,483
510,508,493,496,414
492,511,482,489,372
471,478,484,487,363
487,486,492,488,373
493,484,493,492,387
485,475,492,488,438
481,476,492,489,503
488,492,495,496,577
492,520,497,499,636
498,516,497,501,640
497,475,489,494,626
496,460,485,491,541
499,461,489,490,441
495,463,496,487,392
487,475,492,486,364
485,512,490,488,367
483,534,495,490,377
486,520,496,492,409
488,490,491,489,462
488,462,490,492,531
490,501,489,496,611
490,490,485,497,641
496,490,491,504,638
497,516,506,506,600
504,536,515,505,503
511,561,504,499,421
508,518,493,494,378
483,478,482,490,362
469,415,477,490,372
484,467,489,496,389
492,480,494,492,433
489,485,491,486,497
491,479,494,483,563
482,474,490,486,628
484,494,498,491,638
492,492,499,494,627
494,475,494,494,554
492,478,490,498,451
491,481,493,496,400
496,491,495,495,372
497,525,496,493,369
490,523,501,498,380
484,552,501,499,403
489,491,494,489,458
483,480,484,485,517
480,449,483,491,602
491,483,490,490,638
495,496,486,491,637
502,515,486,495,603
498,514,489,495,507
496,515,497,499,423
495,509,498,498,382
489,472,494,490,361
486,462,489,487,368
485,481,494,488,382
490,504,500,493,427
491,487,498,498,488
488,476,490,496,557
490,478,488,489,624
487,478,484,485,639
486,482,485,491,627
486,476,486,495,568
488,495,492,499,463
488,488,490,498,405
487,498,496,496,370
487,498,498,496,368
491,518,501,494,378
489,529,498,492,403
494,555,494,489,455
497,531,496,486,512
501,462,486,487,593
498,455,481,490,633
481,462,485,492,634
481,486,492,494,613
488,488,497,492,521
492,502,495,490,428
494,526,495,491,389
504,495,492,487,364
507,441,492,487,365
500,481,494,493,376
481,490,484,495,419
482,495,494,499,478
488,478,496,499,549
492,486,489,502,622
487,517,494,502,648
497,528,511,492,636
490,512,501,484,577
486,482,494,487,470
487,476,489,490,407
492,511,488,493,369
492,514,490,495,365
494,500,494,491,372
501,454,491,494,389
493,451,478,489,444
494,477,481,490,505
489,480,479,491,583
492,480,500,492,636
488,495,496,493,638
489,511,496,497,625
494,510,493,496,535
489,506,495,497,437
484,489,495,494,391
485,495,493,491,365
484,511,494,492,368
487,500,496,493,377
489,499,499,495,415
488,510,491,496,473
491,492,486,492,537
490,462,481,487,612
486,465,490,492,641
493,498,494,495,638
495,517,497,496,589
495,498,494,496,488
499,488,484,495,415
503,480,488,489,373
491,472,489,489,362
473,499,495,488,372
486,496,495,491,388
488,481,497,489,436
484,476,493,488,497
488,489,494,488,570
487,491,491,493,635
492,507,492,496,639
491,511,494,500,630
491,504,491,496,548
490,497,493,491,445
497,481,492,492,395
505,475,499,500,367
503,489,489,501,366
478,522,490,498,376
482,479,494,489,403
487,482,490,483,460
482,468,487,482,525
487,456,488,488,606
487,484,493,492,641
488,501,495,494,637
489,521,495,501,600
490,539,497,500,504
498,528,502,495,418
502,479,495,487,376
502,492,498,488,361
482,462,490,491,368
479,480,486,493,383
489,495,490,495,431
486,492,490,493,492
486,496,491,489,562
491,480,491,489,629
491,469,489,489,639
488,481,491,492,627
494,497,490,493,564
500,499,500,493,454
497,482,490,494,398
493,499,492,498,369
508,502,491,497,368
513,511,496,500,381
504,550,498,504,409
479,569,489,492,456
473,506,486,490,517
483,422,485,483,596
486,412,495,485,634
487,457,486,487,636
486,487,492,492,606
487,493,494,494,512
490,499,493,495,426
490,508,499,498,387
485,507,509,501,369
486,523,502,499,373
492,499,481,491,378
495,476,487,486,421
493,482,479,486,481
493,481,489,490,552
493,499,495,494,622
490,472,486,493,640
482,471,486,489,629
484,472,490,492,575
489,504,494,494,467
490,524,496,493,405
490,520,497,497,369
488,508,493,496,363
489,463,490,495,371
488,491,491,495,395
491,508,493,492,452
502,514,498,496,515
501,492,487,493,591
488,490,490,490,638
489,494,485,483,635
509,443,491,488,620
512,462,494,493,524
487,481,497,491,429
476,491,483,491,385
479,486,485,490,360
479,487,495,491,368
487,500,495,491,376
487,496,491,494,416
483,496,492,498,477
485,506,492,496,543
488,492,484,490,619
487,494,485,494,642
487,507,490,494,635
488,484,489,494,587
489,477,487,490,478
488,488,495,488,407
491,483,494,488,371
489,487,495,490,362
489,501,493,492,373
491,513,488,492,389
493,494,489,490,439
491,470,489,494,503
490,491,492,498,577
488,489,489,497,638
491,498,494,499,641
489,489,493,496,628
491,500,496,494,544
495,536,495,494,443
487,566,501,491,397
491,517,500,485,361
490,460,488,483,362
486,428,488,487,372
492,469,492,492,406
492,485,491,494,465
492,479,491,490,535
498,521,496,493,611
494,488,491,491,639
486,472,483,487,633
484,487,488,490,594
497,499,494,494,493
495,482,490,496,412
487,492,489,494,376
486,514,490,495,364
497,497,489,496,369
497,482,493,495,383
477,484,495,493,434
479,504,498,492,497
487,522,496,494,567
491,485,492,489,633
501,443,487,486,638
504,465,490,493,628
492,501,478,497,557
494,525,489,506,454
507,537,503,509,407
509,544,513,504,370
481,466,493,481,362
468,470,483,482,374
493,486,481,486,402
491,484,483,488,457
490,470,491,488,523
498,474,484,487,603
485,477,482,493,637
474,484,493,493,637
487,491,491,495,600
487,491,493,492,504
485,479,494,491,418
488,492,492,492,380
490,478,492,493,364
490,488,489,494,368
490,494,490,492,381
485,503,494,494,428
492,511,493,492,491
504,524,497,495,557
501,486,495,497,626
479,478,488,492,639
476,475,484,490,629
489,475,493,488,568
488,497,492,488,458
487,508,492,488,401
488,504,493,492,365
488,513,495,496,364
489,512,496,497,374
489,496,492,494,397
489,494,491,498,453
489,491,489,494,518
490,503,488,492,594
485,429,483,487,636
487,449,488,488,638
491,489,490,490,616
490,508,491,492,520
489,498,491,490,426
488,486,492,491,382
491,470,490,488,364
489,484,494,487,365
489,506,490,490,376
488,498,491,493,418
488,510,493,493,481
489,520,497,492,548
489,512,491,499,624
494,490,483,496,641
498,457,483,496,630
494,479,485,495,584
490,504,504,496,474
487,525,499,496,411
488,547,501,494,370
487,469,484,487,362
488,459,486,491,372
490,464,489,496,392
493,478,489,489,443
490,489,494,489,509
486,518,497,492,584
485,490,493,493,633
489,446,496,494,638
487,476,493,492,626
495,509,492,496,534
495,498,492,495,437
498,494,487,492,391
501,489,491,489,367
500,491,490,491,367
490,486,493,492,375
474,498,494,492,413
481,499,490,492,471
487,496,491,492,537
485,501,488,495,615
485,489,488,491,642
489,462,489,491,633
491,480,490,493,592
495,487,495,492,487
508,492,491,490,412
504,492,487,495,372
478,493,479,493,361
473,491,489,495,372
493,508,503,495,389
497,502,490,491,436
492,473,491,487,497
486,483,497,492,574
488,482,493,495,636
489,496,491,497,639
485,475,485,496,630
488,478,485,493,547
484,489,488,491,445
488,497,491,490,396
491,489,491,487,364
491,507,498,491,366
490,512,493,493,375
489,532,494,496,405
490,514,488,492,464
487,469,487,493,527
485,493,489,490,610
485,492,491,493,642
488,496,491,492,636
489,497,493,489,599
490,501,492,493,498
489,463,489,493,413
488,459,488,490,376
490,466,486,489,361
490,476,488,493,368
488,492,491,497,382
488,517,490,498,435
488,519,490,495,495
487,492,488,493,566
490,501,495,485,630
493,477,495,483,638
490,468,489,489,628
485,464,488,489,557
491,487,494,491,453
490,522,490,492,399
489,505,496,494,365
490,520,497,498,367
491,511,491,496,374
488,462,486,492,398
488,479,484,490,456
485,473,485,488,520
491,483,488,485,600
490,481,491,489,639
488,488,491,492,635
487,489,492,493,605
487,486,491,494,511
494,496,489,491,421
495,496,490,496,383
487,491,487,494,365
485,499,486,492,370
489,500,489,494,378
490,493,491,491,425
489,496,492,493,485
488,511,495,493,552
486,498,494,491,623
489,488,493,488,642
498,489,494,491,632
497,486,491,493,572
486,477,487,493,464
483,495,485,494,403
487,497,491,490,368
486,488,486,491,363
488,484,488,490,371
491,473,491,488,393
491,479,491,491,448
494,490,493,493,511
490,494,489,490,591
488,490,493,492,639
493,503,496,495,642
509,517,496,496,623
504,524,493,496,527
484,482,484,492,427
472,478,484,491,386
486,480,494,491,364
493,490,493,491,366
487,497,490,494,376
484,488,480,491,415
487,476,490,491,474
490,484,496,491,544
490,477,490,489,620
485,481,489,490,641
488,486,489,490,633
487,488,492,491,584
490,486,490,493,476
489,485,492,491,408
489,491,491,494,369
491,498,489,494,363
489,505,489,494,372
487,509,486,493,388
481,493,486,490,441
484,466,495,491,505
491,499,495,495,581
491,511,497,495,636
487,513,488,492,640
488,480,487,491,624
491,500,490,489,537
489,491,492,489,438
490,468,492,489,390
486,482,487,491,362
488,489,488,491,366
490,497,491,491,375
488,494,490,492,407
490,484,489,492,466
489,488,490,492,532
488,498,490,493,615
488,487,489,492,641
489,485,488,491,636
490,485,492,491,594
492,487,491,491,490
493,490,491,493,412
489,485,489,490,375
488,491,491,491,363
489,498,491,493,369
488,495,491,495,384
487,490,487,494,433
487,475,485,492,496
488,489,486,493,569
487,494,490,494,632
488,500,491,496,643
491,496,491,492,630
491,489,490,486,550
490,480,494,487,448
490,489,492,487,394
489,496,492,489,362
487,498,491,491,364
486,496,489,492,373
486,488,491,491,398
489,479,490,488,459
489,484,489,491,521
489,489,489,490,605
491,489,490,491,639
490,493,490,492,634
490,501,491,492,600
489,498,491,495,504
490,495,492,494,418
488,493,492,493,380
488,481,492,493,364
489,484,490,491,369
489,491,491,494,380
490,496,488,492,426
488,485,489,493,487
489,485,489,491,557
489,489,488,491,626
488,493,491,491,641
490,491,493,493,631
489,490,490,492,565
489,490,493,493,459
489,490,492,491,401
489,491,490,490,368
488,492,491,494,365
491,493,488,493,373
489,485,488,494,395
489,490,490,493,453
489,492,491,492,514
489,497,490,491,598
490,490,490,490,640
490,475,485,490,636
489,484,487,489,613
487,497,488,491,517
490,498,491,491,425
489,499,490,492,384
487,493,490,492,362
488,480,491,489,367
487,489,493,493,377
487,491,493,492,419
488,489,492,493,478
488,485,491,494,549
489,491,492,494,620
488,490,492,492,641
490,491,490,493,633
490,492,489,493,578
491,494,491,492,472
489,495,491,492,406
490,490,487,490,367
487,487,488,493,364
488,493,489,492,374
488,492,491,491,390
488,483,489,491,446
488,490,490,492,508
488,488,490,491,585
490,488,490,492,636
489,489,492,493,637
488,490,491,493,620
489,497,491,489,531
489,495,493,490,433
491,490,496,489,389
490,490,499,488,366
492,491,495,488,366
494,488,497,490,374
491,488,496,489,410
492,489,497,490,469
490,488,494,495,537
488,491,490,496,615
487,493,487,494,640
488,490,484,493,635
487,493,486,495,586
486,493,486,493,483
487,491,490,492,412
488,491,489,492,373
490,490,491,491,365
488,489,490,493,372
490,491,491,492,387
487,490,495,491,438
488,491,497,491,501
489,492,500,491,575
489,494,504,492,632
489,493,499,491,639
489,492,496,495,626
492,492,498,495,543
492,493,500,494,444
492,491,494,493,394
490,492,493,494,364
489,491,487,491,367
490,491,483,492,376
487,492,483,491,407
486,490,478,491,464
486,489,483,492,527
488,489,485,491,610
486,489,487,492,639
488,489,488,494,634
487,489,488,494,595
488,491,489,492,496
490,493,491,493,416
488,491,490,493,377
489,492,491,492,365
490,493,488,491,372
490,491,489,490,385
491,492,489,489,431
488,492,490,490,493
489,492,490,490,564
488,494,491,493,628
487,494,490,493,639
489,489,491,490,628
489,484,489,493,554
490,493,492,492,451
491,491,491,490,397
490,487,492,490,367
491,487,492,491,364
489,489,494,490,374
488,494,495,493,398
486,497,496,490,458
488,496,496,492,519
489,495,494,493,602
488,493,483,493,639
489,485,483,495,635
490,488,486,496,603
488,490,488,494,508
489,495,491,493,421
490,493,494,493,383
490,491,493,493,364
488,493,494,492,370
488,493,498,492,381
491,492,495,492,426
489,493,497,493,487
489,493,497,491,556
492,495,497,494,624
490,494,493,493,641
491,494,491,491,632
490,492,489,495,569
490,492,487,494,464
490,493,486,493,404
490,493,490,492,369
486,493,498,492,365
487,493,503,491,375
489,493,504,491,399
490,492,494,492,451
490,494,494,492,512
490,493,493,493,592
491,494,488,491,637
490,493,499,493,637
490,493,510,493,616
490,494,508,493,524
492,494,483,492,428
491,492,482,492,389
491,492,490,494,364
490,494,490,492,368
490,493,484,492,377
489,490,477,492,416
487,492,485,491,477
487,492,486,491,546
489,492,492,493,619
486,492,492,492,642
489,493,491,491,633
491,493,489,494,580
489,493,487,493,476
489,493,487,493,408
490,494,489,493,369
491,494,499,494,365
489,495,500,494,374
493,495,509,494,392
492,492,509,492,445
494,495,511,492,506
493,495,511,491,583
494,496,501,491,636
495,494,473,492,636
492,494,476,492,622
493,491,482,492,536
490,492,481,493,435
489,493,490,492,391
489,493,495,494,366
489,493,490,492,366
490,495,495,492,378
488,492,496,492,411
489,494,498,491,469
488,493,495,492,535
490,492,482,491,612
487,491,477,492,639
489,491,479,491,634
491,492,486,494,588
489,493,490,493,488
490,494,488,493,414
490,493,488,492,373
489,495,490,492,363
487,493,489,491,371
490,492,490,491,386
489,491,489,492,435
488,492,491,491,498
489,493,492,491,570
490,493,494,494,632
491,496,499,492,640
490,495,501,491,628
490,496,502,492,550
491,495,496,493,445
491,496,483,492,395
492,495,484,493,365
489,493,484,493,363
491,492,488,493,374
490,492,491,494,403
490,495,493,491,462
490,493,499,493,527
490,493,496,491,607
488,494,484,491,640
488,494,495,491,636
490,496,497,494,597
489,495,491,492,501
490,494,491,492,418
491,494,484,492,377
490,494,488,493,363
489,495,493,494,370
489,496,486,493,383
491,494,485,492,430
488,493,489,492,491
488,492,490,491,561
489,493,489,491,629
490,494,488,493,639
491,498,489,491,630
489,495,490,494,564
491,496,494,493,455
490,495,494,493,400
489,493,491,492,367
488,492,494,492,364
488,492,494,491,374
490,493,492,494,398
491,493,494,491,455
491,494,495,491,516
490,494,488,492,597
490,496,492,491,637
489,496,497,492,636
492,494,495,492,609
489,497,493,493,514
490,496,492,493,424
490,495,491,491,386
492,492,485,494,364
492,496,487,492,370
490,496,490,492,377
492,493,488,493,421
490,493,489,492,482
489,492,490,491,550
491,494,495,493,623
489,494,494,493,640
491,497,496,491,631
492,498,498,492,578
493,498,496,494,470
491,497,492,493,404
490,496,483,492,370
489,498,486,493,363
488,493,490,493,372
487,491,490,495,395
488,493,487,492,447
490,494,491,492,509
489,492,491,494,590
490,494,495,491,637
491,494,499,493,637
491,494,494,494,619
491,494,489,492,530
491,497,487,494,432
492,496,490,493,391
490,496,494,494,366
489,496,493,492,370
490,497,493,492,380
489,495,491,495,416
490,494,488,493,474
489,492,486,492,541
490,493,485,492,617
490,493,491,493,640
489,494,494,492,634
492,495,496,494,585
493,494,493,493,481
492,496,489,493,411
493,496,491,492,375
493,496,491,492,364
490,493,493,492,371
489,494,490,493,392
488,493,488,493,440
489,494,491,492,503
488,494,494,494,577
488,494,495,495,635
492,495,493,493,640
491,497,495,495,625
491,495,492,492,542
492,497,491,493,443
490,497,492,494,396
491,495,493,494,368
488,495,490,495,367
490,496,490,492,376
489,493,492,494,409
489,494,492,494,467
490,494,491,493,532
491,493,489,492,614
491,497,491,495,642
492,496,488,493,634
496,494,492,493,594
495,496,496,495,495
494,497,498,494,417
493,496,497,495,379
492,497,488,495,365
489,496,488,493,372
488,496,490,494,386
489,496,492,493,435
489,495,489,493,495
488,495,493,492,567
487,493,494,494,632
489,495,490,493,639
489,495,491,494,628
489,495,490,494,557
491,497,492,494,451
490,495,493,492,400
491,496,498,493,367
490,498,496,492,367
491,497,494,492,376
491,494,489,495,400
491,497,489,493,459
488,495,484,493,522
488,494,485,493,601
488,492,484,494,639
488,493,489,493,636
491,493,488,495,604
489,497,497,493,508
490,497,495,493,420
490,497,496,492,384
491,498,496,492,366
492,496,489,493,370
490,496,495,492,379
490,494,493,492,428
490,494,487,492,485
490,495,490,493,555
489,494,492,495,626
489,494,492,493,639
490,497,494,492,630
489,494,491,492,570
491,497,492,493,462
490,497,492,492,403
491,495,490,493,368
490,496,492,494,364
489,497,493,492,376
489,495,493,495,398
489,495,494,493,452
489,494,492,493,515
490,494,486,494,597
490,497,491,494,640
489,495,490,493,640
491,495,490,493,617
492,495,491,494,523
491,495,491,493,431
490,495,492,492,388
489,495,492,496,368
491,495,490,492,370
490,497,492,492,379
490,497,493,492,421
491,496,491,493,479
490,494,491,493,548
490,495,493,493,624
491,494,492,494,642
489,495,494,495,634
489,495,495,496,583
493,496,490,493,474
491,497,492,493,408
490,495,492,492,371
490,498,491,492,364
491,496,491,492,371
492,496,492,494,392
489,495,491,493,444
489,495,492,493,507
490,494,490,494,583
488,494,492,495,638
488,496,492,493,641
490,496,491,494,623
491,495,491,493,536
491,496,491,494,437
493,497,491,493,391
492,496,494,493,365
491,495,492,494,365
491,496,491,491,375
488,494,492,493,412
491,495,491,493,471
489,495,492,493,539
489,496,492,492,618
490,497,493,494,644
489,495,493,493,636
490,496,494,494,591
493,496,489,494,486
492,497,490,494,412
490,495,491,495,376
492,497,491,494,363
489,496,493,494,369
491,495,495,491,389
490,497,492,491,437
490,496,492,492,499
490,494,490,492,573
489,495,492,494,634
491,495,491,493,642
491,496,491,494,627
490,493,492,495,546
490,495,492,494,447
491,496,492,493,395
492,497,494,493,366
491,495,492,494,367
491,496,490,492,374
491,496,489,493,405
491,496,491,493,463
490,495,490,492,527
490,494,490,492,611
490,494,492,494,642
489,496,493,493,637
490,497,493,494,600
490,495,492,494,499
490,497,493,493,416
490,495,492,493,378
492,496,490,492,363
491,494,492,494,368
490,494,492,494,381
490,494,490,492,431
490,495,491,493,491
490,495,491,492,564
490,496,492,493,631
490,496,492,492,643
491,496,491,493,631
490,495,493,493,562
492,496,493,495,456
491,496,492,493,400
491,496,491,494,365
491,495,492,495,365
490,496,490,493,374
490,496,494,494,399
491,495,492,493,458
490,496,492,493,520
491,496,492,492,603
491,497,492,494,641
490,495,491,494,636
491,497,494,493,611
491,495,491,495,513
491,496,492,494,423
490,496,493,495,384
490,496,493,496,364
492,495,491,492,370
491,497,493,495,379
490,497,491,492,424
491,496,491,492,484
490,495,492,494,553
491,494,493,494,626
491,496,492,495,644
491,497,491,495,633
490,496,494,495,575
491,498,495,495,467
491,497,495,494,405
491,495,493,492,369
491,493,493,495,365
492,496,489,494,373
492,496,490,493,395
492,495,491,493,449
490,495,491,493,512
490,495,492,492,593
492,496,492,495,640
490,496,492,493,640
491,496,493,492,620
490,497,495,494,528
492,497,493,494,430
491,497,493,493,389
490,496,494,492,367
493,495,491,494,367
491,495,492,494,378
489,494,492,492,419
492,496,492,494,476
490,495,492,493,545
490,495,493,493,621
490,496,492,492,643
492,496,491,492,634
489,495,492,496,585
493,497,491,494,479
490,496,491,494,410
491,495,492,495,371
490,494,492,495,365
490,496,490,493,374
493,496,490,493,393
491,494,489,495,445
491,496,489,494,506
491,494,494,493,581
492,498,495,494,636
492,496,493,494,642
493,497,493,495,624
492,499,494,494,541
491,496,493,494,440
492,496,493,494,393
490,496,494,496,367
492,495,491,494,369
491,497,493,495,376
489,494,491,492,412
491,496,491,493,469
490,495,492,492,533
491,495,494,494,615
490,495,492,495,641
491,497,492,493,635
490,496,493,496,593
490,496,494,495,492
491,496,493,495,416
491,495,491,492,379
491,497,491,494,364
489,495,491,493,373
492,495,491,493,386
492,494,490,493,435
490,494,491,493,497
490,495,491,493,568
489,494,493,493,635
492,495,492,494,642
491,496,492,492,630
491,498,494,493,554
492,497,493,495,449
492,496,492,492,397
490,495,494,495,367
494,494,492,494,365
491,495,493,495,374
491,495,493,496,406
492,496,492,494,461
491,495,492,493,525
491,495,493,494,609
490,495,492,492,643
491,496,491,492,636
492,494,493,496,602
493,496,492,493,504
491,496,493,494,419
492,493,493,494,380
491,493,490,495,364
489,496,492,494,370
489,495,491,493,383
493,495,493,493,428
491,494,492,493,492
491,496,491,493,561
492,496,490,492,629
493,495,491,494,644
491,496,493,495,630
491,495,494,493,568
493,496,494,495,460
491,496,492,494,402
491,495,494,493,368
489,494,491,494,365
492,497,492,492,372
490,495,492,491,401
493,495,491,493,455
492,495,492,493,516
491,494,491,493,599
490,496,491,495,638
491,496,491,493,638
489,495,494,495,613
491,496,495,495,519
493,497,494,495,426
492,496,494,494,385
491,495,492,492,367
492,497,493,495,369
490,495,491,494,381
493,494,491,493,421
491,495,491,492,480
491,495,492,493,552
490,494,492,495,625
491,496,491,494,643
490,495,493,492,634
491,496,494,493,579
491,497,494,494,470
492,496,493,492,407
491,495,493,495,367
493,495,491,493,365
492,493,491,493,372
491,494,491,494,392
491,496,492,492,448
491,494,492,493,510
492,495,493,494,589
490,496,494,493,640
492,496,492,493,640
493,497,491,493,624
494,496,495,495,532
493,496,492,494,433
491,496,493,494,390
490,494,491,494,365
490,495,491,494,368
490,495,492,493,378
492,494,492,493,415
490,494,494,492,474
489,494,493,492,542
491,496,491,492,619
492,496,491,492,641
490,495,493,494,634
492,494,491,492,590
492,497,493,495,483
492,495,493,494,412
491,495,492,494,373
490,495,491,493,364
492,496,493,493,374
490,494,492,494,392
492,496,491,493,441
491,494,491,493,501
491,494,490,492,573
491,494,491,493,636
491,496,492,494,639
490,496,491,492,626
489,494,494,494,545
491,495,493,493,443
491,495,492,492,394
490,494,492,495,369
491,495,491,494,366
490,495,491,494,376
491,494,491,494,406
491,494,491,493,465
491,495,493,493,531
491,493,492,495,610
492,496,490,492,642
490,495,492,493,636
490,495,492,494,596
490,496,493,494,496
492,495,493,494,417
491,495,491,494,375
490,497,495,492,365
491,495,491,492,372
493,494,492,491,385
493,496,490,492,431
490,494,491,494,495
491,495,490,492,564
489,495,490,493,629
490,493,492,494,639
490,494,492,494,627
489,494,491,492,559
492,495,492,494,453
491,495,492,492,398
490,496,493,493,368
491,496,492,492,367
493,496,492,492,373
490,494,494,493,402
492,494,492,493,457
490,494,491,493,520
490,493,491,494,601
491,494,491,494,638
490,495,491,493,636
490,496,494,494,605
493,496,491,493,509
492,496,494,494,422
490,495,492,493,384
491,496,493,491,365
491,496,493,494,369
490,495,491,493,381
490,494,493,494,426
492,494,492,492,486
491,494,490,493,553
492,494,490,493,626
490,496,493,494,640
490,494,490,491,631
493,494,492,495,570
490,495,493,495,464
491,495,492,493,404
491,495,491,493,368
490,495,493,492,365
490,494,491,491,375
492,495,490,492,399
493,494,491,493,452
492,494,490,493,512
490,495,491,493,591
490,495,491,491,638
489,494,492,493,636
489,494,493,493,616
490,494,493,493,523
491,495,492,493,428
491,494,492,492,390
491,495,490,493,363
490,495,491,492,370
491,494,490,492,380
492,493,490,492,417
491,494,492,492,478
490,493,490,493,546
491,495,490,494,618
489,494,493,494,641
490,494,493,493,632
491,495,494,493,580
492,494,493,493,476
491,495,490,494,407
491,495,491,492,373
491,496,490,492,366
492,493,489,492,373
490,495,491,492,392
490,493,492,492,444
490,494,492,492,504
490,493,492,494,579
489,492,492,494,634
490,494,492,492,637
490,493,491,493,621
490,496,493,492,532
491,495,492,492,436
491,495,492,492,393
492,494,491,491,368
492,494,490,492,368
490,495,491,494,377
491,496,490,491,412
489,493,491,492,469
490,492,492,493,536
489,493,493,493,612
492,494,490,493,641
491,495,492,494,631
490,494,492,491,591
493,496,493,493,489
492,496,492,492,414
491,495,492,492,375
489,494,490,493,364
491,495,491,491,370
489,494,492,494,386
489,493,493,493,438
490,493,490,492,497
490,493,491,492,569
491,493,493,493,632
491,493,491,493,635
492,495,491,491,626
491,496,491,492,549
492,495,492,492,447
491,494,492,492,397
491,493,490,493,367
490,495,491,493,366
489,493,491,493,377
490,493,491,494,405
490,493,490,492,463
490,493,492,493,526
491,492,491,493,607
491,495,492,492,639
491,494,491,492,633
492,494,490,491,596
490,495,493,493,500
492,495,493,492,418
491,494,491,493,379
490,493,491,495,366
489,493,492,493,373
490,494,492,492,385
492,493,490,493,432
490,493,492,492,490
490,493,491,492,561
491,495,491,492,629
492,493,490,493,637
492,493,493,492,627
491,493,491,494,560
492,496,492,493,454
491,495,491,494,401
490,493,493,494,369
490,493,492,493,366
492,493,490,492,378
491,494,490,494,400
490,495,491,492,457
491,495,491,492,519
491,494,490,492,598
492,493,493,493,637
491,493,491,493,636
492,495,491,494,605
491,493,493,495,514
491,495,492,493,425
491,494,492,493,387
491,495,491,493,366
491,495,491,491,373
490,494,492,493,383
493,494,491,492,424
491,493,490,492,484
491,494,490,493,550
491,495,490,495,620
490,494,489,493,639
492,496,492,493,630
491,496,496,493,576
492,496,494,493,469
492,495,493,494,405
492,495,492,492,370
490,493,493,493,366
491,492,491,494,375
490,493,491,495,397
490,492,492,491,450
491,495,492,493,510
490,493,491,492,588
490,494,493,492,635
490,495,491,492,635
492,495,491,491,619
492,496,492,492,525
491,495,492,493,432
491,494,492,492,391
490,493,491,493,366
490,493,492,495,371
490,493,492,494,381
489,495,491,493,417
490,494,493,493,476
491,493,490,493,541
491,495,491,492,617
492,494,491,492,638
492,494,491,492,629
491,495,491,494,582
491,496,492,492,480
491,495,492,493,410
491,494,493,494,375
489,493,493,493,368
491,493,492,493,376
491,495,492,494,392
490,493,491,492,443
491,494,492,493,504
491,493,491,493,575
492,493,490,493,631
491,495,492,492,636
490,494,493,494,623
494,496,492,494,539
492,496,494,494,441
492,495,493,493,397
491,496,493,493,367
491,493,491,492,371
492,494,492,493,380
492,493,490,492,409
491,493,491,493,469
491,493,490,493,530
491,495,491,491,609
490,493,493,492,638
492,493,493,492,632
491,495,493,492,592
491,496,492,493,494
492,495,492,493,414
491,494,492,493,379
490,494,494,492,365
491,493,492,494,372
490,493,492,494,386
490,493,492,494,436
490,493,491,492,496
491,494,492,492,567
491,492,491,494,626
492,495,492,491,637
492,494,491,493,625
493,494,491,494,552
492,496,494,493,451
492,494,492,492,400
492,495,492,494,367
490,493,493,494,370
491,495,492,493,379
491,495,490,493,402
490,495,491,493,462
491,493,491,493,522
492,494,491,491,602
493,493,491,493,636
491,492,491,494,632
492,495,491,494,598
490,493,491,492,506
492,494,493,493,419
491,494,494,492,384
491,494,494,493,368
492,495,491,491,373
490,493,493,493,384
493,494,491,493,428
491,493,490,492,488
491,493,492,493,554
490,492,491,494,623
491,493,491,492,637
492,494,493,493,628
491,493,491,493,567
492,496,493,493,461
492,494,493,492,405
492,494,491,492,369
490,493,493,493,367
491,493,493,492,378
492,492,492,495,398
490,492,493,493,454
491,493,491,493,515
490,493,490,492,591
490,494,493,492,635
491,493,492,492,634
493,494,490,492,612
493,494,492,493,519
493,495,492,493,429
492,494,492,492,389
491,493,491,494,367
492,494,490,492,372
490,494,493,492,383
490,494,493,492,423
491,494,492,492,479
491,493,491,493,548
492,494,492,495,618
490,493,491,493,637
492,492,492,494,627
491,492,492,495,577
492,495,492,493,474
491,494,493,494,410
492,493,491,492,373
491,494,493,491,368
492,495,491,492,377
492,494,491,494,395
490,494,491,492,446
492,493,492,493,508
491,493,491,493,581
490,492,492,495,633
490,493,493,494,636
491,494,493,492,617
493,493,491,493,532
492,495,492,493,435
492,495,492,492,392
492,494,491,492,370
491,493,491,493,370
492,495,492,492,381
491,492,492,495,417
492,494,491,493,472
491,493,492,493,537
491,493,493,493,614
491,494,492,493,636
490,493,491,492,631
492,493,493,495,586
494,494,491,493,484
492,494,493,492,414
492,493,491,493,376
492,496,492,491,366
490,493,493,492,376
492,493,492,492,391
491,495,493,492,440
490,493,492,493,501
491,493,491,491,572
492,493,492,494,630
492,492,490,493,637
492,495,492,493,621
491,493,492,495,543
491,494,492,494,446
492,494,492,492,396
492,493,494,493,369
491,493,491,494,369
493,496,492,492,379
492,494,491,492,409
492,493,491,492,466
491,493,491,492,526
491,492,491,492,609
491,495,492,493,637
491,494,493,493,631
491,494,494,495,595
491,495,492,494,496
493,495,493,493,417
492,493,492,494,381
492,495,491,491,366
493,493,491,493,373
492,493,492,493,385
492,492,491,492,433
491,494,492,493,494
490,494,490,492,562
490,492,493,494,626
491,494,493,492,637
491,494,491,491,626
490,492,493,495,557
493,494,493,494,454
492,494,492,492,399
492,493,492,493,367
491,493,492,494,368
490,492,491,492,378
493,493,494,493,404
492,493,491,493,459
491,493,492,492,520
491,494,491,492,600
493,494,491,493,637
492,494,493,494,631
492,493,492,492,607
494,493,493,495,509
493,494,493,494,422
492,493,494,493,386
491,494,494,493,369
493,493,492,494,374
493,494,491,494,383
491,493,490,492,427
493,494,491,492,484
491,493,491,493,552
492,492,493,492,623
491,493,492,494,637
493,493,490,492,628
492,493,494,493,570
492,494,495,493,466
492,494,492,492,405
492,494,491,492,371
493,495,492,494,369
492,493,490,492,374
492,492,490,493,397
491,492,491,493,451
491,494,491,492,513
491,493,493,493,590
492,492,490,492,637
491,494,492,491,634
493,495,491,491,617
494,495,491,493,524
493,495,494,493,430
491,494,492,493,389
492,495,493,492,365
491,493,493,494,370
490,493,493,493,382
491,493,493,493,417
492,493,491,492,477
491,494,491,493,543
490,494,490,491,617
493,493,491,492,637
492,492,491,494,628
492,495,494,491,583
492,494,493,494,478
493,495,493,494,410
492,494,493,493,373
490,494,494,492,368
492,494,492,494,374
491,493,491,491,396
493,493,493,493,445
492,493,491,492,504
492,493,491,493,576
491,492,491,494,632
490,493,492,494,635
492,493,490,493,621
491,493,491,493,535
492,495,493,493,438
492,494,492,492,394
492,494,491,491,370
492,494,493,493,369
492,493,491,493,381
491,495,492,494,410
490,493,492,493,468
492,493,492,494,534
491,493,492,492,611
493,493,492,492,639
492,493,493,494,631
493,495,491,492,589
494,495,492,493,490
493,495,493,493,415
491,495,492,492,375
491,492,491,492,368
492,494,493,493,374
491,494,493,493,388
490,494,493,492,437
491,493,492,493,497
491,493,492,494,566
492,495,491,492,629
491,493,492,493,635
492,492,491,494,623
491,493,491,494,549
492,494,493,492,449
492,495,492,493,398
490,493,490,492,370
491,494,493,491,370
492,495,492,492,378
492,494,491,491,407
490,493,492,492,462
491,493,491,493,524
491,494,491,494,603
491,492,492,493,636
490,493,493,493,632
490,494,491,492,598
493,495,494,493,502
493,494,492,493,420
492,493,491,492,383
493,494,491,492,367
492,492,491,493,373
492,492,490,492,386
492,495,492,494,429
490,494,492,493,491
491,493,491,492,557
490,493,494,493,626
491,495,493,492,638
490,493,492,494,626
493,496,492,495,562
492,494,493,493,458
492,495,493,493,402
492,493,492,494,369
492,492,491,492,369
492,493,493,494,377
492,493,490,492,403
490,494,492,492,455
490,493,492,492,517
491,494,491,492,595
490,492,492,492,636
492,492,493,493,635
491,492,491,494,607
492,493,492,494,515
492,494,492,493,426
491,493,492,493,388
493,494,490,492,368
490,494,492,494,371
491,492,491,492,384
492,495,491,492,424
492,493,491,492,483
491,493,492,492,549
491,492,491,493,618
492,494,491,492,638
491,493,493,494,628
491,494,495,494,575
491,494,494,494,469
493,494,492,493,406
492,495,493,495,370
491,495,491,492,367
493,493,491,493,374
492,492,491,494,396
492,495,492,492,449
491,493,492,493,511
492,493,491,493,587
490,493,493,493,634
491,494,492,492,635
491,495,492,491,619
492,495,492,494,527
492,494,492,493,432
491,493,493,493,390
492,493,490,492,366
492,492,492,494,369
490,492,492,494,381
493,495,490,494,415
490,493,491,492,475
491,493,492,492,540
491,495,492,492,616
491,495,491,492,638
493,493,492,493,629
492,492,490,493,585
491,495,493,493,480
492,494,492,493,410
491,493,493,494,374
490,492,494,493,367
492,493,493,491,375
491,492,492,494,390
492,495,491,492,442
492,494,491,492,501
492,492,491,493,573
492,492,491,493,633
492,494,491,494,634
490,493,491,492,623
493,494,493,494,540
491,495,494,494,440
491,494,494,492,396
491,492,491,493,366
491,495,492,492,369
490,493,493,492,378
492,493,490,492,407
491,493,491,493,467
491,493,490,492,531
492,495,491,494,607
490,494,491,493,639
491,494,492,492,632
491,495,493,492,593
491,495,493,493,495
492,494,492,493,416
492,494,491,493,378
490,493,490,492,365
491,492,491,493,371
490,493,492,494,384
489,492,492,494,434
490,494,491,492,496
490,493,492,493,563
491,492,490,492,630
493,495,491,492,637
492,494,491,493,625
493,495,491,494,556
492,495,492,493,452
492,495,493,493,400
491,493,492,494,367
490,494,493,494,368
490,494,493,493,378
492,492,490,493,405
491,495,492,493,459
491,493,491,492,522
491,494,490,491,602
492,494,491,492,636
491,492,493,492,634
493,492,492,494,599
492,495,492,492,506
492,493,492,492,420
492,493,492,493,383
491,493,494,494,367
490,494,492,494,371
491,493,491,491,384
492,492,494,494,428
492,493,491,492,486
491,493,491,493,552
491,492,490,494,621
491,493,491,492,636
490,494,493,493,627
492,493,493,493,568
491,495,492,492,462
492,494,493,492,404
491,494,492,495,368
491,494,491,492,366
491,494,493,492,375
491,492,491,494,397
490,492,492,493,451
491,493,491,494,515
491,492,490,492,592
490,493,491,494,635
491,494,491,492,635
493,494,490,492,614
493,495,491,493,520
493,494,493,493,429
492,494,493,492,387
491,492,491,491,368
492,495,492,494,370
490,493,492,493,380
490,493,493,493,420
490,493,491,491,479
491,494,492,492,545
490,491,491,495,620
492,493,491,492,637
492,493,491,493,627
492,492,491,493,581
492,494,492,493,473
492,495,492,492,409
492,493,493,493,372
490,493,494,492,366
491,495,492,491,375
491,492,491,494,393
493,494,490,492,444
490,492,491,492,507
492,492,490,493,579
492,492,491,493,632
490,493,493,495,635
490,493,491,493,621
494,494,494,493,534
492,494,492,494,437
492,495,493,492,393
492,495,492,491,369
492,494,491,492,370
491,493,492,492,378
492,492,493,491,414
491,492,490,493,470
491,493,491,493,535
490,493,493,494,612
489,493,491,493,638
492,494,491,491,629
490,492,492,492,589
493,495,492,492,487
492,494,492,491,413
492,493,491,492,376
491,494,490,492,363
490,495,491,491,373
490,492,492,494,388
490,493,493,492,438
491,493,492,492,500
490,493,492,491,568
490,492,491,491,632
492,494,492,493,637
491,492,491,493,623
493,492,491,494,545
491,493,493,493,447
491,494,492,492,398
491,493,493,493,367
494,492,491,491,370
492,495,492,491,378
492,495,491,491,407
492,493,492,493,463
491,493,491,492,525
491,494,493,492,607
491,492,492,494,638
490,493,493,494,632
491,494,494,494,597
493,494,492,493,499
492,494,493,493,417
491,493,493,492,382
493,495,491,492,366
493,493,490,492,371
492,493,491,493,383
492,494,493,492,432
491,493,491,492,491
491,494,491,494,560
490,492,492,494,626
491,494,492,492,638
492,494,493,494,625
491,492,492,491,562
493,494,492,494,455
492,494,490,492,401
493,493,490,492,367
493,493,492,494,366
493,494,491,491,376
491,493,492,491,402
492,493,492,493,458
491,493,491,492,519
491,494,491,491,598
492,494,492,494,638
491,493,491,493,633
491,494,493,492,605
493,493,492,494,514
493,494,492,493,423
492,493,492,493,386
490,493,493,491,367
493,492,493,492,371
491,492,492,493,381
492,495,491,492,425
492,494,491,492,482
491,494,492,492,550
490,493,493,493,621
492,492,491,491,640
491,494,493,494,629
490,493,493,494,572
491,494,493,493,467
491,494,492,492,406
491,495,492,491,370
491,492,492,494,367
492,493,490,492,375
492,493,490,492,396
492,492,491,493,451
490,493,490,493,511
490,493,490,491,590
491,493,493,493,637
491,494,492,491,637
492,494,492,491,618
491,495,493,492,528
491,493,492,493,432
492,494,492,493,389
491,494,491,493,366
492,492,492,494,368
490,493,492,493,379
490,491,490,492,417
492,493,492,493,475
490,493,491,493,543
491,494,492,491,619
492,494,491,492,639
492,494,491,494,633
491,495,494,493,584
493,494,494,493,479
491,494,492,494,410
492,493,492,495,371
491,493,492,493,365
490,492,491,493,373
491,494,492,492,389
491,492,491,492,443
491,494,492,493,505
492,494,491,492,577
492,494,490,492,633
491,492,492,492,638
491,492,491,494,622
491,495,492,492,538
491,493,491,493,439
491,493,492,493,393
490,494,494,493,366
493,492,491,490,368
492,495,492,494,377
490,494,491,491,410
492,493,490,492,468
491,493,491,492,530
491,493,492,492,613
491,492,492,494,640
492,494,491,494,634
492,494,493,494,593
492,495,493,493,492
492,495,493,493,414
491,492,490,492,378
493,493,493,493,365
492,492,491,493,371
491,492,491,493,384
491,492,491,494,434
490,492,491,493,498
492,494,491,493,567
490,493,491,492,631
491,494,492,492,641
492,494,491,491,627
492,495,492,491,554
492,493,493,494,450
491,494,492,492,397
491,494,493,494,366
491,492,491,494,366
490,493,493,494,375
490,493,493,492,404
493,492,492,492,461
490,493,492,492,523
491,493,491,491,607
492,494,491,492,640
492,493,491,493,634
491,494,493,493,601
492,492,491,492,506
492,495,492,493,420
491,493,492,493,382
491,493,493,493,365
491,495,492,492,371
492,492,492,494,381
493,495,491,491,427
490,493,492,492,489
492,493,491,492,556
491,492,491,493,625
491,493,492,492,641
492,493,492,494,630
491,494,491,493,566
492,494,493,493,461
492,494,493,492,403
492,494,492,492,368
490,492,493,495,367
492,494,490,493,374
490,494,490,493,398
491,492,491,493,454
492,493,491,492,514
491,493,491,492,597
492,492,492,493,639
492,493,490,493,637
492,494,493,492,615
491,495,493,492,520
492,495,493,492,427
491,494,491,493,387
490,493,490,492,365
492,494,492,492,370
490,492,492,494,379
490,492,491,493,419
490,493,492,493,480
490,492,491,493,549
491,494,492,493,619
491,493,491,492,642
492,493,490,492,631
493,493,491,492,579
493,494,493,494,473
491,494,491,493,406
492,495,491,491,369
490,492,492,494,366
491,494,493,493,374
491,494,493,492,393
491,492,491,492,447
491,494,491,492,507
490,493,491,492,586
492,493,490,492,636
492,493,490,493,636
491,492,492,494,620
492,495,490,492,532
491,494,491,492,434
492,494,492,493,392
490,493,493,493,367
491,495,492,491,369
492,495,492,493,378
490,494,489,491,414
490,493,493,493,473
491,493,491,492,538
491,491,490,493,614
491,492,492,494,641
492,493,491,493,634
491,494,490,492,586
492,495,493,492,485
490,494,492,492,413
492,494,491,491,375
493,492,492,494,365
492,492,491,493,372
491,494,492,493,386
490,491,491,494,438
491,492,490,493,500
490,493,492,492,572
489,493,490,493,633
491,494,491,491,639
490,492,493,494,627
493,495,490,492,545
493,494,492,492,444
492,494,491,493,395
491,494,493,493,365
491,493,490,491,368
492,493,492,493,377
490,493,493,493,407
490,494,492,492,464
490,493,491,493,527
492,493,490,491,608
490,492,492,493,640
492,493,490,494,633
491,491,490,493,595
491,493,492,492,499
491,494,491,493,417
491,494,490,492,379
490,493,493,493,365
491,494,491,491,372
492,495,491,491,385
492,495,491,491,431
490,492,492,492,493
491,493,491,492,562
490,491,490,494,628
490,493,492,494,639
490,494,493,493,628
490,493,491,493,559
492,495,493,493,453
492,494,492,492,400
492,494,491,492,369
493,494,490,492,364
492,493,490,492,375
490,494,490,493,399
491,494,491,492,457
490,492,491,494,519
490,493,492,494,600
490,493,493,492,639
491,492,491,494,637
492,494,491,494,603
491,492,491,492,510
492,495,492,493,422
492,493,490,492,383
493,493,490,492,364
491,495,491,492,371
491,492,491,493,382
492,495,490,493,425
490,493,492,493,486
491,493,491,491,553
491,494,491,494,622
490,492,490,492,640
492,494,492,492,630
491,492,490,494,570
492,493,492,493,465
492,494,491,493,404
492,494,491,492,368
490,492,492,492,364
492,492,492,492,375
492,494,491,491,399
493,494,490,492,450
491,494,491,493,511
490,492,490,492,591
490,494,493,492,636
490,493,492,494,636
490,493,493,494,616
490,493,493,494,525
492,494,493,493,430
492,493,493,493,390
492,492,491,493,364
491,494,491,492,370
492,493,490,492,379
492,493,490,492,417
490,493,492,493,479
491,492,490,492,545
492,494,492,495,619
490,493,492,494,642
491,494,492,492,632
491,495,491,494,582
491,495,492,493,478
492,493,491,493,409
491,493,491,492,372
493,493,490,493,364
490,492,491,493,374
491,494,491,495,391
489,492,490,492,444
492,493,491,492,505
490,493,492,492,582
491,494,491,492,636
493,495,491,492,638
490,494,494,493,623
494,494,491,493,537
492,495,492,493,437
491,493,492,493,393
490,493,492,495,365
490,493,491,492,367
491,494,492,491,379
492,492,490,494,412
491,493,491,493,471
491,493,490,492,535
492,493,490,491,613
490,492,493,493,641
490,492,491,491,633
492,493,492,494,589
489,492,493,493,489
491,493,492,493,413
490,493,491,492,375
490,494,493,491,363
490,492,491,491,371
492,493,491,491,388
493,493,490,491,435
492,493,490,491,496
491,492,492,492,569
490,491,490,493,629
492,494,490,491,638
489,493,493,493,626
489,493,494,493,549
491,494,493,493,445
491,493,491,492,396
491,494,491,493,363
490,494,491,491,366
492,493,490,492,375
491,492,490,491,403
491,494,492,491,461
491,493,490,492,525
491,494,490,494,604
490,492,492,493,639
490,493,492,493,635
491,494,492,492,598
492,493,493,492,502
491,493,491,492,417
491,494,491,491,380
493,495,491,491,365
492,493,490,492,370
492,492,490,492,383
489,494,493,493,428
491,493,492,492,489
490,492,491,493,558
489,491,491,493,626
490,493,491,493,639
490,492,490,493,628
491,493,493,492,561
491,493,491,492,457
491,494,492,492,402
491,494,490,491,369
493,495,490,493,365
490,494,490,492,373
491,494,492,490,400
490,492,491,493,454
490,492,491,493,516
490,492,491,493,596
492,493,491,493,640
491,494,492,494,634
491,492,491,491,612
492,496,493,493,517
493,495,492,493,425
492,494,491,492,385
492,493,493,494,365
492,492,491,493,370
491,494,491,494,378
490,491,491,494,422
490,492,491,493,481
491,493,491,491,550
491,493,492,494,622
489,492,491,493,639
491,495,491,491,631
492,494,492,491,578
493,495,491,492,469
491,494,491,493,406
491,493,490,492,368
490,493,491,493,363
490,492,492,493,372
489,492,491,494,394
490,493,490,492,448
491,492,491,492,510
492,492,489,492,588
490,494,493,492,637
491,493,491,491,638
492,494,490,491,620
493,494,491,494,528
491,494,491,492,432
492,493,492,491,390
491,492,491,494,365
490,492,492,494,368
490,493,492,493,379
492,493,490,491,417
490,493,492,492,475
491,493,492,492,542
491,494,492,492,619
492,494,490,491,641
492,494,493,493,631
490,492,490,493,584
491,495,494,493,479
492,494,492,493,410
491,493,491,494,372
490,492,490,494,366
492,494,490,494,373
491,493,490,492,390
493,494,492,491,441
490,493,491,492,503
491,493,491,491,577
492,494,490,491,634
490,493,493,493,638
492,493,490,491,625
491,495,491,494,539
492,493,491,493,441
492,493,491,493,394
491,493,491,491,367
493,493,493,492,368
492,492,490,493,377
491,495,492,491,409
491,494,491,492,467
491,493,491,492,528
490,493,492,492,611
492,493,492,492,640
492,493,492,494,631
490,492,492,495,592
491,493,492,494,494
493,495,492,493,416
491,493,493,493,377
493,494,489,492,364
490,494,493,492,372
491,494,492,492,387
492,495,490,491,433
491,494,491,493,494
490,493,490,492,565
490,493,492,493,630
491,492,491,493,637
490,491,491,494,626
491,492,491,494,556
492,495,492,494,451
491,493,490,491,398
492,494,493,493,367
489,494,493,491,367
492,494,491,491,376
492,492,491,494,400
492,493,490,492,459
490,493,491,491,521
491,492,490,493,601
491,491,490,494,638
490,492,492,491,634
492,494,493,495,603
490,493,491,493,507
491,494,493,491,419
490,494,492,492,384
492,495,492,491,366
492,494,490,492,369
489,494,493,493,383
493,493,493,492,428
491,493,491,493,487
490,492,491,493,556
490,492,491,494,624
491,493,490,493,640
491,494,493,492,630
491,493,491,492,570
493,496,493,493,464
492,494,492,493,404
492,493,491,493,368
490,493,492,493,365
491,495,492,491,375
490,493,492,494,398
489,493,493,493,453
491,493,491,492,515
492,493,490,493,596
491,494,493,494,638
491,493,491,492,636
492,493,491,493,615
493,493,491,493,521
492,494,492,492,428
492,494,492,492,389
490,492,491,495,368
493,494,490,492,370
490,494,493,493,381
491,494,493,492,421
491,494,491,492,479
491,493,492,492,548
492,493,492,493,620
493,492,491,493,639
491,493,493,495,631
491,492,492,495,580
494,496,493,493,473
492,494,493,492,408
492,493,492,491,371
491,495,493,491,366
492,494,491,492,374
492,493,493,493,392
490,492,490,492,445
491,492,491,492,506
491,493,491,493,581
490,491,491,494,636
490,493,492,493,637
491,494,493,493,621
493,493,494,492,534
492,494,491,493,434
491,495,492,492,392
492,494,491,492,368
493,493,491,493,367
491,494,492,491,377
491,492,491,491,414
492,494,492,492,471
491,493,492,493,538
490,492,493,493,615
490,493,491,493,640
490,494,491,492,633
490,493,493,494,588
494,493,492,492,486
492,494,492,492,413
492,492,492,493,375
492,495,492,494,364
490,494,491,493,372
493,494,492,491,389
490,495,493,492,439
491,493,492,493,500
491,493,490,491,572
490,493,492,494,634
492,493,491,492,639
492,495,492,494,624
491,493,492,495,546
492,494,492,494,446
493,494,492,493,395
493,494,494,494,367
494,492,491,493,368
492,495,492,491,377
492,494,491,491,408
492,493,491,492,463
491,493,491,492,527
491,492,492,491,610
491,492,491,493,639
491,493,493,494,634
489,493,493,495,597
490,494,491,492,498
491,494,493,493,417
491,492,492,491,380
492,496,492,491,364
493,494,490,493,371
492,492,490,492,383
493,492,493,491,432
490,492,491,492,493
491,494,490,491,561
490,493,493,494,629
490,495,493,493,642
492,495,490,491,626
491,493,492,492,561
493,495,493,494,454
493,495,492,492,398
492,493,491,493,365
492,492,491,494,364
490,494,491,491,374
490,493,493,494,401
493,492,491,492,457
490,493,492,492,518
490,494,492,492,602
491,494,492,494,638
491,493,491,492,635
492,494,493,493,607
493,492,491,493,510
492,494,492,493,421
491,493,492,493,383
491,492,491,495,363
492,493,490,493,369
490,494,491,493,378
492,495,492,491,424
492,494,492,492,485
491,493,491,492,552
493,493,493,493,623
493,493,491,493,643
492,494,491,494,628
490,492,493,495,572
490,494,493,493,466
492,494,492,492,402
492,493,493,492,368
491,492,491,494,363
493,494,490,492,370
492,493,490,492,395
492,492,491,493,448
490,493,491,491,510
491,492,491,491,592
492,494,492,494,637
491,494,493,492,638
491,494,493,492,619
491,495,493,492,526
493,494,492,493,428
492,495,492,492,387
491,493,493,492,364
492,492,491,493,366
491,492,491,494,378
490,491,491,490,417
492,494,492,493,477
491,492,491,492,544
491,494,492,492,620
490,494,492,492,643
492,493,491,492,634
490,494,493,494,584
494,494,492,493,478
492,494,492,492,407
492,493,492,493,368
491,492,492,494,363
490,493,491,492,371
493,494,493,492,392
492,492,492,493,443
491,494,491,492,504
491,493,491,492,580
492,494,490,492,636
492,493,491,492,640
492,495,493,494,625
491,496,492,492,540
492,494,492,494,438
492,493,493,493,392
491,494,494,493,365
493,493,491,493,366
492,495,492,494,376
491,492,490,492,408
493,493,491,492,468
492,493,491,492,533
491,492,492,492,615
491,492,492,494,642
492,493,490,492,635
491,494,493,494,592
490,494,494,493,491
491,494,492,493,413
493,493,491,492,375
492,495,491,494,362
490,493,489,492,369
493,493,490,492,383
492,491,490,493,434
491,492,490,493,498
491,493,491,491,568
490,492,492,492,635
492,492,492,491,642
491,495,493,491,630
492,495,492,492,555
493,494,492,493,447
492,494,492,492,395
492,494,493,492,363
493,492,491,494,361
490,493,492,494,374
490,492,492,494,403
493,493,490,492,459
490,492,491,492,524
490,494,492,491,608
492,495,492,492,643
492,493,491,493,637
493,494,493,493,602
493,493,492,493,504
492,494,493,493,417
493,493,492,494,378
491,492,492,495,363
490,494,493,493,370
492,493,490,492,380
493,494,493,492,430
491,492,490,492,490
492,493,490,491,560
493,493,490,492,630
493,491,491,493,644
492,495,492,493,630
491,492,492,492,569
494,493,492,493,458
492,494,493,493,400
491,493,493,493,367
491,492,491,494,363
492,495,491,492,373
491,492,493,491,399
493,492,491,492,454
492,493,492,492,518
491,491,491,491,602
492,494,491,493,642
491,492,490,494,640
492,494,491,492,617
492,495,493,492,520
493,495,494,494,427
493,495,492,493,386
492,493,493,491,366
493,492,492,492,371
492,493,492,493,379
491,492,492,495,422
491,492,492,494,483
492,494,491,492,552
490,493,494,493,628
493,492,491,491,648
493,494,491,491,637
493,495,492,492,585
493,494,492,493,473
492,494,492,491,408
492,493,493,492,372
493,492,491,493,364
491,492,492,493,374
490,492,492,495,396
493,493,490,492,449
490,493,492,493,513
491,491,491,492,592
491,494,491,491,642
492,493,490,492,642
492,492,490,493,625
493,494,493,492,534
492,494,492,493,437
492,494,491,493,391
491,493,493,494,366
491,493,493,492,371
491,494,493,493,378
491,492,491,491,415
492,492,492,494,473
491,493,491,492,538
492,492,490,492,614
492,492,492,493,639
492,494,491,491,629
490,494,493,492,585
494,493,493,493,478
492,494,492,492,406
491,494,492,492,370
490,494,490,493,359
491,495,490,491,367
490,493,493,493,385
493,492,490,492,434
492,493,491,492,496
491,492,491,493,568
490,491,491,491,629
493,493,492,493,633
490,491,491,493,618
491,495,493,492,536
492,495,492,492,435
491,494,492,492,388
491,493,493,494,359
493,493,491,492,361
492,494,491,494,368
491,492,491,494,398
489,492,492,493,458
490,492,490,492,523
492,493,492,491,604
490,491,492,494,636
493,494,491,492,628
493,493,491,492,588
493,493,492,493,489
491,494,492,492,408
492,493,492,492,372
492,491,491,494,358
490,493,492,492,366
490,494,492,492,380
490,494,492,492,428
491,492,490,492,489
490,493,491,494,560
490,491,489,491,627
492,492,490,493,633
491,491,493,494,623
491,492,493,491,554
493,493,492,493,447
492,493,492,492,394
491,494,493,492,363
490,494,492,491,364
492,494,491,492,372
490,492,492,491,399
493,492,492,493,456
490,492,490,492,518
491,492,491,493,598
490,491,492,494,637
490,492,490,492,633
490,494,493,492,601
491,492,492,492,506
492,494,491,492,417
492,494,491,492,380
492,494,490,492,363
492,492,492,492,369
491,492,492,493,378
491,494,491,492,423
491,492,491,493,484
491,493,492,492,553
490,493,492,493,623
492,492,491,491,640
492,494,493,494,628
490,493,491,491,568
494,493,492,492,460
492,494,491,493,401
491,494,492,491,368
491,492,491,494,365
492,493,490,493,374
491,493,492,493,396
490,494,492,492,449
490,492,491,493,512
490,492,490,491,593
492,492,493,493,638
492,491,491,493,634
491,492,491,494,612
492,493,492,494,520
491,493,491,493,428
492,493,490,492,386
490,493,489,492,365
491,494,491,491,369
492,494,491,491,379
492,494,491,491,419
492,493,491,493,478
492,493,490,492,547
490,493,492,494,619
491,493,492,493,640
491,494,493,493,632
491,494,494,493,580
493,493,493,492,473
492,494,492,494,406
492,494,491,492,370
493,494,490,492,364
491,492,491,492,372
491,494,492,492,390
491,492,491,492,446
491,494,491,493,507
491,492,491,493,582
490,493,493,493,637
491,494,492,492,639
491,492,492,494,622
492,495,492,491,533
491,493,492,492,435
492,493,491,492,390
492,493,491,492,366
490,492,492,491,371
492,494,492,493,378
489,494,490,492,413
490,493,492,492,472
491,493,492,492,538
491,494,492,491,618
490,491,492,493,642
491,493,490,492,635
491,494,490,493,589
492,492,491,493,486
492,494,492,493,412
490,493,491,492,377
493,492,493,492,366
491,492,491,493,375
491,494,491,491,391
492,495,490,491,438
492,494,492,492,500
492,492,490,492,573
490,493,490,493,632
490,494,492,492,641
490,493,492,494,626
490,493,494,494,548
491,495,493,493,445
492,493,491,493,396
492,495,493,494,365
490,493,490,491,369
493,494,490,492,376
492,492,489,492,405
491,492,492,493,465
490,493,491,492,527
491,493,490,491,609
489,492,492,492,642
491,494,493,491,635
491,494,493,492,597
491,492,491,491,500
491,495,492,492,415
491,493,491,492,378
493,492,489,491,364
491,492,491,493,369
490,492,492,493,383
492,494,490,491,430
490,493,492,492,493
491,492,492,492,563
491,494,492,491,629
491,494,492,492,640
492,493,493,493,629
490,494,490,492,559
491,494,493,493,453
492,493,492,493,397
491,493,492,494,364
490,492,492,493,367
492,492,489,492,375
491,494,490,493,399
490,493,491,492,458
491,493,490,491,518
492,493,490,491,600
492,492,492,493,640
492,492,490,493,635
492,494,491,494,606
490,492,492,494,512
491,493,492,492,421
491,493,492,492,384
490,493,490,492,366
491,494,491,491,371
490,492,492,493,383
493,493,489,492,424
491,493,490,492,484
491,493,491,493,553
491,494,491,493,622
490,493,491,492,640
492,494,493,492,632
491,494,493,492,574
491,495,492,492,466
491,494,491,493,404
492,494,491,491,366
490,492,493,493,366
492,492,491,493,374
491,492,491,493,395
490,492,492,492,451
491,494,491,493,511
491,493,491,492,590
490,493,493,493,639
491,494,491,492,637
492,494,490,492,620
493,495,491,493,526
491,493,492,492,429
492,494,493,492,389
491,492,490,493,365
490,492,491,493,369
490,493,493,493,380
489,493,490,492,416
491,493,492,492,476
491,492,491,492,545
491,494,490,491,619
492,493,490,491,639
491,492,490,492,632
491,494,490,493,581
492,495,492,492,479
491,493,491,493,408
491,493,492,493,371
489,493,493,493,367
491,491,491,494,375
492,494,491,494,390
