Sensor0,Sensor1,Sensor2,Sensor3,Sensor4

3,493,491,493,623
490,494,494,1,492
509,491,492,491,493
584,490,494,492,492
639,491,493,493,494
638,492,493,491,493
623,490,494,494,493
531,492,495,494,1
493,584,490,494,492
492,639,491,493,493
494,638,492,493,491
493,623,490,494,494
493,531,492,495,494
493,433,491,494,492
494,390,490,492,491
491,367,492,493,493
492,369,491,492,491
494,377,490,491,491
494,412,490,493,492
494,473,491,493,491
493,541,490,493,492
493,617,491,493,492
493,644,492,494,491
492,634,493,494,491
492,588,493,493,492
493,484,492,493,492
493,412,491,493,492
494,374,491,495,493
495,364,490,493,493
494,372,490,494,492
493,388,490,494,493
494,440,491,492,492
493,502,491,493,492
494,574,492,493,490
492,634,491,492,490
494,636,490,492,492
495,625,491,495,492
492,543,491,494,492
493,442,491,494,493
493,396,491,494,493
492,367,490,494,492
492,367,492,494,493
494,376,490,493,490
492,406,490,493,493
493,466,491,492,491
493,530,490,491,491
494,609,491,492,493
494,641,490,493,493
494,635,492,491,493
493,597,491,493,493
495,496,492,494,492
493,416,492,493,491
492,378,492,494,491
492,363,490,494,493
492,369,491,493,492
492,385,492,494,492
494,433,490,492,492
492,495,490,493,492
492,564,490,494,491
494,630,490,494,491
492,640,490,494,493
494,627,492,492,490
493,556,492,493,492
493,452,491,493,492
493,400,491,494,491
494,366,490,493,491
493,365,491,494,493
492,377,491,494,492
491,403,492,494,491
492,458,491,493,492
493,522,489,493,493
493,602,492,493,491
492,642,492,494,493
495,636,490,494,494
494,605,490,494,495
494,510,492,494,493
494,421,491,494,492
492,384,490,492,492
495,366,492,492,491
493,369,492,492,491
493,379,492,492,491
493,428,491,493,492
493,486,491,492,491
492,555,491,492,493
494,627,490,494,493
492,641,492,495,492
491,630,492,492,493
495,569,493,494,492
492,461,491,493,493
492,403,491,492,492
494,367,491,492,492
494,364,490,493,493
494,373,490,493,490
492,398,492,493,492
493,452,491,493,492
493,516,491,492,490
491,595,492,493,490
492,638,492,492,491
493,639,491,494,492
494,615,491,492,493
493,522,492,493,493
494,430,491,493,492
492,388,490,494,494
492,366,491,491,492
494,369,492,494,491
492,378,489,493,493
492,419,491,492,491
492,480,491,492,491
493,544,490,491,492
492,623,492,493,493
494,641,491,493,492
494,630,491,495,494
492,584,491,495,493
493,475,492,494,493
492,408,491,493,491
492,371,489,493,493
493,362,491,492,492
491,373,491,492,492
495,391,490,492,492
493,444,490,492,492
493,506,490,492,491
493,581,491,494,492
492,636,489,493,493
492,639,491,492,491
493,623,493,493,491
493,534,491,493,492
493,438,491,493,491
493,392,490,494,491
492,367,490,493,493
492,369,490,494,492
492,378,491,495,493
492,411,490,492,492
494,472,490,492,491
493,536,490,493,490
493,614,491,491,492
494,642,490,493,492
494,633,490,494,493
495,590,491,493,492
493,489,491,494,492
493,412,491,493,492
492,377,492,495,491
492,365,492,493,490
493,370,492,492,492
492,388,490,494,491
493,436,491,494,493
493,499,490,492,492
494,572,489,492,492
494,633,491,493,492
492,640,490,492,492
495,629,492,495,491
495,546,491,493,492
492,446,491,493,491
493,396,491,492,491
493,365,491,492,492
492,368,492,493,492
494,375,492,493,490
492,406,490,494,492
493,465,490,493,491
492,527,491,493,491
491,608,491,494,491
494,641,490,493,491
494,633,491,494,492
492,601,490,492,493
494,500,491,493,492
493,417,490,494,493
493,381,492,492,491
493,366,491,494,491
494,369,490,492,491
493,384,493,493,490
493,430,492,493,491
493,492,491,492,492
493,562,491,491,491
494,628,492,493,492
493,641,490,494,493
493,631,491,494,494
492,563,492,495,493
493,455,491,493,492
493,402,491,494,493
493,366,490,493,491
493,365,490,492,492
494,374,490,492,491
494,398,490,492,492
493,456,491,492,491
492,519,490,493,492
493,599,491,492,493
492,642,492,493,490
492,637,492,492,490
493,610,493,493,494
493,514,491,493,491
493,422,490,494,492
492,384,489,492,492
495,366,490,493,493
492,370,490,494,493
492,379,491,491,491
492,425,492,493,492
493,485,491,493,492
493,553,491,492,490
492,624,492,492,492
494,640,490,494,492
492,632,490,493,493
495,575,493,494,492
494,467,491,494,493
493,406,491,494,492
492,370,491,495,491
492,365,492,493,493
494,374,490,492,491
492,394,490,494,492
492,449,490,492,491
493,511,490,492,491
494,588,489,492,492
494,638,491,492,490
493,639,491,494,492
494,617,490,495,492
492,527,492,494,492
493,432,492,493,491
492,389,491,494,494
493,367,491,491,492
493,369,491,494,491
494,378,489,492,493
494,417,490,493,492
493,475,490,493,492
493,541,490,491,492
492,622,491,493,492
494,641,492,492,491
493,632,491,491,490
493,583,491,493,492
494,479,491,494,492
494,412,491,493,491
494,373,489,492,490
493,362,491,494,492
491,374,491,493,491
492,392,492,494,491
492,442,491,492,492
493,504,491,492,490
492,578,490,494,493
494,635,489,492,493
495,638,490,493,493
493,625,490,494,494
493,539,491,493,493
493,440,491,493,491
493,392,492,494,491
491,367,492,492,490
493,366,492,492,491
493,374,491,495,493
492,407,490,492,491
492,469,490,492,492
494,534,490,493,492
493,614,490,493,491
492,642,492,494,491
491,633,492,492,493
495,593,493,494,490
493,491,491,493,492
493,414,491,492,491
494,376,490,492,491
494,363,490,493,493
492,372,491,492,492
493,385,489,492,491
494,434,490,493,492
493,499,491,493,490
492,568,491,493,490
492,632,490,493,493
493,639,491,492,491
492,627,491,495,493
496,551,491,493,493
494,450,491,493,492
493,398,491,494,491
493,366,491,494,492
492,367,490,493,492
493,375,491,493,490
492,404,491,492,490
493,461,491,492,491
492,522,490,492,491
491,607,491,494,491
494,640,490,493,491
493,634,490,494,492
493,604,491,495,492
492,505,491,494,492
492,419,490,493,492
494,382,493,493,490
494,364,490,494,492
494,369,490,492,492
494,381,490,492,492
494,428,490,492,491
493,490,490,492,492
493,559,490,491,491
494,630,491,493,491
492,641,491,492,490
493,630,492,493,491
493,567,490,495,494
493,460,491,493,492
493,402,491,493,493
494,367,489,492,493
493,367,491,494,493
492,375,491,494,492
492,399,490,492,492
494,455,491,493,491
494,515,490,492,490
493,597,491,492,490
494,639,491,492,492
495,635,490,493,491
492,617,493,493,493
494,518,492,495,492
493,426,491,493,493
492,388,491,494,492
492,367,491,495,491
492,368,489,493,492
493,380,493,492,493
492,421,490,492,491
492,483,491,492,491
493,548,490,492,491
494,621,490,492,490
493,640,491,494,492
492,631,490,492,491
492,580,492,494,492
493,473,491,493,492
492,408,491,493,491
493,369,492,493,493
492,366,492,492,491
494,372,492,494,491
491,393,490,493,492
493,448,491,493,491
493,510,490,494,491
492,583,489,492,491
491,639,492,493,492
493,638,491,492,491
495,620,491,492,492
495,531,492,494,491
493,434,491,494,492
493,392,490,493,493
494,367,492,492,491
491,369,491,494,491
492,379,491,494,490
491,415,491,493,491
493,472,490,493,491
493,540,491,493,492
492,619,490,492,492
494,641,490,493,492
494,634,490,493,493
494,588,490,494,493
493,484,491,493,492
493,413,491,494,491
494,372,490,494,491
493,365,491,492,490
493,372,491,492,491
493,387,490,495,492
492,441,490,492,491
493,503,491,493,491
493,575,489,493,493
493,636,491,494,491
492,639,492,494,490
494,625,489,493,491
493,545,491,494,493
493,443,491,493,492
493,394,490,492,492
495,366,490,493,492
493,367,492,493,491
494,378,490,494,493
494,405,491,492,491
492,467,490,493,491
493,531,491,492,490
492,612,492,493,490
493,640,491,494,493
492,636,490,492,492
495,598,493,496,492
494,496,491,494,492
494,416,490,494,492
493,380,491,494,494
493,363,490,492,492
492,373,492,493,492
494,383,492,493,490
493,433,491,493,491
492,495,491,493,491
493,562,491,493,491
492,630,489,493,492
492,640,491,492,493
492,629,490,494,494
493,560,491,494,492
493,453,491,494,491
493,398,490,493,490
492,368,489,493,492
492,364,491,492,492
494,374,489,492,491
495,400,490,492,492
493,458,490,492,492
492,522,491,491,492
492,605,490,492,491
494,639,491,493,491
493,636,492,493,490
493,607,493,493,491
493,509,491,494,493
494,421,491,492,492
492,384,493,494,493
495,365,490,494,493
493,372,490,494,493
492,382,491,495,492
494,423,490,493,491
492,487,491,492,491
493,554,491,492,490
492,625,491,492,491
494,640,490,492,492
494,630,492,495,491
495,571,490,493,491
492,464,491,494,492
493,403,491,494,492
492,370,491,495,491
492,366,492,494,490
492,372,490,494,493
493,397,491,491,490
492,452,490,493,492
493,513,490,492,492
494,593,489,492,492
493,639,490,494,492
494,636,490,495,491
491,620,490,492,492
494,522,492,494,493
493,430,491,493,492
493,388,492,492,490
493,367,491,495,492
495,369,489,492,490
492,379,492,493,493
493,419,490,493,492
493,480,490,493,492
492,546,491,492,492
494,619,492,493,490
493,643,491,494,493
494,630,490,492,492
495,581,491,494,492
494,476,492,493,492
494,409,490,493,491
493,372,493,493,493
492,368,491,492,492
494,374,491,494,491
491,394,492,493,491
492,445,492,493,491
492,506,490,493,492
495,580,490,491,492
492,638,492,493,493
493,638,491,493,493
493,625,490,494,494
492,536,491,494,492
493,437,491,494,491
492,392,490,493,493
491,367,492,493,491
493,367,491,492,491
494,377,491,491,490
491,412,491,493,491
493,471,490,492,491
492,536,490,494,492
492,616,490,493,492
492,642,492,494,491
493,634,493,493,491
492,590,491,494,494
494,489,493,494,492
493,413,491,493,492
494,374,490,492,491
494,365,490,493,493
494,372,491,492,491
493,386,490,495,493
492,437,491,492,490
493,500,490,493,491
492,572,491,493,490
492,634,492,492,490
492,639,491,494,492
495,625,491,495,492
492,549,491,493,492
494,446,491,492,492
494,397,490,493,493
493,367,493,492,491
494,367,492,495,491
494,375,490,493,491
492,405,492,493,491
493,464,491,493,491
493,527,491,492,490
493,606,490,495,491
492,642,490,494,492
493,634,492,492,491
493,600,490,495,493
493,502,491,494,492
492,419,491,493,492
493,379,490,492,490
492,364,491,494,492
491,372,490,493,492
494,381,490,491,493
494,431,490,492,491
492,492,491,493,491
493,562,490,493,492
494,629,490,492,493
492,640,492,493,491
493,630,492,494,491
493,564,493,494,493
494,456,491,493,492
494,401,491,494,491
491,365,490,492,492
494,366,490,494,494
493,376,490,494,493
492,401,491,494,491
493,455,490,492,491
492,520,491,492,492
493,599,492,493,491
494,639,491,492,491
494,634,490,493,492
494,609,492,495,492
493,513,491,493,492
493,424,492,493,492
492,386,490,494,494
492,367,491,494,490
492,371,492,493,492
493,379,489,492,490
493,423,491,494,492
492,485,491,492,491
494,550,489,492,492
495,623,489,493,492
493,640,491,493,492
492,632,492,494,491
495,573,491,495,492
493,468,491,494,492
493,406,491,492,491
493,369,493,493,491
493,364,491,494,492
492,374,490,493,492
491,397,493,493,492
493,449,490,492,492
493,513,490,494,491
492,590,491,495,491
494,636,490,493,491
493,638,490,494,493
492,618,492,493,491
494,525,492,493,492
493,432,491,492,492
494,390,492,494,491
495,366,490,492,490
493,368,491,494,493
492,379,491,495,492
491,417,491,494,491
492,477,491,492,492
493,542,491,491,490
494,621,491,494,491
494,640,490,492,493
495,632,489,493,493
495,585,490,493,493
493,481,491,494,492
492,409,491,494,492
492,374,490,492,491
494,364,492,493,491
493,371,491,492,491
493,389,492,492,491
493,442,490,494,492
493,504,491,492,490
491,579,492,493,492
494,636,490,494,493
492,639,492,494,491
492,626,492,493,493
495,537,492,494,493
493,439,491,493,492
492,392,491,492,491
493,364,491,492,492
494,367,490,493,492
492,377,492,494,493
494,409,490,492,491
492,469,491,493,492
492,532,491,493,491
491,614,491,494,490
493,640,492,492,490
493,633,491,494,493
495,591,491,492,492
493,492,492,493,492
493,413,490,493,493
493,377,490,492,494
493,365,491,492,492
494,370,491,493,491
492,384,489,492,493
492,435,492,493,492
491,497,492,493,491
494,567,491,491,491
491,633,492,494,493
494,640,490,493,490
494,627,490,495,494
492,554,491,496,494
494,450,492,495,492
493,399,490,494,492
494,368,492,494,490
493,367,491,494,491
493,373,490,491,491
494,400,489,491,491
494,461,490,492,491
493,523,490,493,490
492,605,490,493,493
492,640,490,492,492
492,636,492,494,491
491,604,493,494,491
493,506,492,495,492
493,418,490,494,492
494,381,491,496,492
491,366,489,493,493
493,370,490,493,493
493,383,489,493,493
492,428,491,492,491
492,490,490,493,491
493,558,490,492,490
491,628,491,492,491
493,639,490,491,492
494,629,490,492,492
491,568,492,493,493
494,460,491,493,491
493,403,491,494,493
492,368,490,495,492
491,367,492,494,491
492,374,492,493,490
494,398,489,494,491
493,454,491,492,491
492,516,490,490,492
494,595,489,490,493
494,639,490,493,493
493,638,492,493,492
494,615,490,496,493
495,516,492,494,492
493,426,492,494,491
492,387,492,492,490
492,367,492,492,492
491,370,491,492,492
494,378,493,494,490
492,421,490,493,492
493,482,490,493,493
493,549,491,494,492
492,620,491,493,492
493,641,491,493,493
494,633,491,492,490
493,577,492,493,492
494,471,491,493,492
493,408,490,492,492
494,370,493,494,491
493,366,490,494,493
493,373,491,492,492
491,396,492,494,491
492,448,492,493,491
493,510,492,492,492
492,585,490,492,491
494,636,492,494,491
492,637,490,494,493
494,621,490,494,495
494,532,491,494,493
494,434,492,493,491
492,391,491,494,492
495,365,490,493,490
493,367,492,492,491
494,377,491,492,491
494,413,490,494,491
492,474,491,493,492
493,541,492,492,489
493,618,490,494,492
492,642,491,494,491
491,634,492,494,492
492,590,493,494,493
494,483,491,494,492
493,411,491,493,492
491,371,491,492,491
494,363,489,493,493
495,373,490,494,493
493,388,492,493,491
492,440,490,494,491
493,504,491,495,491
491,575,491,495,490
492,634,491,492,491
493,637,491,495,491
491,626,490,493,492
495,545,493,495,492
494,443,491,493,493
493,394,490,493,494
493,367,490,494,492
494,365,490,492,491
492,376,491,493,493
494,407,492,492,490
492,465,491,492,491
493,528,490,491,491
494,610,490,492,492
494,641,492,493,491
493,635,490,494,491
493,595,492,496,493
493,496,491,495,493
493,417,491,495,493
492,380,492,494,493
494,365,491,495,493
494,373,491,498,492
494,382,489,497,493
495,432,490,497,492
493,496,490,493,492
492,563,491,493,493
492,632,491,495,492
494,639,492,496,490
492,627,492,493,491
493,557,492,490,492
493,454,491,491,492
492,398,490,493,492
492,369,492,495,493
493,366,490,496,493
492,375,490,496,493
492,402,491,495,492
492,459,492,492,492
494,519,491,488,491
492,603,490,484,492
493,638,490,487,492
495,634,490,491,494
495,606,490,494,494
493,509,492,495,493
493,421,490,494,492
493,383,491,498,492
491,365,491,497,491
493,370,492,496,491
493,380,490,497,494
492,424,490,498,492
492,488,490,500,492
494,555,489,499,493
495,626,489,494,494
493,642,491,488,491
494,628,490,493,493
492,573,490,496,494
494,465,492,498,491
492,403,491,497,492
493,368,491,493,491
494,365,490,490,492
491,374,492,492,492
495,398,489,492,490
493,452,490,492,491
492,514,490,495,491
492,594,491,495,490
493,638,490,492,493
492,636,491,492,491
492,618,491,495,491
494,520,491,495,493
494,429,490,494,493
494,389,490,495,491
492,365,491,499,493
493,370,489,500,493
495,380,493,502,492
493,418,491,499,492
494,479,490,502,492
494,548,491,509,493
495,620,490,504,491
494,642,492,496,493
493,633,491,490,494
493,582,491,491,493
493,476,491,491,491
493,410,491,491,493
494,371,492,488,492
493,366,491,490,491
493,370,490,489,491
495,390,489,490,492
495,445,490,494,491
492,507,491,496,492
493,583,490,492,491
494,638,492,495,492
492,638,492,495,492
494,623,493,498,492
494,537,492,502,495
494,438,492,508,494
494,394,492,500,492
495,364,490,492,494
493,368,490,499,493
492,379,490,494,489
493,409,491,486,490
492,471,490,486,491
492,536,491,490,489
492,613,491,494,491
494,641,490,498,493
496,634,490,505,492
493,593,493,510,496
497,490,493,516,495
496,415,492,512,494
494,378,491,503,493
493,366,492,494,491
493,372,490,485,492
493,385,491,481,491
492,439,491,484,491
492,499,490,480,492
493,569,489,484,493
494,634,491,488,491
493,638,491,493,492
492,626,490,501,492
492,550,492,506,492
493,447,491,508,492
493,397,491,508,491
493,369,490,507,492
494,365,489,497,490
492,376,490,493,493
493,405,490,496,492
492,462,490,482,492
492,526,490,483,490
491,605,489,488,492
493,640,491,491,493
492,636,491,492,491
494,596,492,493,493
495,500,492,495,493
494,418,492,494,492
493,380,490,498,494
493,364,490,500,492
492,372,492,497,491
492,383,493,499,491
493,430,491,497,491
493,491,490,491,491
493,559,490,487,493
493,631,490,492,496
495,639,490,500,493
495,630,491,501,495
496,565,493,501,493
496,457,493,508,496
497,402,491,510,493
494,370,493,496,491
494,365,491,492,491
494,374,488,492,490
495,399,489,490,490
492,457,490,488,489
493,520,491,494,490
491,601,491,493,493
491,641,493,491,492
492,637,492,494,491
494,609,490,497,491
493,513,492,502,493
494,425,492,503,493
493,383,490,493,492
493,364,489,493,494
493,370,492,493,490
493,379,489,484,492
494,421,490,486,492
492,485,491,494,492
492,551,491,496,492
493,624,491,494,495
493,642,492,497,493
495,628,493,497,494
493,574,492,490,495
496,467,493,490,496
496,406,492,489,496
494,371,490,489,494
495,364,491,491,492
494,374,491,494,494
496,397,494,508,493
494,450,492,515,492
493,512,490,499,489
493,589,492,504,490
491,637,491,501,493
495,638,493,494,494
493,621,492,488,495
493,527,491,487,493
493,432,491,496,492
493,390,491,501,491
491,366,490,501,493
491,367,490,495,491
492,376,489,487,492
494,415,489,487,492
494,477,491,493,491
493,543,490,496,492
495,618,491,499,491
492,642,493,488,490
491,631,493,487,490
492,584,492,489,492
493,481,491,492,493
494,409,490,494,493
495,375,492,497,493
495,366,492,501,493
495,373,492,503,492
495,394,493,505,492
496,442,491,494,493
492,504,490,482,491
491,578,491,490,490
492,634,490,484,492
494,638,490,490,494
494,626,494,493,491
495,540,492,494,494
494,441,491,496,494
493,395,492,498,493
492,368,493,497,492
493,367,491,496,493
493,378,491,504,491
494,411,491,504,492
494,469,491,498,491
495,533,490,507,494
496,615,490,514,496
496,644,492,509,495
499,634,491,498,493
494,596,490,479,494
493,492,493,480,493
492,414,492,485,493
491,375,491,487,491
492,366,492,492,492
493,371,490,496,493
494,386,491,499,492
493,436,490,501,492
493,499,491,504,491
493,569,495,485,493
494,632,495,493,495
494,641,495,492,492
496,627,492,491,492
496,553,488,496,494
495,450,490,499,496
495,400,494,497,494
494,369,491,496,493
497,368,492,504,491
495,377,492,507,490
493,403,492,507,492
494,463,492,501,492
491,525,493,487,492
492,603,493,481,494
493,643,495,486,496
493,636,494,490,495
494,603,490,496,494
495,507,491,496,492
496,420,495,501,492
495,384,498,514,495
494,367,500,517,494
495,371,499,510,496
494,382,491,514,492
493,431,488,492,493
496,491,489,498,492
498,561,493,499,494
497,631,496,480,492
494,641,494,467,492
495,631,491,487,497
497,568,492,508,495
493,462,489,505,495
491,403,491,503,495
493,367,491,495,494
494,367,491,488,495
493,376,489,490,491
492,396,490,475,491
491,453,490,475,490
493,517,492,501,492
494,596,493,505,491
496,639,493,501,492
495,640,495,502,493
497,614,493,494,492
497,520,493,487,493
498,428,488,490,493
495,388,491,495,494
493,370,490,495,493
494,370,492,486,492
493,381,488,498,491
493,422,489,493,492
493,482,489,503,494
495,549,490,502,492
493,627,496,507,493
494,642,494,496,494
495,634,491,484,490
493,581,493,510,495
497,474,494,512,498
497,410,498,493,491
496,371,496,475,490
494,364,490,486,491
494,375,488,477,493
493,393,489,478,495
490,447,491,486,494
493,510,492,498,494
495,588,492,505,494
498,639,492,510,492
497,638,493,503,492
497,622,492,515,490
499,534,491,523,496
498,439,496,521,501
495,394,501,517,496
494,369,499,493,496
493,371,492,502,491
492,378,489,463,485
488,412,489,466,488
488,474,495,479,493
492,540,494,488,493
495,618,495,491,496
495,642,488,497,496
497,633,487,495,496
498,590,492,494,494
497,486,490,502,495
496,413,490,494,492
494,378,491,502,492
495,366,492,491,491
495,374,492,483,494
495,392,493,483,493
498,441,493,498,496
497,507,496,510,495
495,578,494,510,491
492,637,491,514,491
491,640,487,493,502
491,627,491,488,498
497,545,493,502,496
497,446,493,506,495
497,396,494,506,495
498,369,497,522,495
496,372,493,494,491
495,377,488,480,491
494,410,488,480,492
496,468,492,497,493
499,534,492,521,491
498,615,492,504,492
496,644,488,491,492
494,634,486,495,496
492,596,488,495,496
493,497,492,483,495
491,415,489,475,493
492,378,492,451,491
493,365,494,485,496
497,372,496,511,496
496,389,499,524,495
496,435,493,510,491
497,497,488,512,496
495,568,491,507,495
496,635,492,515,494
497,643,489,507,495
495,631,490,494,497
494,559,491,496,495
494,453,490,470,491
493,400,490,491,490
496,367,492,498,490
494,367,491,490,491
495,375,491,499,494
495,401,487,505,494
495,463,490,513,493
499,524,493,512,492
501,607,497,494,489
498,644,498,481,485
497,639,497,502,491
494,610,495,472,502
493,512,493,486,501
495,423,496,498,496
494,385,492,506,491
494,367,491,503,494
492,372,494,520,497
496,384,497,537,500
498,431,495,511,498
496,488,489,482,491
495,557,486,492,493
496,628,492,510,494
496,641,492,505,493
492,630,492,494,491
490,572,492,473,491
491,463,497,474,494
493,405,502,491,494
492,369,493,489,492
495,368,492,509,495
502,378,507,507,492
500,402,509,492,496
500,455,506,487,490
491,515,488,509,492
493,594,490,539,499
496,641,494,532,498
495,638,488,471,490
495,614,490,468,490
490,522,491,482,490
489,429,492,478,492
493,388,494,479,495
496,367,493,499,496
499,373,487,529,502
501,385,487,546,494
499,423,486,522,496
495,480,490,493,497
494,547,489,469,492
489,622,487,490,491
496,644,491,532,495
503,637,495,529,498
502,585,498,508,498
495,477,491,457,490
486,409,490,464,493
491,372,491,500,494
498,368,494,516,496
496,378,490,522,497
499,398,484,529,494
498,447,487,483,486
495,509,495,471,488
493,585,491,496,493
489,635,491,471,497
487,636,493,502,496
495,624,493,520,491
498,537,493,520,490
497,439,485,489,486
494,393,490,478,499
488,369,499,487,494
491,368,501,492,491
495,380,498,510,494
502,414,496,521,496
499,477,496,530,499
502,540,492,487,499
500,619,494,507,495
496,644,488,503,492
497,638,477,527,500
504,597,493,490,499
491,487,493,473,498
488,415,494,491,496
491,375,493,489,493
495,365,489,508,493
495,375,490,488,496
493,388,492,509,499
489,439,487,487,493
487,498,484,470,498
490,570,488,501,495
493,633,493,526,495
498,641,497,534,493
499,629,489,490,486
495,546,483,486,485
491,445,491,470,491
494,395,490,494,493
496,370,488,501,492
497,366,489,475,493
494,378,492,464,496
494,409,493,497,495
498,467,490,507,490
496,528,493,513,485
491,611,494,508,490
495,641,497,507,490
494,636,494,494,502
487,598,489,495,494
490,500,489,497,491
492,417,493,510,491
492,382,491,521,491
497,363,485,489,491
499,371,486,497,494
499,384,490,509,497
501,433,498,497,499
499,498,501,502,496
497,565,498,495,492
493,631,482,459,488
486,641,489,488,496
490,630,508,510,498
501,566,511,511,504
497,459,500,501,489
496,400,473,500,483
493,364,474,459,484
495,368,485,516,494
497,377,487,507,504
495,403,492,503,497
496,459,492,472,492
497,520,497,509,497
494,606,502,516,497
493,642,495,537,497
493,636,490,515,495
497,616,485,516,492
500,514,488,456,492
493,424,492,481,493
494,388,487,481,489
489,365,486,462,489
488,368,489,479,496
493,383,494,503,505
493,425,496,488,499
493,486,497,475,500
495,552,491,496,494
499,625,489,531,490
497,644,486,514,494
494,630,492,483,503
495,578,497,506,488
498,472,497,539,494
500,411,494,537,498
495,371,486,517,502
487,367,484,484,495
491,373,488,462,487
496,394,487,487,501
499,453,490,511,500
495,513,499,491,508
493,590,517,464,505
492,640,516,474,504
495,636,494,481,496
492,618,488,482,476
494,524,484,492,489
493,432,503,482,496
496,392,507,505,489
489,368,494,525,496
492,371,485,514,493
494,381,486,502,490
492,416,486,475,490
495,475,493,481,495
496,543,493,493,499
494,618,488,495,487
496,640,483,508,496
498,634,489,528,502
502,587,491,546,504
501,486,493,537,496
493,412,488,504,492
495,373,486,498,486
494,365,495,411,482
491,373,500,470,493
493,390,491,479,495
492,443,496,493,493
489,506,492,527,499
492,578,483,519,492
497,637,497,501,500
495,639,502,481,490
495,622,494,488,484
492,539,479,474,486
498,438,484,487,487
496,394,489,499,493
491,368,493,504,497
493,370,502,502,501
494,380,505,487,494
489,408,499,476,498
491,469,486,505,498
496,535,488,518,494
494,615,492,522,497
491,639,487,483,498
494,633,488,500,491
491,591,482,490,482
489,489,489,488,492
491,413,489,515,493
493,376,488,500,491
492,363,489,468,496
496,374,490,518,501
502,391,493,535,500
503,441,494,519,491
497,500,494,490,484
492,568,499,480,485
491,632,508,488,488
486,638,503,456,489
485,623,473,466,487
489,550,483,492,496
493,448,491,502,496
497,397,490,511,496
497,367,489,515,501
495,367,491,484,499
495,375,489,500,495
498,406,489,528,492
491,462,491,500,489
489,523,491,460,489
490,603,491,477,495
491,640,487,495,489
492,636,487,511,488
495,603,490,489,493
500,504,494,490,492
503,423,496,500,492
500,385,490,520,491
493,365,485,511,493
491,371,483,508,494
490,380,484,463,489
492,429,498,479,496
492,492,498,488,510
497,561,492,492,509
494,629,484,496,502
491,639,488,501,482
492,630,493,520,485
496,567,499,521,495
494,462,506,514,497
494,403,513,501,499
491,368,506,481,489
492,365,481,491,483
495,371,484,473,490
502,403,492,516,501
504,457,489,506,498
497,519,487,500,486
494,597,494,501,483
491,639,506,506,491
488,638,516,494,492
489,613,513,474,486
488,513,478,462,489
492,422,468,473,491
495,387,488,470,500
494,364,486,477,496
493,370,484,521,496
493,382,483,540,495
495,423,491,527,492
492,482,494,476,482
492,546,492,466,496
489,619,480,447,496
492,638,487,497,495
499,634,491,518,495
504,584,491,529,496
509,479,492,505,495
498,410,488,480,493
483,370,486,463,490
488,366,495,483,490
485,372,490,495,494
489,394,490,501,501
492,447,494,489,493
491,507,492,490,494
489,586,495,485,495
494,635,500,488,492
494,635,498,495,489
492,619,492,509,485
496,531,486,551,496
500,438,487,564,505
498,394,490,522,499
494,367,487,465,490
491,368,487,449,489
490,378,489,465,491
494,414,488,505,492
497,477,491,535,495
499,542,490,508,487
495,617,489,473,482
485,637,486,452,486
489,633,489,502,495
491,585,491,478,492
498,484,489,482,494
497,411,488,497,495
494,375,489,502,496
494,367,490,517,499
491,372,492,503,498
486,386,495,480,494
487,441,499,500,490
494,503,493,509,490
498,576,488,495,492
497,636,487,488,489
491,635,489,475,493
490,626,488,501,497
494,541,489,460,489
491,441,487,480,494
491,394,491,488,496
491,367,497,490,503
492,367,491,489,495
493,374,490,497,483
493,409,493,516,493
496,469,486,528,493
502,535,491,526,498
503,615,498,493,501
502,645,495,517,495
492,638,493,495,481
484,591,489,441,484
486,495,488,480,499
490,415,487,494,495
492,378,494,497,503
501,369,500,524,505
502,377,509,539,493
499,390,507,516,486
492,434,498,451,487
489,494,478,478,492
488,562,491,467,491
487,633,506,490,494
493,641,497,495,491
495,629,484,499,493
497,559,477,510,489
495,453,485,499,493
498,401,489,487,499
494,369,492,475,490
490,365,487,508,492
491,375,491,483,496
487,399,489,484,490
487,459,486,502,494
495,523,486,525,492
495,606,487,515,492
494,642,492,509,493
495,638,493,491,494
492,604,492,489,499
492,509,503,464,498
492,422,511,493,491
495,381,500,498,493
494,365,486,493,483
496,371,483,514,489
495,381,487,503,498
497,427,480,481,485
492,487,484,482,490
490,556,485,480,487
493,628,485,503,489
494,641,488,475,492
489,628,487,484,493
489,572,488,497,495
490,461,487,497,491
488,402,485,499,493
493,368,489,495,496
495,364,492,490,492
493,376,497,488,492
492,396,492,481,481
490,450,487,492,491
491,513,494,482,492
493,592,490,509,495
496,640,485,510,499
497,638,489,502,496
491,618,489,504,495
491,522,491,483,492
493,430,491,500,495
496,388,488,505,492
496,366,489,483,492
492,372,491,526,500
500,382,489,540,505
500,424,505,558,510
492,481,510,428,485
487,543,493,426,478
492,617,467,479,477
493,643,497,505,491
496,634,509,506,503
491,584,498,490,499
490,475,487,496,499
492,407,478,499,486
499,373,480,525,491
496,364,489,491,497
496,375,493,511,495
493,394,494,487,495
495,443,492,480,491
492,507,484,463,489
487,579,490,471,487
487,634,498,496,491
490,635,492,499,496
495,622,489,534,494
495,533,484,473,491
496,435,485,488,491
493,391,492,486,492
491,366,494,479,495
492,368,488,479,488
492,376,486,507,483
495,412,498,499,486
497,472,495,495,478
492,535,486,485,485
489,613,487,488,500
492,644,498,535,513
499,636,496,549,502
505,597,489,546,488
504,489,485,469,485
498,413,493,449,483
490,374,493,462,489
477,361,491,479,495
481,367,483,496,496
489,388,491,497,494
495,436,494,485,492
495,499,489,486,495
496,572,483,504,493
494,632,486,505,497
495,642,495,507,497
493,627,503,484,491
492,545,498,482,492
493,446,488,501,493
496,397,486,498,491
496,365,490,492,490
494,368,489,496,492
496,377,484,480,486
496,407,486,480,491
496,467,493,491,483
489,527,490,483,492
483,607,487,497,491
487,641,487,496,495
491,633,487,523,502
494,598,488,524,500
497,502,493,534,500
500,420,495,500,498
499,381,492,480,487
494,364,489,495,484
495,372,488,525,493
492,382,492,471,492
485,428,489,409,485
482,487,487,466,490
488,562,491,495,492
493,629,501,507,500
494,642,507,505,502
493,630,501,499,491
497,560,494,501,493
497,455,492,508,497
497,401,488,491,490
496,364,476,484,481
499,364,477,500,492
495,376,492,495,487
488,401,495,492,493
490,456,490,484,489
487,518,486,487,494
492,602,500,496,501
497,643,508,490,506
498,639,499,502,502
498,609,483,497,491
491,514,498,502,492
486,422,497,506,492
491,382,484,487,485
492,362,484,468,488
490,367,493,493,495
493,379,491,518,490
495,426,486,503,492
490,484,488,467,494
487,549,484,471,492
491,624,484,486,488
498,640,492,520,490
504,637,498,530,505
503,578,494,514,504
497,469,492,490,504
488,406,514,447,491
487,367,529,471,485
489,364,511,477,490
492,374,491,515,479
493,394,480,506,492
496,449,472,506,488
495,513,483,523,500
494,593,485,520,503
496,641,487,514,498
492,639,486,493,494
487,619,486,474,491
482,522,486,453,490
484,426,486,474,490
489,385,490,502,496
496,366,493,506,489
499,367,488,525,490
502,378,481,510,490
498,416,491,467,488
491,475,490,450,490
493,542,489,473,489
492,623,488,483,488
490,642,489,504,493
489,633,491,524,497
489,584,492,488,496
491,477,491,458,493
491,408,491,497,492
494,371,489,539,497
493,365,494,551,505
496,375,501,497,506
499,389,496,478,491
495,441,478,463,480
492,502,483,473,471
488,577,493,464,491
492,634,494,469,496
495,638,489,497,494
497,627,486,518,491
494,541,489,507,486
493,440,489,483,494
491,393,491,479,495
490,366,488,477,485
489,366,489,498,488
488,374,490,490,495
494,409,492,511,493
493,469,486,515,493
496,534,491,525,499
500,616,500,506,498
494,644,502,497,493
492,634,490,479,491
492,591,489,464,490
494,490,491,481,490
497,416,492,497,489
490,376,481,477,487
489,362,485,491,494
491,371,487,482,495
498,385,492,514,498
497,438,503,526,494
491,501,505,526,490
490,567,494,480,488
492,634,491,497,504
499,643,494,494,500
496,628,492,498,491
495,552,473,492,487
489,448,486,457,484
488,394,490,475,494
491,368,492,490,494
492,366,494,497,493
491,376,488,516,495
496,404,483,500,491
499,463,489,506,485
495,524,495,469,476
491,606,498,481,489
490,640,497,485,495
491,633,503,475,504
493,601,498,496,497
491,505,492,484,488
493,416,484,495,487
493,381,483,493,491
489,363,490,490,492
488,368,488,497,494
488,380,484,474,491
489,424,483,475,493
491,488,483,489,489
493,558,483,512,492
496,627,489,510,497
502,642,489,486,489
504,632,493,488,491
503,567,490,497,486
496,463,488,488,488
484,401,488,479,490
484,365,491,485,492
483,363,494,513,498
490,376,500,537,501
499,399,498,544,493
496,457,484,521,485
491,514,484,495,490
492,597,487,484,496
492,638,489,460,501
492,636,497,492,488
492,612,491,462,489
491,515,489,472,491
493,424,485,475,493
498,386,489,516,491
496,370,489,520,493
496,370,491,504,490
492,381,488,479,491
486,421,491,501,491
486,480,491,470,490
485,546,487,459,487
487,619,490,470,489
489,640,489,492,491
492,630,488,495,492
494,576,492,487,492
493,469,494,487,492
493,406,490,498,490
491,369,490,504,491
497,364,496,495,491
498,374,502,484,491
500,396,506,507,491
501,450,488,509,499
496,513,477,508,497
491,589,485,528,508
497,644,493,537,504
497,640,487,466,472
492,621,483,468,482
489,528,485,481,491
487,432,491,496,495
491,390,490,493,492
491,365,489,516,495
498,369,490,517,497
499,381,497,513,498
498,416,493,450,482
487,470,485,466,480
487,540,480,501,488
487,618,487,495,488
487,639,491,461,492
490,630,490,466,489
492,587,493,469,498
490,481,493,485,494
492,410,494,500,492
496,373,495,507,495
499,366,494,493,493
500,373,494,505,497
493,393,505,508,497
495,442,502,496,484
493,503,484,472,477
488,572,485,475,489
490,634,495,506,506
492,641,497,531,505
496,628,505,531,505
500,546,493,513,493
492,443,484,499,494
491,395,488,492,491
493,363,485,464,496
496,366,481,492,495
495,376,485,507,492
489,406,488,471,480
483,461,483,464,478
487,528,487,497,490
489,610,491,496,491
492,641,490,494,493
499,634,490,487,492
496,597,495,490,495
496,497,496,498,490
493,416,489,497,488
489,374,485,475,482
485,362,486,477,489
489,369,488,487,495
491,381,487,488,492
492,431,489,489,492
493,494,490,492,489
493,565,492,501,495
500,635,507,505,494
500,641,500,501,490
500,629,489,517,492
498,560,485,504,496
491,452,484,487,491
490,397,487,475,490
495,368,485,508,489
499,370,497,510,489
500,379,504,507,490
495,403,483,474,485
483,457,482,478,495
483,519,484,490,493
489,600,487,488,493
491,637,486,496,494
492,634,489,494,489
491,604,492,491,492
488,507,491,483,493
490,419,491,495,492
493,383,492,513,493
493,364,493,519,498
498,373,491,513,494
491,377,488,438,484
483,422,487,471,491
492,486,487,502,489
495,555,490,485,493
494,627,497,491,499
498,641,506,501,494
497,631,499,503,491
499,570,481,479,485
497,462,476,484,490
491,403,488,488,494
491,365,487,480,489
488,366,491,495,495
487,374,491,514,495
490,399,489,500,489
491,450,490,457,486
493,512,490,500,488
497,595,492,535,490
498,641,494,541,494
491,638,489,508,484
491,612,484,475,489
487,516,491,425,491
486,426,495,474,498
492,387,492,491,497
491,362,488,481,484
491,368,492,490,489
494,379,493,507,493
495,418,490,497,492
496,481,487,506,491
493,547,488,510,492
491,622,489,508,495
493,642,490,481,492
489,632,494,469,492
493,581,499,483,495
502,477,502,493,503
503,413,500,502,504
503,374,496,501,495
491,364,492,463,485
481,369,487,481,477
485,387,472,483,494
487,444,482,493,492
490,505,486,490,492
491,583,487,494,491
492,636,488,513,487
492,636,488,522,490
493,623,486,497,489
493,531,489,487,493
497,436,489,508,494
499,394,490,516,494
498,367,490,507,496
495,370,489,490,492
491,379,495,470,487
488,409,497,468,486
491,472,488,479,482
496,537,481,493,483
498,615,491,492,489
500,642,490,500,493
492,636,487,483,499
485,588,491,484,493
487,485,490,482,488
491,412,491,490,490
493,375,490,501,495
495,364,489,497,490
491,371,491,497,491
490,387,491,506,494
493,438,491,505,494
492,500,489,484,490
491,567,489,472,491
490,632,492,480,497
492,636,492,490,497
490,626,493,501,490
491,548,494,500,488
493,445,494,507,492
493,395,490,483,490
490,363,486,481,487
489,363,485,492,492
494,376,487,506,493
494,405,487,502,491
494,463,488,501,489
495,527,487,501,489
494,610,490,485,493
494,640,493,479,491
492,633,494,489,494
494,597,491,502,491
495,499,487,473,491
490,415,494,473,492
491,379,499,481,490
492,365,488,493,484
490,371,483,498,490
494,384,486,496,493
497,430,493,488,496
494,493,493,492,495
490,561,490,507,499
493,630,489,522,497
497,641,482,532,487
499,629,492,513,487
493,562,495,473,489
487,453,495,475,489
488,398,492,464,487
488,367,487,477,494
491,364,490,488,493
494,373,496,508,492
495,400,498,515,492
497,458,488,499,486
494,519,486,494,493
490,600,492,479,492
487,638,498,486,493
492,633,495,496,489
492,609,493,490,491
493,509,486,487,494
491,421,488,487,491
491,382,485,487,487
491,364,484,489,486
493,369,485,478,489
492,378,486,486,491
492,425,486,498,491
493,486,489,512,493
493,553,488,497,492
499,624,490,493,485
497,642,495,492,493
500,632,502,519,495
502,575,498,506,493
493,468,491,507,492
490,403,476,459,481
485,364,485,461,491
486,365,487,476,490
492,373,489,485,490
492,397,489,494,490
491,449,487,489,491
490,510,487,495,490
492,588,488,489,490
492,637,491,488,494
493,636,489,498,494
491,618,489,499,494
492,525,490,494,492
490,429,490,494,491
490,387,489,493,494
491,366,491,500,497
495,369,492,514,495
494,378,491,502,484
491,417,492,505,491
497,480,490,504,502
495,544,489,501,493
495,620,486,475,486
491,640,488,466,486
488,630,497,481,489
491,583,496,477,490
494,478,494,482,488
493,408,482,495,490
492,370,488,480,492
488,363,489,483,494
489,371,488,495,491
492,389,488,492,489
492,441,488,499,488
493,504,489,491,488
491,578,490,489,487
490,633,490,490,488
490,637,490,493,492
495,622,489,495,491
492,538,490,505,497
494,439,490,511,494
494,394,488,502,490
493,367,492,483,491
495,369,494,489,485
495,377,491,495,488
493,409,488,488,491
493,469,488,476,491
493,534,491,491,492
497,613,490,503,494
496,644,489,522,495
497,636,490,533,490
491,593,489,490,494
491,491,488,486,494
489,414,494,488,491
493,375,491,510,490
492,366,489,500,493
491,372,491,480,486
492,383,491,462,486
489,434,488,472,486
487,495,483,472,488
488,569,488,484,490
491,630,489,490,491
490,638,490,493,491
492,626,491,492,489
491,550,492,493,493
493,447,490,492,492
493,397,491,491,490
491,364,489,490,492
493,367,488,491,492
493,377,489,491,493
491,404,490,492,492
492,461,489,490,492
492,525,489,490,491
493,604,491,491,490
493,639,491,491,489
494,632,490,491,489
494,599,491,497,491
492,503,491,495,492
494,419,491,492,492
493,381,489,489,493
492,365,490,491,491
491,371,491,491,492
493,380,489,492,492
493,429,491,492,492
492,490,490,493,493
492,556,488,490,493
493,626,488,483,491
492,637,490,488,487
492,629,488,499,489
493,562,490,506,493
493,457,492,488,489
492,402,497,482,488
491,368,497,488,491
492,364,487,507,493
492,373,487,497,488
490,399,486,494,491
491,452,488,485,493
491,515,489,480,492
492,595,490,490,491
492,634,485,492,493
491,635,486,495,493
493,610,492,497,492
492,515,491,496,493
493,424,491,496,489
494,386,490,490,489
495,364,488,485,488
492,369,491,488,490
492,379,486,491,492
492,422,487,496,491
492,482,488,492,490
493,546,489,494,490
491,621,487,490,493
492,637,489,490,494
494,628,488,490,496
494,575,489,492,495
492,469,490,498,493
491,405,490,496,494
491,369,491,495,492
490,364,490,491,490
487,371,490,489,489
488,393,491,492,488
490,444,489,494,490
489,507,490,492,491
489,584,489,493,491
493,632,488,494,492
494,634,489,493,491
494,618,489,484,488
495,524,491,486,492
494,431,491,489,492
492,388,491,494,491
491,366,490,494,491
493,367,490,496,492
490,377,490,496,491
493,412,488,493,491
489,473,488,490,492
492,538,488,488,496
495,617,489,492,496
491,639,490,494,494
488,628,488,492,493
491,585,492,492,491
493,479,490,492,489
492,409,490,491,493
492,371,491,493,491
492,362,489,488,489
491,371,488,492,491
494,390,491,489,489
493,440,488,491,491
493,502,488,491,492
492,576,488,492,492
493,632,488,493,494
492,637,491,494,498
491,625,491,493,499
493,539,490,493,501
492,442,491,491,499
493,395,491,498,498
492,365,489,493,500
494,368,491,493,497
491,377,489,492,478
491,409,488,489,485
492,468,489,492,491
492,530,490,493,487
492,609,490,488,488
493,641,491,489,489
492,631,488,493,492
493,592,487,493,493
492,495,490,496,496
491,414,491,494,499
492,379,489,490,494
494,364,490,495,497
493,372,489,498,495
491,387,490,499,486
490,433,489,496,487
491,495,489,492,488
490,567,489,487,485
493,627,488,487,490
492,637,488,493,493
493,628,488,494,491
492,553,491,495,496
492,452,490,494,492
494,398,491,495,491
490,368,492,494,491
491,366,491,492,492
493,375,491,492,495
492,405,491,493,495
496,461,490,485,492
493,523,489,490,493
493,605,489,494,494
491,641,490,497,495
490,636,489,497,498
493,605,492,497,498
493,507,491,497,507
493,419,491,489,513
494,382,489,491,509
494,366,489,493,502
492,370,490,494,481
492,383,490,491,483
493,428,492,493,486
492,487,491,492,477
491,556,492,490,480
491,625,491,492,488
493,638,491,491,490
491,631,492,490,491
495,566,489,494,492
494,461,488,494,491
493,404,488,493,494
492,369,490,492,493
493,367,488,494,490
494,375,487,493,487
492,398,490,494,487
492,453,489,496,491
493,515,489,496,491
490,595,488,492,493
493,639,489,493,494
492,637,489,488,496
491,616,490,493,497
492,521,491,494,497
492,427,492,494,492
492,388,495,495,495
493,367,493,493,490
493,367,492,493,492
494,380,491,493,500
494,421,493,494,500
492,481,493,496,497
493,548,492,493,493
491,623,491,495,484
491,640,492,495,492
491,631,491,494,493
492,581,492,493,495
493,474,489,493,493
493,407,489,492,492
490,368,487,491,490
494,365,488,494,502
493,376,491,496,510
493,392,494,495,507
493,448,494,495,506
493,509,495,495,502
492,583,495,495,490
493,635,493,493,485
494,637,494,494,489
491,623,493,492,491
494,534,496,495,493
492,436,496,497,497
491,392,495,498,495
491,368,493,496,494
494,368,489,495,496
494,377,489,492,495
495,414,485,488,477
494,471,486,490,479
493,537,487,493,487
494,616,491,493,490
492,641,494,495,491
493,635,494,497,491
496,588,494,498,491
493,486,496,497,485
493,413,493,493,484
493,374,491,493,480
490,366,485,492,488
493,373,488,493,488
493,387,485,493,498
491,439,486,493,494
491,500,486,493,495
491,571,487,493,495
491,635,490,494,494
493,639,491,493,491
493,624,492,494,487
494,545,491,496,498
493,447,492,496,504
492,395,489,494,490
492,367,490,492,498
491,369,490,498,501
492,377,490,498,500
492,408,490,496,486
492,465,489,494,485
492,526,490,492,485
492,611,491,494,484
493,638,491,493,490
494,633,492,493,494
494,598,492,495,482
493,497,494,495,489
493,417,492,494,493
493,378,492,496,491
491,363,491,493,487
492,370,489,494,487
493,382,488,496,489
491,430,487,494,489
492,494,490,495,490
493,562,490,494,492
492,629,492,495,492
491,640,494,496,492
494,627,492,497,492
492,560,491,496,492
494,454,490,496,491
492,399,489,495,489
493,366,487,494,487
494,366,487,495,490
491,375,490,496,493
493,401,488,495,489
492,458,489,496,491
492,520,489,496,491
491,602,491,495,489
492,640,490,494,483
492,633,492,492,489
492,609,491,496,490
493,508,492,494,492
492,421,492,494,495
493,385,491,495,492
491,365,492,496,489
492,371,489,494,490
493,382,491,496,493
491,424,488,495,493
492,486,487,495,493
493,555,489,495,496
493,623,489,493,492
492,640,493,495,488
493,631,494,495,496
493,572,494,497,494
494,466,494,495,493
492,405,493,495,492
494,368,491,496,490
493,365,485,496,490
493,370,487,495,487
493,393,487,491,486
493,450,489,493,487
492,512,490,494,489
493,590,490,493,489
492,638,490,495,486
491,637,492,497,490
491,619,491,496,492
491,523,492,495,495
492,428,492,496,494
493,389,491,495,490
492,363,492,494,491
493,368,492,495,492
494,379,492,496,488
492,417,490,494,493
492,478,489,493,491
492,545,490,493,491
491,620,488,494,489
492,639,489,494,490
493,631,490,495,494
492,583,491,497,494
494,476,494,496,495
492,407,493,496,494
493,370,490,494,489
493,365,489,495,486
492,371,488,494,492
491,392,489,496,493
493,442,487,494,490
492,504,489,493,490
492,577,489,492,489
494,635,489,496,491
492,637,489,496,492
493,623,492,495,490
493,536,491,496,492
493,436,490,496,492
493,393,490,496,491
494,364,490,494,489
492,366,492,495,493
492,379,491,493,489
493,408,490,494,490
492,469,490,494,490
493,533,489,493,490
494,614,491,495,488
492,642,490,496,489
493,632,489,495,490
491,592,492,497,494
492,490,492,496,493
492,414,493,495,493
492,376,492,493,491
493,366,492,496,490
494,370,489,495,483
494,385,488,495,488
493,436,488,494,489
493,499,490,494,490
491,569,491,493,495
495,631,491,493,493
493,637,490,493,489
494,625,491,496,491
495,550,492,497,492
493,447,492,496,492
493,397,493,495,491
492,367,491,495,491
491,367,492,495,490
492,376,491,496,489
492,405,489,495,492
493,460,489,495,491
493,526,488,495,491
494,605,488,494,490
494,638,488,494,492
493,635,488,494,493
492,600,492,493,494
493,502,490,494,491
493,418,491,496,490
492,381,492,496,491
492,365,491,494,491
494,370,490,496,490
492,381,490,493,491
492,432,491,495,489
493,493,490,494,490
492,559,489,495,491
493,629,490,495,491
494,639,489,495,489
492,628,490,495,494
494,563,491,495,490
493,457,491,496,489
493,400,490,495,489
495,367,490,494,491
492,367,491,494,494
492,376,490,494,492
494,399,491,496,493
492,456,490,495,493
492,518,490,494,491
492,598,488,495,489
492,638,489,494,491
493,637,491,496,492
494,609,490,495,493
494,515,491,496,493
494,425,490,494,491
494,386,490,497,492
492,367,489,494,492
494,372,492,494,491
493,381,492,494,489
493,421,491,494,490
493,485,490,495,491
493,550,489,493,489
492,625,492,493,492
493,642,491,496,491
492,631,491,497,492
492,578,492,497,491
493,472,491,496,491
494,405,491,494,491
493,370,489,496,490
493,364,490,495,492
494,373,489,495,492
495,395,489,494,490
493,449,491,494,492
491,511,490,494,489
494,590,491,496,490
492,637,492,494,491
493,636,491,491,490
495,623,491,499,492
496,527,492,497,493
494,434,492,494,492
494,392,490,496,493
493,367,490,496,491
492,371,491,494,490
494,380,493,496,488
492,415,490,495,493
492,477,489,494,491
492,541,489,494,490
494,616,489,494,491
495,640,490,494,489
493,633,492,496,493
494,587,493,495,492
494,482,491,496,492
493,412,490,496,491
492,375,491,496,490
493,367,489,496,492
493,371,490,494,492
492,393,491,493,491
493,442,490,494,490
493,504,489,495,492
493,577,490,493,490
493,634,491,496,490
492,637,490,494,492
493,625,493,496,490
493,540,493,496,491
493,442,490,495,491
492,396,490,496,491
495,365,488,496,490
492,368,489,495,491
492,379,491,496,493
492,410,492,495,492
492,468,491,495,491
493,531,490,494,491
492,611,491,495,493
493,642,489,495,491
495,632,488,495,492
495,592,489,495,493
495,494,491,497,493
493,416,490,496,493
493,377,491,494,490
492,367,491,496,491
493,373,492,496,491
493,386,492,495,490
494,436,490,495,491
493,497,490,496,492
493,569,489,494,491
495,631,490,495,492
494,640,490,496,493
493,629,491,495,492
495,556,492,497,493
495,451,491,495,492
493,399,492,495,491
493,368,493,495,491
494,365,490,494,492
494,376,490,496,491
492,405,490,495,492
494,462,491,494,491
493,525,490,496,492
492,606,490,496,492
493,641,491,496,491
494,636,490,496,491
493,602,492,497,494
494,508,492,496,493
494,420,491,496,492
494,382,490,494,493
496,367,492,495,490
494,372,491,496,492
494,381,490,493,491
492,431,492,496,493
493,489,491,496,491
493,557,491,495,493
495,629,490,495,492
495,640,492,497,492
494,631,490,495,494
496,569,491,496,493
494,461,491,496,494
494,404,490,496,493
495,369,491,493,492
492,368,491,495,492
495,377,492,494,491
493,399,492,494,491
493,454,491,495,491
493,516,490,495,491
492,596,489,494,491
493,639,491,494,491
493,639,490,496,492
491,617,491,498,494
493,520,491,497,492
494,428,491,496,491
493,387,490,496,494
494,366,491,494,491
494,370,490,494,491
494,380,489,494,493
495,422,491,495,491
493,482,491,495,491
494,547,489,495,490
492,625,492,495,488
493,641,492,495,491
494,631,491,495,493
494,581,491,497,493
494,473,492,496,492
494,409,491,496,493
495,371,489,494,492
494,366,490,496,492
493,375,491,496,491
495,393,490,496,491
492,448,490,494,492
493,511,491,494,490
493,585,491,494,490
493,636,490,494,492
495,640,492,496,491
494,622,490,494,491
494,533,492,495,494
494,436,490,495,493
493,394,491,497,491
492,368,492,495,492
495,370,492,495,491
493,378,490,496,493
494,413,490,494,491
494,474,490,494,491
493,538,489,494,492
494,616,490,494,491
493,642,491,496,492
492,635,490,494,492
496,591,493,496,492
494,487,493,496,493
494,412,492,495,492
494,377,490,496,494
493,364,490,494,491
492,373,491,495,493
494,389,489,495,492
493,440,490,494,492
493,501,490,493,491
494,573,491,495,491
492,634,490,494,492
494,640,491,494,490
494,626,493,494,490
494,544,492,496,492
494,446,492,496,492
494,396,490,496,491
492,368,490,495,494
493,370,491,496,492
492,378,492,496,492
491,408,491,495,491
493,465,491,494,491
492,529,491,494,493
493,611,490,493,491
495,641,490,494,492
494,634,490,495,493
495,596,490,495,491
494,499,491,496,492
493,416,491,495,492
493,381,492,496,491
492,366,492,494,491
494,371,492,494,491
493,385,490,496,491
495,432,491,495,491
493,494,489,493,491
494,565,489,494,490
494,631,491,495,493
493,640,490,494,493
496,631,492,497,492
496,558,492,496,493
494,455,492,495,492
493,401,491,494,491
493,366,492,494,492
494,366,490,496,491
492,378,490,494,493
494,401,493,494,491
493,460,489,493,491
493,521,491,494,492
491,603,491,496,492
494,640,490,495,489
493,634,492,495,492
493,608,491,494,491
495,511,492,495,491
493,422,491,494,493
494,384,492,495,491
492,367,491,495,493
493,369,491,493,491
492,384,492,495,491
492,427,491,494,491
492,487,491,495,492
493,555,490,492,490
494,625,491,495,491
492,641,490,495,493
494,632,491,494,494
494,573,491,496,494
494,464,491,496,493
494,404,491,494,489
492,369,492,494,492
494,365,491,493,489
494,374,491,494,490
494,395,491,494,494
493,450,490,494,492
493,514,490,494,492
492,593,492,494,494
493,640,491,494,492
492,639,492,496,491
492,619,493,496,494
495,523,491,495,492
493,429,491,495,492
493,387,491,493,490
494,366,490,493,492
494,369,490,494,493
494,379,492,494,491
493,420,491,494,491
493,479,491,495,492
493,547,491,494,491
492,622,492,493,490
493,640,491,494,492
494,631,492,496,493
492,581,491,494,493
493,477,492,496,493
494,409,490,495,493
493,372,490,495,494
492,365,491,496,492
495,371,490,494,491
492,392,490,494,493
493,444,491,494,491
493,506,491,493,491
494,579,490,492,491
495,636,492,494,490
494,639,491,495,491
494,622,492,496,493
493,537,492,496,493
494,438,492,496,492
492,393,492,495,493
495,366,492,493,491
494,369,491,496,492
494,375,491,493,492
496,410,490,493,491
493,470,490,494,491
493,535,490,494,490
493,615,492,495,491
492,642,490,494,493
494,635,492,494,491
492,592,493,494,491
493,488,493,495,492
493,414,490,495,492
494,376,490,493,491
492,365,492,494,493
493,373,490,494,492
492,388,490,496,492
492,437,491,493,492
493,500,491,495,490
493,570,490,494,493
493,633,491,493,492
495,639,491,493,492
495,627,491,494,493
493,551,493,496,494
494,448,492,495,491
493,395,491,496,493
492,369,491,495,491
492,368,493,494,490
492,375,492,494,490
493,405,490,495,493
493,463,491,494,491
492,526,491,493,492
495,607,490,493,492
493,642,490,495,493
492,635,491,493,492
495,599,492,496,491
493,500,491,494,492
493,418,492,495,491
493,382,493,494,490
492,363,492,493,492
492,372,491,495,490
494,383,490,495,490
492,430,490,493,492
493,493,490,494,492
492,562,491,495,492
492,630,490,494,492
494,641,492,494,490
493,630,491,495,491
494,560,492,494,492
494,457,492,494,491
494,401,491,494,493
494,367,489,495,491
493,366,491,495,492
492,372,491,493,492
492,402,492,495,491
492,457,492,494,491
492,518,492,493,490
493,600,490,495,490
494,638,490,494,490
492,635,490,494,493
494,610,490,494,494
494,515,492,495,493
493,423,492,494,492
494,386,492,495,492
494,364,490,494,491
492,369,492,493,490
493,379,492,492,490
493,422,490,493,492
492,484,490,493,491
493,551,492,493,489
491,624,489,495,493
492,641,491,494,491
491,632,492,495,491
491,576,493,495,491
494,467,491,494,491
492,405,491,495,492
491,368,491,492,492
494,364,490,493,492
494,373,489,494,492
493,394,492,493,491
493,450,490,494,491
492,510,490,493,491
491,590,491,494,490
491,637,491,492,490
493,635,491,493,493
491,621,491,493,492
495,526,493,496,492
493,431,491,494,493
493,391,490,494,493
493,367,491,495,491
491,367,490,492,493
492,379,492,494,493
493,415,490,493,491
492,476,490,493,490
493,542,490,492,491
494,617,490,493,491
493,640,491,493,487
493,633,491,494,489
493,582,491,493,488
493,481,490,494,491
492,412,491,494,493
492,374,493,495,494
493,365,490,492,491
494,371,491,495,494
491,388,490,492,493
493,442,491,492,493
492,504,490,493,492
492,576,491,492,490
492,636,492,494,492
493,637,490,493,490
493,624,493,493,491
493,539,492,494,492
492,441,491,495,492
492,393,490,493,493
495,368,493,493,490
492,367,490,494,493
493,377,491,495,493
491,411,492,494,491
492,467,491,493,492
494,531,490,492,490
492,611,490,494,492
492,639,490,493,493
494,633,490,493,493
495,592,491,494,494
494,492,493,495,493
494,415,491,494,492
493,375,491,495,493
491,366,492,494,490
492,372,492,493,490
492,385,493,493,493
493,435,491,493,490
493,497,491,494,491
493,565,489,492,493
495,631,490,493,492
493,640,491,494,492
493,625,491,493,493
492,555,492,494,492
493,448,492,495,492
492,398,492,494,491
493,367,493,492,491
493,366,491,493,491
493,376,492,495,491
495,402,490,493,491
492,461,491,493,492
493,524,491,494,492
491,607,491,495,492
492,640,492,494,493
493,634,493,493,491
493,602,491,496,493
494,503,492,494,492
493,418,491,493,493
494,383,490,493,492
492,364,493,492,493
492,373,491,492,492
493,381,492,495,491
492,429,492,493,491
492,490,491,493,490
492,556,490,494,493
492,627,491,492,491
492,641,492,494,492
494,628,490,493,494
495,566,491,494,493
493,460,492,494,492
492,402,491,494,492
494,366,491,495,491
491,365,490,494,492
492,373,492,493,491
491,399,491,492,490
492,453,491,493,491
492,516,491,494,492
494,595,490,494,490
492,638,491,494,493
492,637,491,494,492
492,615,492,496,492
492,518,491,494,492
493,428,492,494,490
492,387,491,494,490
493,363,491,492,492
494,369,490,493,492
494,380,490,493,490
492,420,492,493,492
493,483,491,493,491
493,550,492,494,491
491,623,492,493,490
493,640,492,493,490
492,629,492,492,490
492,579,492,495,492
494,472,493,494,492
493,407,491,494,493
494,369,490,493,493
492,366,491,494,492
492,373,491,492,491
494,397,492,494,491
493,446,491,492,491
492,509,491,493,491
493,585,492,492,490
493,635,491,492,491
491,637,492,493,493
494,621,493,494,490
492,529,491,494,493
493,434,491,494,492
492,393,492,495,491
491,364,491,493,493
492,369,492,493,492
492,379,490,492,490
493,411,491,493,491
493,474,491,493,491
493,538,490,492,492
493,615,493,493,491
493,642,491,494,492
494,630,491,493,492
491,588,493,495,492
493,485,493,494,493
493,412,492,494,493
492,374,490,492,492
493,363,492,494,490
491,371,490,493,493
493,389,490,494,493
493,440,491,493,492
492,501,491,493,492
492,575,491,494,492
494,634,491,493,491
493,637,491,492,491
494,624,492,492,491
494,543,492,495,493
492,443,492,493,492
494,396,492,494,491
493,366,490,494,494
492,368,491,494,492
491,378,491,494,491
491,408,492,494,492
493,465,491,493,491
492,530,491,494,492
492,609,491,492,493
494,640,490,493,493
494,634,490,493,493
494,595,493,494,492
494,497,491,494,492
493,415,491,494,491
491,380,492,495,491
492,365,493,492,490
493,371,492,494,493
492,384,491,492,490
494,434,491,493,490
493,495,491,493,491
493,564,490,493,494
493,631,491,494,492
493,637,490,493,492
492,629,493,492,493
495,556,493,494,493
493,452,492,494,492
493,400,492,493,491
494,367,492,492,491
494,367,492,494,491
494,375,490,493,490
492,401,492,494,492
492,459,490,493,491
493,522,491,493,491
491,604,492,492,492
494,639,492,492,490
493,636,491,494,492
493,603,492,492,492
494,508,492,493,492
493,421,491,493,491
492,383,493,494,494
494,366,491,492,491
495,369,492,494,491
492,382,492,494,491
492,426,492,494,492
492,487,491,493,492
492,553,491,491,490
492,628,491,494,491
493,638,490,493,493
494,630,491,493,494
494,571,492,494,493
494,464,492,494,492
493,403,492,495,491
492,366,490,492,492
492,364,492,492,491
493,374,491,492,491
493,396,492,492,491
492,452,490,493,492
493,514,490,492,490
491,594,490,493,493
492,640,491,494,492
492,639,492,494,491
491,618,491,492,493
494,522,492,494,491
493,428,491,493,491
492,387,492,492,490
492,365,491,492,492
494,369,490,492,490
492,380,492,493,494
493,419,492,492,491
492,479,491,493,492
492,547,491,494,491
492,622,492,493,490
492,641,493,493,490
492,632,492,494,490
494,580,492,495,492
492,476,492,494,492
494,407,491,492,493
493,371,490,493,493
492,366,490,492,492
493,373,492,494,491
494,391,490,492,490
492,445,491,493,491
493,508,492,492,490
492,581,492,491,492
492,636,492,493,493
493,638,493,493,490
492,623,491,494,494
493,535,492,494,494
493,437,492,494,492
492,391,491,493,492
491,368,492,493,493
493,369,491,493,491
492,376,492,492,491
493,410,491,492,491
493,471,491,492,491
493,536,491,493,490
491,615,490,492,492
492,640,491,492,492
491,634,492,494,492
491,592,493,495,492
492,489,493,494,493
493,411,491,492,492
493,373,491,494,493
491,363,490,493,492
494,371,490,493,492
494,387,490,493,493
492,437,491,493,491
492,501,491,493,491
494,570,490,494,491
491,635,492,493,491
493,638,492,491,491
494,626,493,496,493
492,549,491,494,493
494,447,492,494,492
493,396,491,494,494
493,366,490,493,493
492,368,492,494,491
491,377,492,495,492
494,402,490,493,491
493,465,491,493,491
493,526,491,492,490
493,606,491,491,492
494,640,491,493,492
494,634,493,493,491
494,599,490,493,491
493,499,493,494,492
493,417,491,494,492
492,382,493,495,491
491,365,493,493,493
492,370,492,492,491
493,384,491,495,491
493,429,491,492,491
493,493,491,492,492
493,562,490,492,492
492,629,492,492,493
492,641,492,492,492
494,628,493,495,491
492,561,493,494,493
492,456,492,493,491
492,400,492,492,491
493,368,491,495,492
494,365,490,493,490
492,374,493,494,494
493,400,490,494,492
492,457,491,492,491
492,519,492,492,492
494,598,492,494,491
493,640,491,494,492
493,633,491,492,493
494,607,492,492,492
495,513,492,494,492
493,424,492,494,493
493,385,491,492,490
492,365,491,495,492
492,370,491,495,492
492,381,493,495,490
492,424,490,493,492
493,484,491,493,491
492,553,491,494,491
493,622,491,492,492
494,639,490,493,493
494,631,490,493,493
494,574,491,493,491
493,466,491,493,492
492,404,491,493,492
491,368,493,494,491
493,364,493,492,491
493,373,491,492,490
491,397,491,494,492
493,449,491,493,491
492,512,491,493,492
493,589,490,493,494
493,638,491,494,491
491,636,491,493,493
494,620,493,494,492
494,525,492,494,492
493,429,493,494,493
494,388,492,492,492
494,365,491,492,490
491,369,493,493,496
493,379,492,492,490
493,418,491,493,492
492,476,491,493,492
492,543,492,493,490
491,620,493,493,490
493,640,491,494,491
493,630,492,494,493
491,585,492,494,493
493,478,491,493,492
493,410,491,493,493
493,373,494,493,491
492,365,491,494,493
494,372,491,492,491
491,392,493,494,491
492,442,491,493,491
493,506,492,492,492
491,578,491,491,491
493,634,492,493,491
492,637,490,493,493
493,623,490,493,494
494,539,492,494,493
493,440,492,493,491
492,393,492,495,492
495,365,490,493,491
492,366,492,492,491
493,375,491,492,491
494,408,491,492,491
493,468,492,493,491
491,533,490,493,493
492,613,493,493,492
492,642,492,494,492
491,634,493,494,491
492,593,494,495,493
493,491,492,494,493
493,415,492,493,493
493,374,492,492,491
493,363,490,492,492
494,371,490,493,492
493,387,493,493,491
493,435,490,492,490
492,498,492,493,491
491,568,492,494,492
492,632,492,493,491
492,638,493,494,493
492,627,492,492,491
493,553,492,494,493
493,447,492,493,492
492,396,491,493,493
494,366,490,493,492
492,368,492,494,491
493,374,491,495,492
492,405,490,492,491
493,462,492,493,492
492,523,491,492,491
493,605,492,492,491
493,640,492,494,491
494,633,490,493,491
492,602,494,494,494
493,503,492,494,493
493,419,491,494,493
492,383,493,492,491
494,363,493,493,491
492,371,491,494,493
493,380,492,492,491
493,427,491,493,491
493,490,491,492,491
491,559,492,493,493
493,627,491,492,491
493,639,492,494,492
491,629,493,495,492
491,567,493,494,492
492,460,492,493,491
492,401,491,494,493
493,366,492,491,492
491,367,493,493,493
493,374,490,493,493
494,398,490,492,493
492,454,491,493,491
492,515,491,493,491
491,596,490,491,492
492,638,492,492,491
493,635,492,491,491
493,611,492,492,492
491,518,492,495,492
493,426,491,493,491
492,387,491,493,493
493,366,491,494,492
491,370,491,493,492
492,382,490,492,492
494,420,492,492,491
493,482,491,492,490
492,548,491,491,490
493,620,491,492,492
493,640,490,492,493
493,631,491,492,490
492,576,491,494,494
493,471,493,493,491
492,406,492,494,492
491,371,491,494,492
491,366,492,493,490
493,372,490,493,491
491,393,493,493,493
492,448,492,492,491
492,509,491,492,491
493,584,490,491,490
493,636,492,493,491
491,636,490,493,493
493,621,493,493,493
492,528,492,494,494
493,432,491,493,493
492,391,492,494,491
494,363,491,493,491
492,368,490,493,492
492,377,492,492,490
492,412,491,492,491
492,474,490,492,491
493,539,490,491,491
490,618,493,494,493
493,641,491,491,491
494,631,492,495,493
491,588,492,495,493
493,482,492,494,492
492,412,491,493,493
493,372,493,493,491
493,364,491,494,492
493,369,491,492,492
494,386,491,491,492
494,440,491,492,491
492,502,491,493,493
493,574,492,492,490
492,635,491,493,492
492,638,492,494,492
491,625,492,495,492
492,541,491,493,492
491,439,491,493,492
493,394,491,492,491
491,366,494,492,491
493,364,491,491,492
493,375,491,492,491
494,405,492,493,491
492,465,491,492,492
492,531,492,491,492
492,611,490,493,492
492,641,491,493,491
492,635,493,493,492
494,592,491,494,492
492,495,491,492,492
493,415,493,493,491
492,376,492,492,490
493,363,490,492,491
494,372,493,493,491
493,384,490,493,490
492,433,492,493,492
493,494,491,493,492
491,566,491,494,492
491,631,492,492,491
493,638,492,492,491
493,629,491,494,494
493,553,493,493,492
492,451,492,494,492
493,398,491,492,492
494,367,491,492,491
491,367,493,493,492
493,376,492,492,490
492,403,491,494,492
492,459,490,492,491
492,522,492,493,490
491,601,490,491,492
492,640,492,492,493
492,636,491,491,491
493,602,492,492,492
494,507,492,493,492
492,422,492,494,490
491,383,490,492,493
494,366,492,492,491
492,371,492,494,491
491,381,491,494,491
492,427,491,493,491
493,486,491,493,491
492,554,492,492,493
493,627,492,491,490
493,638,491,493,492
494,629,490,491,493
495,569,491,493,492
494,463,493,493,491
494,404,491,494,491
493,368,493,494,492
491,366,492,494,491
492,375,491,493,490
491,399,493,492,492
493,451,491,493,491
492,514,490,492,492
493,592,492,492,490
493,636,491,492,492
494,635,490,492,492
492,617,493,493,494
493,521,491,494,491
492,428,491,493,492
492,387,491,495,493
492,367,491,494,491
492,370,491,493,492
492,377,492,492,490
492,419,491,493,491
492,479,491,492,491
493,544,491,492,491
494,619,490,493,492
494,642,491,492,490
493,629,491,494,494
493,579,492,493,492
492,474,492,494,492
492,408,492,493,491
492,372,493,493,491
493,365,491,494,492
494,371,491,494,492
491,395,491,492,492
493,444,491,493,492
493,508,491,493,493
492,584,492,492,490
493,636,492,493,491
494,638,491,493,490
493,622,494,494,491
493,532,493,494,492
493,437,492,493,493
492,393,493,494,493
495,365,492,493,491
493,369,492,494,493
492,378,491,495,493
491,413,491,494,492
492,472,491,492,491
493,536,490,492,490
492,615,493,493,492
492,642,491,492,492
494,631,490,491,494
495,588,491,493,492
494,488,493,494,491
491,412,491,494,493
493,374,492,492,492
492,365,493,494,490
491,372,493,492,491
492,388,493,491,493
492,438,491,493,491
492,501,491,493,491
492,572,490,491,492
494,633,491,494,493
492,640,492,494,493
492,625,493,493,492
492,547,493,494,493
494,446,492,493,492
493,396,493,494,491
492,365,493,492,492
494,366,491,492,492
494,376,493,494,490
491,404,490,492,493
493,466,491,491,493
492,528,491,492,493
491,610,491,495,491
492,641,492,493,492
493,633,491,493,491
492,597,491,495,493
493,497,493,493,491
492,414,492,493,491
494,378,491,492,490
495,366,494,493,489
493,370,491,494,492
493,382,492,494,494
491,432,492,494,493
492,493,491,493,492
492,562,492,492,493
494,630,491,492,492
493,641,492,494,492
494,627,490,492,493
494,559,491,494,493
492,454,492,493,493
493,401,492,494,492
493,365,492,495,492
492,366,490,493,493
494,374,493,493,490
492,399,493,492,492
493,457,492,492,491
493,521,492,494,490
494,599,491,492,490
493,640,492,494,492
492,637,492,495,493
492,609,492,495,495
492,513,493,493,493
493,422,493,495,492
492,384,491,493,494
492,364,492,491,492
493,367,491,492,493
494,380,490,492,493
492,426,493,493,492
493,484,491,492,491
493,553,491,494,492
492,627,492,494,491
492,639,493,492,491
492,630,492,492,491
492,574,491,494,493
493,465,492,493,493
492,406,492,492,492
495,367,490,492,493
493,366,491,493,493
493,375,491,491,491
493,393,492,494,492
492,450,491,492,491
492,513,492,492,491
492,589,492,492,491
493,636,492,492,492
492,637,493,494,493
494,616,491,494,491
493,526,492,494,494
493,431,492,494,493
493,390,492,495,493
491,367,490,492,493
493,368,493,493,491
492,379,491,493,490
493,415,491,492,491
492,477,491,492,491
493,542,490,491,492
494,618,490,492,490
492,640,491,494,493
492,631,491,491,491
491,585,493,495,492
493,477,492,493,492
492,410,492,493,491
493,372,491,493,490
493,362,492,494,492
491,374,491,492,492
494,389,490,492,493
493,442,491,492,492
493,506,492,491,491
493,580,491,494,493
494,635,490,492,491
492,638,493,493,490
493,622,493,492,492
493,537,492,493,493
493,440,492,492,492
493,391,492,494,491
492,366,491,493,492
492,368,492,494,493
492,377,492,495,492
492,410,492,493,491
493,468,491,493,492
492,533,492,493,493
493,614,492,492,492
493,639,491,493,493
494,632,490,493,493
495,591,494,494,492
493,490,492,494,494
492,413,493,492,492
492,377,493,495,493
492,364,493,493,491
492,371,492,492,493
493,385,491,492,491
492,434,490,493,492
493,498,491,492,491
493,567,490,492,492
494,630,491,493,493
493,638,492,491,491
491,628,492,495,492
494,548,492,494,492
492,448,492,494,492
492,396,492,493,491
492,366,493,492,491
493,366,492,494,492
491,374,490,492,493
491,405,492,492,492
492,461,491,492,491
492,524,491,493,493
492,607,491,494,491
493,639,491,493,491
493,634,491,494,493
494,599,494,493,492
493,501,493,494,492
493,418,492,493,492
494,383,493,495,490
494,364,491,494,491
493,369,492,493,492
492,384,492,494,492
491,429,491,493,492
492,489,491,492,492
493,558,493,492,490
491,628,491,494,493
493,639,491,492,492
493,627,490,492,493
494,563,491,493,492
494,458,491,493,491
492,401,492,494,493
492,368,491,491,491
494,366,492,493,491
492,374,492,493,491
491,398,493,492,491
492,455,491,492,491
492,516,491,492,491
491,599,492,492,492
493,638,491,493,493
492,636,491,494,492
492,612,491,492,492
494,515,492,495,493
492,422,491,492,492
493,385,493,493,490
491,364,492,492,491
493,367,491,492,492
492,381,493,494,492
494,421,491,494,490
493,482,491,493,491
492,551,492,494,491
492,623,492,494,494
492,640,493,493,492
493,631,491,494,495
493,575,493,493,494
493,469,492,494,492
493,404,491,493,493
494,368,490,492,493
494,366,491,492,491
492,372,492,494,493
491,392,490,491,491
492,450,491,494,491
492,510,492,493,490
491,586,493,492,490
493,638,491,494,491
494,635,490,494,491
491,622,491,492,492
494,528,492,493,492
492,433,491,493,492
493,391,492,492,490
493,367,492,494,493
494,368,490,493,492
492,378,493,492,490
492,414,492,492,491
492,474,491,492,491
493,539,490,493,490
491,619,490,493,493
493,640,492,492,492
491,634,492,496,493
492,588,493,496,493
492,483,493,494,493
494,411,492,494,491
493,371,493,494,494
492,367,491,492,492
493,372,490,493,492
493,388,489,492,493
493,441,492,493,491
492,503,491,493,492
493,574,490,491,492
492,637,493,494,491
492,638,492,493,490
493,624,493,493,494
493,543,492,493,491
492,440,491,494,492
492,394,491,493,493
494,366,490,493,493
492,368,490,494,493
492,378,491,495,493
494,406,490,492,491
492,467,491,492,492
493,532,492,492,490
492,610,492,492,491
493,640,490,493,493
494,634,493,493,491
491,593,491,494,495
493,494,492,493,492
492,416,491,494,492
492,379,492,496,492
491,365,493,493,492
493,372,491,492,491
493,382,490,495,492
492,433,491,492,490
493,496,491,492,492
493,564,490,493,493
493,632,492,492,491
492,640,493,495,492
494,626,491,495,492
492,557,493,495,492
492,452,493,495,492
492,398,492,493,491
493,367,491,494,492
491,364,491,493,492
492,376,492,494,493
494,402,490,493,492
492,458,491,493,492
493,522,491,494,490
493,603,491,494,492
492,640,490,493,493
493,636,493,492,490
492,604,493,493,491
493,507,492,494,493
493,421,491,494,491
493,381,491,492,491
491,365,492,494,493
492,372,491,494,492
491,382,491,495,492
491,427,491,492,491
493,488,491,493,491
492,556,490,493,493
493,626,491,492,491
494,638,490,493,493
494,629,490,493,494
495,569,492,494,492
493,462,492,494,493
493,403,491,493,492
494,369,492,495,491
491,365,493,493,491
492,372,492,493,491
493,399,491,495,492
492,452,491,493,491
492,515,491,492,491
494,594,490,492,492
492,638,490,494,493
492,636,492,491,492
494,613,492,495,492
492,518,491,493,492
492,427,492,493,490
492,386,492,493,490
492,364,491,492,492
491,370,492,494,491
493,378,490,494,490
492,419,491,493,492
493,481,491,493,491
492,547,491,494,491
491,621,491,493,491
492,640,490,494,493
493,630,492,493,494
493,580,491,493,492
493,472,492,494,491
493,406,491,493,493
494,370,490,493,490
492,364,491,494,492
491,371,491,492,491
491,395,492,494,491
492,446,492,493,491
492,507,491,492,491
492,584,490,493,490
493,634,491,493,491
492,637,490,493,493
494,622,491,494,494
493,533,492,495,493
493,435,492,493,491
493,392,493,495,492
494,364,490,493,490
493,368,493,492,491
493,376,493,492,490
493,410,491,492,491
493,472,491,492,491
492,538,490,492,492
494,617,492,493,491
492,642,492,494,492
491,633,493,494,492
491,590,493,494,492
494,485,492,493,492
492,412,492,493,493
492,374,492,491,490
493,363,491,493,492
493,371,491,493,492
494,387,493,492,490
492,439,491,493,492
492,500,491,492,491
492,574,492,493,490
491,634,493,493,491
493,637,492,492,493
492,628,492,492,491
495,543,493,495,493
493,444,492,493,493
493,396,492,494,493
493,366,490,494,493
491,368,491,494,493
494,375,491,493,491
491,406,493,493,492
493,464,491,492,490
492,527,491,491,491
493,607,491,492,492
494,640,492,493,490
492,634,491,494,493
492,596,492,493,493
493,498,492,494,492
493,416,491,494,491
492,379,492,494,492
495,364,490,492,490
493,368,491,494,492
492,380,490,491,492
494,431,491,492,491
493,494,491,492,492
493,561,492,491,491
492,631,492,494,492
493,638,490,493,490
492,627,493,493,490
492,559,493,493,492
492,454,492,493,491
492,400,492,494,491
491,365,490,493,492
492,365,492,492,494
492,376,491,494,493
491,401,491,494,491
492,456,490,492,491
493,519,490,493,490
491,600,490,492,492
492,639,491,491,491
493,634,491,492,492
494,606,491,493,493
494,512,492,494,493
493,422,491,494,492
492,382,492,495,493
492,367,492,494,490
491,370,492,493,491
492,381,493,492,494
493,426,492,492,490
492,484,491,493,492
493,553,490,491,491
494,624,491,493,492
492,640,491,493,493
492,631,491,494,491
494,571,491,495,494
492,465,491,493,492
493,405,492,493,491
492,368,494,493,491
492,363,491,492,491
493,375,492,493,491
494,394,490,492,491
493,451,491,492,491
492,513,491,493,491
491,591,491,494,493
491,637,491,492,492
493,636,493,493,490
493,616,491,494,495
494,523,492,493,492
493,431,492,493,492
493,387,491,493,493
491,367,492,492,492
492,369,491,492,491
493,376,492,495,492
491,419,492,493,491
492,477,491,493,491
491,543,491,493,490
491,620,490,493,492
493,639,491,492,492
491,632,492,492,492
495,582,491,493,492
493,476,492,493,493
493,409,491,492,492
493,371,491,494,493
491,362,490,492,492
492,374,492,493,490
491,392,493,493,490
492,443,492,492,492
493,507,490,493,491
493,578,490,494,492
491,636,490,493,493
493,639,492,494,493
491,624,491,495,493
492,537,491,493,492
493,438,492,493,492
493,392,491,493,491
492,367,492,492,491
494,366,491,492,491
493,376,491,491,491
494,409,490,492,491
492,471,491,492,492
493,534,492,492,491
492,616,491,493,491
491,641,492,494,490
492,632,493,493,491
494,591,491,494,492
493,489,493,494,493
495,413,492,493,492
494,375,491,491,491
493,364,491,493,493
493,371,492,491,491
493,388,492,495,492
493,435,491,492,492
492,499,491,493,490
492,571,493,493,490
491,632,492,492,492
492,640,492,492,491
494,625,492,495,490
491,547,491,493,491
494,448,492,492,492
493,397,491,494,496
492,368,490,494,493
493,365,490,492,491
492,375,492,492,493
494,404,491,492,491
492,462,492,492,491
492,524,491,492,491
494,605,491,494,491
492,640,491,493,492
493,633,492,492,493
493,602,492,495,493
492,502,492,495,493
493,418,492,494,493
494,380,491,493,490
491,363,491,494,493
491,368,490,491,492
494,382,490,491,492
493,428,491,492,491
493,491,491,493,492
493,561,491,494,490
493,627,490,494,492
492,641,492,493,491
492,629,493,494,490
491,564,493,493,492
492,458,491,493,493
492,401,492,492,492
491,368,492,495,492
494,366,490,493,492
493,374,490,494,493
492,399,490,493,491
493,454,491,492,491
492,517,490,492,492
493,599,492,492,490
492,638,492,492,491
493,633,491,492,492
494,613,492,495,492
494,515,492,493,492
492,423,492,492,493
493,386,491,494,493
492,366,492,495,491
491,369,492,492,493
494,379,493,493,490
492,422,490,493,492
493,483,491,492,491
493,550,490,491,491
494,621,490,493,493
493,641,490,494,491
494,630,492,494,493
492,577,492,493,493
494,470,492,494,492
492,407,493,493,491
492,369,494,494,491
492,366,491,494,493
493,372,491,492,492
490,397,492,492,493
494,448,491,491,491
492,510,491,492,492
492,586,490,491,490
493,636,492,493,491
491,635,490,493,493
492,621,493,493,491
492,527,493,493,492
492,431,492,493,491
492,391,491,494,491
494,365,491,493,490
492,367,490,493,493
492,379,491,493,493
492,415,491,494,491
492,473,491,493,492
492,540,490,492,492
492,618,493,493,492
492,641,492,491,492
494,631,490,492,492
495,583,491,494,493
493,480,492,494,493
492,412,492,494,493
492,370,492,492,490
492,366,492,493,491
491,372,493,493,490
492,389,493,492,491
492,441,490,493,491
492,503,492,493,490
491,577,490,492,492
494,635,490,493,492
492,638,492,494,493
491,625,492,492,491
494,542,492,494,493
493,438,492,493,492
492,394,492,493,491
492,366,493,491,490
493,365,491,491,492
493,374,491,494,491
491,410,490,492,492
492,467,491,493,491
493,532,491,493,492
491,612,491,494,491
491,640,493,493,490
493,633,490,493,490
492,592,493,495,493
492,492,492,493,491
493,414,491,492,492
493,377,491,492,492
493,363,492,492,491
493,373,491,494,492
493,382,490,492,491
492,436,492,493,491
492,497,492,493,490
492,565,492,491,493
493,633,492,492,492
494,639,493,493,490
492,627,490,493,494
494,555,491,494,493
493,451,492,494,493
492,398,492,494,492
494,366,491,492,490
491,366,492,493,493
492,375,492,491,491
493,401,491,492,491
493,459,492,492,492
492,521,491,493,490
491,605,490,492,492
493,639,491,492,493
492,637,492,494,491
491,605,493,495,491
491,506,492,494,492
492,419,490,493,491
492,381,491,494,494
492,363,490,492,493
494,370,490,492,492
493,381,490,492,493
492,427,492,492,491
493,489,491,493,491
493,555,490,494,492
491,629,492,492,491
493,640,492,492,491
493,628,492,492,491
493,567,492,495,493
493,461,493,493,491
492,403,492,494,493
494,368,490,493,493
492,367,492,494,491
491,374,492,494,492
494,396,490,493,492
492,454,491,492,491
493,516,491,492,490
493,596,492,491,490
494,637,491,492,492
493,636,493,493,490
494,613,491,492,490
492,518,492,493,494
493,427,491,493,492
492,388,492,494,492
491,366,492,492,493
494,369,493,492,490
493,379,489,493,493
493,418,490,492,491
493,481,491,492,491
493,547,490,492,491
494,621,490,493,491
493,640,491,493,492
491,632,490,492,492
495,581,493,494,491
492,473,492,493,491
492,408,492,493,491
492,370,490,494,492
493,363,490,493,491
491,372,492,493,493
494,393,490,493,492
492,446,490,492,491
492,507,490,492,491
494,582,491,493,491
491,636,490,493,493
493,636,491,492,491
494,620,492,492,492
494,532,492,493,491
493,435,492,494,492
494,392,491,493,491
491,367,491,493,493
491,369,491,493,492
492,379,491,494,491
491,412,492,493,491
492,471,490,492,492
492,538,492,491,492
492,616,490,491,492
494,641,490,492,493
494,632,490,493,493
494,587,490,492,492
493,485,491,493,492
492,410,492,492,492
492,374,492,494,492
492,365,492,492,491
492,371,492,492,491
491,387,490,493,490
493,438,491,493,491
492,500,491,492,492
493,573,489,491,492
494,634,491,493,492
492,638,491,491,492
494,628,493,495,492
495,543,492,493,493
493,443,492,494,492
493,395,493,493,491
492,366,492,492,491
494,365,490,494,491
492,377,490,493,493
493,406,492,492,491
493,466,491,493,492
493,529,491,493,491
491,610,491,494,491
494,639,490,493,491
493,633,492,494,493
492,596,492,493,492
493,496,492,493,491
492,416,491,492,491
493,378,493,495,491
492,365,491,494,492
493,370,492,492,492
492,385,491,494,491
492,433,491,493,491
492,494,492,493,492
493,562,490,491,490
493,630,492,494,491
491,637,490,493,492
494,628,490,492,493
495,558,491,493,492
493,452,492,493,493
492,399,491,492,492
491,368,492,493,492
494,364,492,492,491
493,374,492,493,489
492,399,492,492,490
492,456,490,493,491
492,521,490,492,492
491,602,492,493,493
493,641,491,494,492
493,637,492,494,491
492,608,493,496,493
494,508,491,494,492
493,422,491,493,493
492,381,492,492,491
492,364,491,492,492
494,369,491,492,492
493,380,493,494,491
493,427,490,492,491
492,485,491,493,492
492,555,491,494,491
492,627,492,493,490
492,640,492,493,490
493,627,491,493,494
493,570,492,492,492
492,464,491,493,492
493,403,491,492,492
494,367,490,492,492
494,366,491,494,491
492,372,491,493,491
491,399,491,492,491
493,452,491,493,491
492,514,492,492,490
492,591,492,491,490
