Sensor0,Sensor1,Sensor2,Sensor3,Sensor4

491,492,491,492,511
490,493,492,492,590
490,494,492,494,492
494,372,490,494,494
492,364,490,493,492
492,375,491,493,4
492,493,476,492,494
492,492,410,491,494
492,494,372,490,494
494,492,364,490,493
492,492,375,491,493
493,495,394,490,493
493,493,446,490,493
492,493,507,491,493
491,495,581,490,495
491,492,636,490,494
493,494,637,492,492
491,494,622,492,492
491,494,533,492,494
493,494,438,491,494
492,494,393,490,493
491,492,369,492,494
494,493,372,491,495
492,491,380,491,495
492,491,413,491,494
492,493,472,490,493
491,494,535,492,493
490,494,615,490,494
491,494,639,490,493
492,494,630,490,493
492,495,588,490,493
492,494,489,492,494
492,493,413,491,493
493,494,378,491,495
492,492,367,492,494
491,492,373,492,494
491,493,389,489,494
493,493,438,491,493
493,493,501,490,493
492,495,571,489,492
492,495,632,491,494
492,492,638,490,492
492,495,624,491,495
492,492,545,490,494
492,493,446,491,493
491,493,398,492,493
491,492,368,492,493
491,494,367,490,492
492,492,380,492,493
492,495,405,491,493
491,493,465,490,492
490,492,527,490,493
491,492,608,490,494
492,492,639,489,493
491,492,633,491,492
493,493,597,489,492
491,493,499,491,493
491,493,417,491,493
491,493,380,489,494
491,492,367,490,494
492,492,370,491,492
492,492,386,491,495
491,492,433,491,494
492,493,493,491,494
491,494,562,490,493
490,493,627,491,494
492,492,639,489,492
492,494,627,489,492
493,494,560,490,494
492,493,455,490,493
492,493,401,490,492
491,491,370,491,495
492,494,366,489,493
490,493,376,492,493
490,492,400,491,492
491,492,456,490,492
491,493,519,490,492
491,494,600,491,494
491,493,639,490,493
491,492,634,491,494
492,492,609,490,495
493,494,511,491,493
491,492,424,491,492
492,493,385,491,492
490,493,366,491,492
491,494,370,491,493
492,494,380,493,494
491,493,426,490,493
492,492,485,490,493
493,493,553,491,494
492,493,625,492,493
490,492,638,491,493
490,492,627,491,493
494,493,575,491,493
492,493,466,490,494
493,494,405,490,493
492,494,368,489,492
492,493,367,489,494
493,493,375,490,491
492,491,398,490,492
491,493,450,489,493
491,492,513,491,492
490,491,588,491,493
490,492,635,490,494
492,492,634,490,492
492,491,619,492,495
493,494,524,490,493
492,493,432,490,493
492,492,390,490,495
491,494,366,490,494
490,492,370,489,493
493,493,380,492,492
491,493,417,491,492
491,493,477,491,493
491,493,541,490,492
492,492,620,492,492
492,493,640,490,492
492,494,628,491,494
492,492,585,492,495
491,492,478,491,494
492,492,410,490,493
493,493,372,492,492
490,491,366,491,494
492,494,372,490,492
492,494,390,489,492
492,493,442,490,492
491,493,505,491,493
491,492,579,490,491
491,494,635,491,493
491,493,636,492,492
490,493,621,492,492
490,493,538,490,493
493,493,440,491,492
492,492,393,492,493
493,495,367,489,493
493,492,370,491,494
492,491,378,491,495
492,491,411,490,492
492,494,470,491,493
492,494,533,490,493
491,494,612,491,491
491,494,639,490,492
492,494,631,489,494
491,492,591,492,494
492,492,491,491,493
492,493,415,490,494
491,492,379,492,495
491,491,366,492,493
491,493,373,490,494
492,493,385,491,492
491,491,437,491,492
491,493,499,490,491
491,493,568,489,492
493,493,631,491,492
492,494,637,491,494
490,492,625,489,493
493,492,550,492,493
491,492,449,491,493
491,492,397,490,492
492,494,366,490,492
492,493,370,492,493
492,493,377,491,492
491,493,407,490,494
492,492,464,491,494
492,492,524,492,493
491,492,606,489,492
493,492,639,491,493
491,492,634,492,492
493,495,599,489,492
493,494,503,491,493
492,492,419,490,492
491,492,382,490,494
493,492,364,490,492
492,492,374,491,493
491,493,385,493,493
489,492,430,491,493
491,493,491,490,493
491,493,558,490,494
490,491,629,489,493
493,493,640,490,493
492,492,629,491,494
493,492,566,491,495
493,493,457,490,492
491,492,402,492,493
493,493,368,490,492
491,494,366,490,493
492,494,375,490,493
492,495,399,489,493
491,493,457,491,493
492,493,517,491,492
491,492,600,491,493
492,492,639,492,493
490,492,634,492,492
490,493,612,490,494
491,494,515,492,494
492,493,425,490,493
491,494,387,490,492
492,495,368,490,494
493,492,371,491,492
491,494,383,490,494
492,494,422,490,493
491,492,483,490,493
491,492,551,491,492
489,492,621,491,492
491,493,638,490,494
492,492,632,489,492
492,495,577,493,494
492,494,470,490,494
492,493,408,491,494
492,492,372,491,495
491,494,366,489,493
491,493,375,492,494
493,493,396,491,491
491,494,449,491,492
491,493,510,491,493
492,494,585,492,493
490,493,638,490,493
492,494,634,490,492
492,492,622,492,495
491,492,529,492,494
492,493,433,491,493
493,493,391,490,492
491,492,367,491,494
492,491,368,489,492
493,494,379,489,492
493,494,416,490,493
491,493,474,490,493
492,493,539,490,491
492,492,619,491,492
492,494,639,491,493
490,493,630,492,491
490,493,585,492,493
492,493,481,490,493
492,492,412,490,492
492,492,375,492,494
493,494,367,490,494
493,492,375,491,494
491,492,391,491,496
492,494,441,490,493
492,493,504,491,493
492,493,574,491,491
491,494,633,490,492
492,494,636,490,493
493,493,623,493,493
491,494,541,490,493
491,493,440,491,494
493,493,395,491,494
492,492,369,491,493
490,493,367,492,493
490,493,377,490,494
493,492,407,491,492
490,492,467,490,493
491,494,531,489,492
491,494,610,489,492
491,493,640,490,494
492,494,630,489,494
491,492,595,490,493
493,494,493,492,494
492,493,416,491,492
491,493,378,492,492
490,493,367,491,494
491,495,372,490,493
490,493,386,492,493
493,492,435,490,493
492,493,497,491,493
491,492,566,492,492
493,495,628,492,492
491,493,638,491,494
491,494,624,490,492
491,495,552,491,493
492,494,451,491,493
491,493,399,490,493
491,492,369,492,493
493,492,369,490,492
491,493,377,491,494
491,491,405,492,493
491,492,460,491,493
491,492,521,490,493
493,493,602,491,491
492,492,639,491,493
493,494,633,489,493
493,494,603,490,493
493,493,506,491,493
492,493,420,490,494
491,492,382,490,492
491,491,366,492,492
491,493,371,492,492
492,495,381,492,492
490,492,430,491,493
491,493,490,490,494
491,493,557,490,493
494,494,627,490,494
492,492,639,492,494
491,492,628,492,495
492,491,567,490,493
492,493,462,491,493
492,493,403,490,492
492,493,368,492,492
491,494,366,490,492
492,493,375,490,494
491,492,400,489,493
492,493,454,491,493
491,492,515,490,493
492,492,595,490,494
491,492,638,492,493
490,493,634,490,494
490,494,613,492,494
493,492,519,490,493
492,493,429,490,493
492,494,389,490,492
492,494,367,491,493
491,493,372,490,494
492,494,380,490,492
491,492,422,491,494
492,493,482,491,493
491,493,548,491,492
490,493,618,491,494
492,492,641,489,493
492,494,630,492,493
490,494,579,490,494
493,493,474,490,493
492,493,409,491,494
492,494,370,489,492
491,493,367,492,493
493,493,374,491,492
491,493,394,491,491
491,493,447,490,492
491,493,508,490,493
491,492,584,489,492
492,492,635,491,492
493,492,638,491,495
492,492,623,491,495
491,492,533,492,494
492,493,436,490,493
491,493,392,491,494
493,492,365,490,492
492,495,368,490,493
492,494,380,490,492
493,494,414,490,493
492,493,473,491,493
493,493,539,491,492
491,494,613,491,494
491,492,640,491,492
490,493,631,491,491
490,493,586,490,495
494,493,485,491,494
492,492,413,491,494
493,493,375,489,492
493,494,368,490,494
493,492,375,490,494
491,494,386,489,494
491,492,441,490,492
491,492,501,491,493
491,492,572,491,492
490,493,633,490,492
492,494,637,491,494
491,494,625,489,493
490,493,543,492,494
493,493,444,490,493
493,492,397,491,494
492,492,369,492,494
490,492,368,490,494
493,494,377,491,492
491,492,408,490,494
492,493,465,490,493
492,494,528,490,493
493,494,608,489,494
491,493,638,490,494
492,492,633,489,492
492,494,596,492,495
491,493,497,491,494
492,493,417,491,493
491,493,380,490,495
494,494,364,489,493
490,492,373,491,493
493,493,384,488,493
493,493,434,489,493
492,493,494,490,492
491,493,560,491,494
492,492,629,490,494
492,493,637,491,492
491,494,625,490,492
491,494,558,490,493
491,493,454,491,494
491,492,401,491,493
493,494,369,492,493
492,493,368,491,495
492,492,377,492,495
491,492,403,493,493
490,492,457,490,494
492,493,521,491,493
491,492,602,491,493
491,494,637,489,493
493,493,634,490,494
492,493,606,490,493
491,493,508,490,494
493,493,421,490,493
491,492,384,492,495
491,492,366,492,493
490,493,371,492,492
491,491,383,489,495
491,494,425,490,494
491,493,486,490,493
491,493,553,489,493
492,494,624,490,494
492,492,639,491,494
491,492,626,489,492
492,492,573,493,494
492,493,463,491,494
491,492,403,491,493
491,494,368,491,492
491,494,366,489,494
490,492,375,490,493
493,494,399,492,493
490,493,452,490,494
492,493,514,491,493
491,492,592,492,495
491,494,636,490,494
491,494,634,491,494
492,492,618,491,493
492,494,521,490,494
492,494,430,490,493
491,493,390,492,493
490,492,367,490,494
493,494,370,490,492
490,491,381,491,494
490,492,419,491,493
491,492,480,490,493
490,492,543,491,494
493,492,620,490,492
491,494,641,491,494
490,493,629,489,494
493,495,581,490,494
493,494,476,491,493
492,492,409,490,493
491,492,375,491,492
491,495,365,492,493
491,493,373,490,493
491,494,392,491,491
490,493,445,491,494
492,493,507,490,493
492,493,581,492,493
493,493,636,491,494
492,492,637,491,494
491,492,623,492,495
493,494,534,490,495
492,493,437,490,493
492,493,392,491,492
491,491,366,490,492
492,494,368,489,492
492,494,379,490,492
492,492,411,491,493
492,493,471,489,493
490,492,535,490,494
491,492,614,491,494
491,492,640,491,493
490,493,631,490,494
493,493,587,492,492
492,492,489,491,494
491,492,412,490,493
492,494,376,490,492
493,494,367,490,494
491,493,372,491,495
492,492,390,490,492
492,494,439,492,495
492,493,501,491,493
491,493,569,491,492
490,493,633,491,494
491,493,637,489,493
490,492,625,493,493
493,494,548,490,494
492,493,447,490,493
492,493,399,491,494
492,492,370,490,493
492,494,368,492,493
490,494,378,490,493
490,492,404,490,492
491,493,463,490,492
491,494,526,490,492
490,491,608,491,492
492,493,640,491,491
491,494,634,491,495
491,492,599,491,495
492,493,501,491,494
491,493,417,490,494
492,493,379,491,492
493,493,367,491,492
492,494,370,490,494
493,494,383,489,492
493,494,432,490,493
491,492,492,490,494
492,493,560,490,491
492,492,630,492,493
490,492,638,491,492
491,493,626,491,492
490,494,562,491,493
492,493,458,491,494
492,493,402,492,494
490,492,368,489,493
492,493,368,490,494
493,492,378,491,494
491,491,398,490,492
491,492,457,490,493
491,493,518,490,493
489,492,598,491,492
490,494,638,490,492
491,495,635,489,494
490,492,612,489,493
494,494,514,491,494
491,493,426,490,494
492,492,387,491,495
492,492,368,491,494
491,494,371,490,494
490,493,380,492,495
493,492,426,490,493
491,493,485,490,493
491,493,550,489,492
492,495,623,489,494
492,492,638,490,492
491,491,629,491,494
491,495,573,490,495
491,492,468,491,493
491,492,406,491,492
491,493,370,492,494
492,492,367,489,493
492,494,376,492,493
490,494,396,489,493
492,493,449,489,493
491,493,512,490,493
491,494,586,490,492
491,492,637,491,493
492,494,637,492,492
490,493,617,491,492
491,494,525,490,493
491,494,434,491,494
491,492,391,490,493
493,492,369,491,492
492,492,372,491,495
492,492,381,491,495
491,492,418,491,493
491,493,477,491,494
492,493,542,491,492
491,494,620,490,493
490,494,639,489,494
493,494,631,489,494
493,494,585,490,494
493,493,479,492,493
492,493,411,490,493
492,495,373,491,495
490,492,366,492,493
491,493,372,490,492
491,494,391,490,495
491,492,442,490,493
491,493,506,490,493
491,494,577,489,493
493,493,634,490,495
492,492,637,491,494
491,494,621,490,495
491,492,539,490,494
492,494,440,491,493
490,492,393,491,493
491,493,366,490,493
492,495,369,489,493
492,493,378,492,493
494,494,410,489,492
491,493,470,491,494
492,493,533,491,494
491,493,613,491,493
490,493,639,490,494
492,492,630,490,492
491,492,593,491,495
492,494,490,490,494
492,493,414,490,493
492,493,379,490,493
490,493,364,491,495
492,492,374,489,492
492,494,387,492,493
489,492,435,491,493
491,492,497,490,492
491,493,568,490,494
491,494,629,489,492
490,493,638,491,494
492,492,626,490,494
493,493,552,491,495
492,493,449,490,493
491,492,399,490,493
492,494,369,492,493
491,492,369,491,494
491,494,374,490,492
492,495,402,490,493
493,495,462,491,493
492,492,524,491,494
493,492,606,491,492
491,494,641,492,493
490,492,632,492,493
490,493,601,492,493
492,494,505,491,494
492,493,419,491,493
492,492,384,492,492
492,495,366,490,494
493,492,372,490,494
493,492,384,489,491
490,494,428,490,494
491,492,489,490,492
491,492,558,492,492
489,492,626,490,492
491,494,637,490,492
492,494,627,489,492
491,491,567,492,494
493,494,460,490,494
491,492,403,491,494
492,491,369,491,495
492,492,367,492,493
490,493,376,490,494
493,492,398,491,492
492,493,455,490,493
491,493,515,490,493
492,494,595,490,493
493,493,638,490,492
491,494,633,491,495
491,492,610,490,492
492,493,516,491,494
491,493,426,491,494
491,493,387,492,493
490,493,368,491,495
491,494,369,489,494
491,492,381,489,492
493,493,423,490,493
491,493,481,490,493
492,493,549,490,493
492,492,620,490,493
492,492,639,492,493
493,493,630,490,492
490,493,576,491,493
492,493,471,491,493
492,493,409,490,493
490,492,372,489,493
493,493,366,491,492
492,491,376,492,495
492,491,397,492,494
491,493,449,491,494
492,493,510,491,494
490,493,583,491,494
493,493,637,490,493
492,494,636,490,494
493,493,620,490,494
494,493,530,491,493
490,493,433,490,494
492,493,390,490,493
491,491,369,492,493
490,492,369,492,493
491,493,378,491,492
490,493,414,491,494
491,492,475,490,493
491,493,541,491,493
490,494,616,490,493
492,492,640,490,494
492,492,632,491,494
492,495,584,490,494
491,492,483,491,494
491,493,411,491,493
491,493,373,491,492
490,493,365,490,493
492,495,374,492,494
490,492,390,489,494
493,493,441,491,493
492,494,505,491,494
491,491,576,491,494
491,492,633,491,493
492,492,638,491,492
490,494,621,491,496
492,492,540,490,494
491,493,442,491,493
491,493,394,490,494
493,494,368,489,494
492,493,367,490,492
491,491,377,491,492
492,494,408,491,493
490,492,467,490,493
491,492,529,491,492
491,493,608,490,494
492,491,638,489,493
493,492,633,491,492
492,493,594,490,495
492,492,495,490,494
492,492,416,490,494
492,494,377,490,495
490,491,365,489,494
493,492,371,491,493
491,493,383,490,492
491,494,434,490,493
491,493,497,491,493
490,493,565,490,494
491,493,629,490,494
491,492,638,492,493
490,492,626,492,494
490,492,555,492,494
491,493,453,491,493
492,492,399,490,493
492,491,370,491,494
491,493,368,490,494
492,492,376,490,494
493,493,403,490,494
491,493,459,491,493
492,492,521,490,492
492,494,603,492,493
490,493,638,491,492
491,494,631,490,492
492,494,606,492,495
491,493,507,490,494
492,493,420,491,493
492,492,385,491,495
493,492,366,491,495
491,492,371,492,493
493,494,382,493,494
490,492,427,490,493
492,493,489,491,493
491,493,554,490,492
491,494,623,489,493
493,493,639,489,494
490,493,626,491,495
493,491,570,490,493
493,494,463,491,494
491,492,404,491,494
490,492,369,492,493
491,493,368,491,494
492,493,374,490,493
491,491,400,492,492
491,493,452,490,493
491,492,514,490,493
492,492,592,489,492
490,494,636,492,494
490,492,634,489,494
493,493,614,492,493
490,493,519,492,494
492,492,430,491,493
492,492,390,492,495
491,494,366,490,493
490,493,369,490,494
492,492,381,491,495
492,491,421,491,494
492,492,479,491,493
492,493,546,490,493
493,493,619,491,493
492,492,640,491,492
492,494,630,489,493
492,494,578,489,494
493,493,475,490,494
491,492,409,491,494
492,491,370,490,492
491,492,368,492,493
490,492,373,491,493
490,492,393,491,492
491,492,447,490,493
490,492,506,490,493
491,491,583,489,492
492,494,636,490,494
492,491,635,491,495
492,491,622,490,492
491,495,533,492,494
491,493,435,490,493
491,493,392,491,492
490,493,366,491,492
491,493,368,489,493
493,494,379,490,494
490,492,413,491,494
492,493,472,490,493
491,493,538,491,495
491,491,616,492,495
490,492,638,491,492
490,492,633,490,494
490,494,585,491,496
492,493,486,491,493
491,494,413,490,493
492,493,375,489,493
494,493,366,491,492
492,493,374,491,494
491,494,386,489,493
490,492,440,491,493
491,492,501,491,493
491,492,569,490,492
493,492,634,491,492
492,493,636,492,493
490,493,625,489,493
493,493,547,491,494
492,492,445,491,495
492,491,396,491,495
491,495,367,489,493
490,492,366,491,495
493,492,378,491,492
491,494,405,490,493
491,493,464,490,494
492,494,527,492,492
490,493,608,490,494
491,494,638,490,493
491,492,634,492,493
490,491,596,493,494
491,492,498,491,494
492,493,418,490,493
491,493,379,491,495
492,492,365,489,493
492,494,373,490,493
492,492,385,489,495
493,491,431,490,492
490,493,494,490,494
491,493,561,489,493
490,492,629,491,492
490,493,637,491,492
491,493,625,489,492
491,495,559,492,495
492,492,455,491,494
492,492,400,491,492
493,493,371,490,494
491,491,368,492,494
491,492,375,491,493
493,494,402,489,493
491,492,457,490,494
492,493,519,490,492
492,494,600,490,492
492,493,638,490,494
493,492,633,491,492
491,492,609,492,496
492,494,509,491,495
492,492,423,491,494
490,492,385,493,493
490,491,365,491,494
492,492,373,490,492
490,493,381,491,495
490,494,425,489,493
492,494,485,490,493
492,492,552,490,494
492,492,624,490,495
492,494,637,490,493
490,492,627,490,494
494,493,571,492,493
492,493,465,491,494
491,492,405,490,493
492,494,371,492,494
490,494,366,491,494
492,494,373,490,494
492,492,400,491,495
491,492,451,491,495
491,493,511,491,493
492,494,589,492,492
490,493,637,491,494
491,494,633,489,493
492,494,615,490,493
493,493,523,491,495
492,493,429,492,493
492,492,390,491,493
491,494,365,491,495
490,492,370,492,493
489,493,380,492,493
489,492,416,491,493
491,492,479,490,493
492,493,543,489,492
490,491,620,491,493
492,493,641,490,494
492,492,631,491,495
493,492,583,491,493
492,494,477,491,493
491,492,408,490,493
492,493,372,492,493
490,493,364,490,493
492,494,373,490,493
492,492,394,492,494
492,494,444,490,494
492,493,506,490,494
492,493,582,491,494
490,492,635,492,493
490,492,636,490,494
493,492,621,492,492
490,492,536,491,494
492,493,438,491,493
491,493,394,491,493
492,494,367,489,493
493,492,370,490,492
491,494,377,491,495
492,491,409,489,493
491,493,472,491,492
490,492,534,491,492
489,492,611,491,493
491,492,641,491,494
491,494,631,489,495
490,492,591,490,495
493,493,489,491,495
492,492,414,490,495
491,492,377,490,492
491,494,367,492,491
490,493,373,490,493
491,493,385,491,492
491,493,437,491,496
490,492,498,490,499
491,492,570,491,498
492,494,632,491,499
491,493,638,490,500
492,492,626,491,501
490,492,550,491,502
493,494,448,491,496
493,493,397,490,485
490,491,369,493,490
493,492,368,491,491
490,493,376,490,486
489,493,402,490,488
490,493,462,490,491
491,492,525,490,492
491,491,606,492,493
492,493,640,490,494
491,492,634,491,494
491,491,600,491,498
493,494,501,490,499
491,493,419,490,499
492,493,381,491,496
490,492,365,491,487
489,493,370,491,486
491,493,384,492,494
490,493,431,490,497
491,492,491,491,497
492,492,560,490,499
492,492,629,492,498
490,491,637,491,497
490,493,625,490,494
493,494,562,492,486
491,493,456,490,490
490,493,401,490,494
491,494,368,490,496
492,495,368,489,500
491,493,377,491,501
493,493,402,491,499
491,493,458,489,500
491,493,519,490,496
491,491,599,491,488
490,492,638,490,485
492,492,634,491,482
491,491,610,490,492
491,494,513,490,496
491,493,425,490,498
491,493,386,490,496
489,491,368,489,495
492,493,369,491,496
491,491,382,491,492
491,491,425,491,488
490,492,482,491,491
491,492,550,492,492
493,494,622,489,490
491,493,637,491,493
491,492,628,489,499
493,495,575,490,504
492,494,469,492,504
493,494,407,491,502
491,494,372,489,502
491,493,365,490,498
491,492,377,491,493
491,492,398,492,486
489,492,449,491,489
491,492,510,491,493
490,492,588,490,499
493,494,635,489,496
493,494,635,489,498
493,494,618,490,505
495,495,527,491,511
494,495,434,491,517
491,494,390,491,513
492,492,370,491,496
489,493,370,492,496
491,493,379,492,495
490,494,418,491,495
492,493,476,491,482
491,491,541,491,479
491,493,617,489,489
491,492,640,490,485
491,490,630,491,485
491,493,582,492,491
490,492,478,491,490
491,492,411,491,488
491,492,375,493,490
489,493,364,492,491
491,492,374,490,492
492,494,389,490,493
489,492,443,490,491
491,493,504,490,494
492,492,577,489,497
493,493,635,490,495
492,494,638,492,494
491,494,623,490,497
493,494,540,493,506
494,495,442,492,507
493,494,395,491,499
491,493,367,491,515
491,493,373,490,518
492,494,378,491,498
490,493,411,489,478
491,491,468,490,485
491,491,532,491,490
491,493,608,489,481
490,492,640,491,495
492,493,632,490,498
492,495,591,492,501
494,495,494,492,509
494,495,416,491,512
493,494,379,490,498
492,492,367,492,488
492,491,373,490,482
490,490,387,490,488
489,491,435,490,492
490,493,495,489,494
490,492,567,489,495
492,494,629,491,497
491,493,636,490,494
491,493,625,490,498
491,494,551,491,492
492,493,451,491,493
492,494,399,490,495
490,493,368,490,492
493,493,370,491,496
492,493,377,492,489
492,492,405,490,487
493,496,463,492,491
491,495,522,491,483
491,494,603,491,486
491,494,639,490,501
492,494,634,490,505
490,493,603,493,509
494,494,506,492,501
492,493,420,489,493
493,494,385,489,492
493,493,368,491,504
492,493,372,489,508
492,494,383,491,498
493,492,429,488,489
491,492,489,490,489
491,492,556,491,484
491,494,624,491,494
494,495,639,493,510
493,495,631,493,517
496,495,568,495,526
495,496,464,494,523
494,495,406,492,512
491,492,371,493,484
494,494,367,492,479
495,494,375,493,491
495,493,398,490,491
494,495,455,490,485
492,494,516,491,490
490,494,595,493,483
490,494,640,491,484
491,495,634,491,491
491,493,616,493,504
491,495,520,494,509
493,495,428,494,510
494,495,389,492,493
489,492,368,491,490
490,493,369,490,489
489,493,381,492,504
489,494,422,492,498
488,493,481,489,514
490,494,550,488,505
492,495,622,492,488
492,494,641,491,496
492,493,631,491,495
492,492,579,493,483
492,493,471,490,505
494,494,409,491,504
496,494,372,490,500
496,495,366,489,504
495,496,375,490,502
494,496,395,491,493
491,494,448,491,495
491,493,509,493,476
490,492,586,492,479
491,492,636,493,481
490,494,636,492,483
491,494,621,491,493
493,496,531,493,504
497,496,437,493,505
497,495,393,492,501
493,495,368,495,511
492,493,373,500,516
493,492,378,499,473
492,492,416,494,477
491,494,473,486,485
490,493,539,490,486
488,492,616,491,494
488,493,639,493,495
488,492,633,490,493
494,494,587,491,496
494,494,484,494,494
495,494,415,494,491
495,493,377,492,497
495,494,366,490,507
494,495,374,492,500
497,494,392,492,505
493,498,443,492,515
491,498,506,493,527
493,499,576,492,517
493,497,639,490,522
495,498,639,489,520
495,496,627,491,492
495,495,544,490,465
494,494,444,491,477
492,493,396,493,493
493,491,370,491,506
493,492,370,493,504
491,493,378,490,490
492,494,408,489,486
490,493,466,490,485
491,493,529,491,485
492,493,612,495,489
495,497,642,499,498
496,498,634,497,497
493,496,596,490,501
492,495,498,491,501
494,494,418,491,492
498,494,381,494,489
497,496,368,490,492
495,495,376,492,493
495,495,389,492,487
494,495,435,492,501
494,495,499,491,517
495,495,565,491,516
492,494,629,491,477
489,489,638,492,472
491,492,627,497,489
494,496,557,501,505
494,498,457,510,514
494,499,402,509,514
492,498,374,498,504
490,496,369,491,481
491,494,375,486,487
498,493,403,485,481
494,494,461,486,492
495,494,522,486,505
493,493,604,488,503
492,490,640,493,495
493,490,632,490,485
492,489,606,495,487
495,493,508,495,514
494,496,424,492,519
493,498,385,494,516
493,500,369,493,515
494,498,374,496,481
491,496,383,498,477
493,495,430,490,501
492,497,491,491,497
488,496,558,495,472
487,495,626,492,474
495,494,640,490,482
497,488,631,492,507
500,492,570,492,512
498,493,465,491,503
492,494,405,490,496
491,495,369,491,496
496,496,370,488,488
492,498,378,490,522
494,499,404,492,524
496,500,458,490,511
496,497,516,485,502
493,495,594,492,492
493,492,640,495,502
497,493,636,493,482
498,493,618,491,468
497,492,522,491,477
496,494,430,490,506
492,496,391,489,508
490,496,369,493,494
491,496,371,491,493
492,497,383,492,490
491,495,420,494,482
494,490,482,501,493
495,495,550,511,512
495,496,624,514,490
493,492,641,497,486
486,494,631,492,490
492,495,582,499,491
496,495,476,492,492
493,495,409,482,493
493,496,371,487,497
492,495,368,494,505
494,496,378,493,519
494,496,395,495,537
498,496,450,491,541
496,491,509,490,523
494,492,583,488,520
491,494,634,490,456
490,492,635,485,462
492,497,621,487,495
494,498,536,490,513
496,498,439,490,493
493,498,396,493,493
495,498,373,498,489
496,495,370,502,488
499,498,383,499,512
497,496,416,489,513
495,492,474,493,520
501,495,540,493,572
497,500,619,496,532
492,498,641,496,507
496,499,634,486,486
493,494,589,479,450
493,492,488,496,467
493,492,416,498,482
487,493,377,491,489
488,492,365,488,491
494,488,374,492,487
500,495,388,499,487
498,494,440,498,480
495,497,502,497,492
494,499,574,485,503
488,498,633,487,502
491,490,638,496,496
494,491,624,491,507
495,494,548,494,518
498,495,449,497,514
499,496,399,491,522
500,501,372,484,537
496,498,371,482,503
488,493,378,489,470
485,490,409,496,500
484,493,464,491,516
492,492,528,485,515
494,494,609,494,467
494,499,639,501,498
501,507,639,498,537
497,508,603,504,531
496,498,504,509,531
497,489,420,515,458
498,489,381,499,470
492,491,365,491,473
490,494,374,498,504
504,500,388,492,502
496,496,432,483,479
488,496,493,486,469
493,495,560,487,493
495,489,628,488,505
497,488,639,486,514
493,494,625,488,508
493,496,563,492,499
496,499,456,491,495
495,499,403,490,506
494,493,370,490,504
488,490,367,491,510
490,495,379,495,515
499,499,407,499,542
499,503,463,494,533
494,491,520,486,466
493,487,600,491,466
494,485,635,487,473
505,488,632,485,495
488,496,606,489,507
490,502,512,490,492
495,502,425,488,482
491,498,388,493,488
493,496,370,496,521
497,495,374,497,519
501,495,386,491,518
492,492,426,486,493
486,493,486,490,518
493,493,554,496,508
500,499,627,503,506
500,500,643,501,460
495,492,625,493,442
487,487,569,487,457
495,491,466,489,496
493,493,406,496,503
492,491,372,493,512
496,493,368,494,503
490,497,376,493,506
491,496,399,487,536
492,499,455,484,557
495,499,516,483,518
494,495,594,491,487
494,489,636,497,461
490,492,636,496,458
490,491,618,493,489
491,493,523,491,503
497,494,431,494,494
498,498,392,493,512
496,498,370,498,484
492,494,370,498,476
488,494,381,489,496
490,490,420,488,503
493,492,478,493,492
499,490,546,500,504
499,491,622,507,496
495,492,640,498,486
487,494,631,480,512
488,499,584,482,518
496,498,480,487,504
495,490,409,487,492
500,494,373,487,535
498,497,371,493,555
499,500,379,497,539
500,498,394,493,480
488,497,446,485,461
485,497,509,489,490
488,494,581,496,496
494,493,638,495,476
496,488,634,485,481
502,492,625,486,470
499,495,535,490,451
492,497,440,495,488
492,495,398,496,524
490,491,368,496,521
493,488,369,488,504
492,488,378,482,485
491,490,408,489,484
494,493,471,501,492
494,494,534,506,480
494,490,614,502,491
493,493,642,508,506
494,493,634,496,500
498,495,592,477,506
489,493,490,484,496
500,496,415,495,502
509,497,379,497,502
500,498,369,486,510
484,496,373,480,513
487,499,388,483,514
490,492,438,493,480
492,486,498,490,486
496,494,568,487,509
493,494,635,486,506
492,495,639,487,505
488,499,626,489,499
492,495,553,496,511
496,498,452,496,494
497,489,398,492,454
492,487,366,485,483
496,492,369,494,492
498,492,380,496,500
495,494,403,489,494
490,490,463,479,505
492,494,525,487,509
487,496,606,492,492
485,500,640,493,499
485,499,635,488,492
484,490,598,489,485
499,489,505,503,502
507,496,423,507,507
508,499,388,503,533
502,498,370,485,509
488,498,374,481,505
483,486,381,486,462
485,483,428,487,460
488,486,490,485,481
497,494,558,494,502
501,498,629,502,510
498,495,639,496,503
491,495,630,490,524
488,496,563,493,486
488,492,459,493,503
490,492,401,496,471
493,498,371,491,496
498,498,367,484,503
497,495,378,487,496
499,497,403,502,514
504,494,458,503,490
493,491,517,501,478
492,490,595,496,472
492,489,638,481,503
492,493,634,487,491
482,496,612,491,483
490,496,514,485,504
487,491,427,483,517
493,492,387,488,537
498,495,371,491,514
496,493,372,491,459
493,494,382,490,483
495,497,426,491,510
500,497,487,490,517
499,491,550,490,489
494,490,623,485,480
487,492,637,497,466
493,490,628,500,487
499,492,575,495,492
492,493,468,481,494
486,496,406,490,500
490,496,372,487,506
493,496,367,490,505
491,495,375,490,498
494,498,399,488,487
497,497,450,490,505
495,492,513,489,517
494,498,590,489,541
496,496,638,490,485
493,491,635,491,469
487,491,617,491,468
490,489,524,494,478
491,495,434,498,524
492,498,394,499,525
494,496,368,487,495
486,493,367,477,464
487,492,382,484,504
497,496,418,500,504
495,494,479,502,490
495,490,541,491,463
490,485,616,492,484
495,491,640,491,486
494,496,629,487,503
495,497,586,486,495
493,493,480,488,496
495,495,411,490,504
498,491,373,493,467
496,488,365,496,492
498,492,372,494,497
488,497,394,482,527
478,497,445,493,512
485,492,504,495,483
496,490,575,487,487
496,491,633,486,525
495,493,638,487,523
499,496,624,491,476
496,489,537,501,469
495,493,441,497,485
489,493,394,496,490
484,493,368,487,497
495,495,368,483,494
495,495,378,492,495
493,495,408,495,462
490,494,467,493,472
491,492,534,483,510
492,493,612,484,521
489,491,641,490,516
492,494,635,494,518
496,497,596,491,529
496,498,495,495,495
495,496,416,500,438
491,489,375,487,449
486,486,364,487,515
498,494,373,492,531
497,497,385,491,494
490,494,436,494,470
488,492,495,493,471
488,492,568,486,501
488,493,633,494,508
497,492,637,499,473
506,492,625,491,490
507,492,555,491,491
495,487,448,489,483
482,492,398,496,480
488,495,366,492,487
489,495,369,490,511
494,498,378,488,516
494,495,406,486,524
494,498,462,487,490
499,495,525,491,483
491,498,605,491,513
495,496,641,492,520
491,489,633,493,469
487,489,601,490,468
489,494,505,486,485
491,496,421,486,493
492,492,384,488,526
495,495,367,489,534
494,491,373,491,516
493,494,382,493,476
488,489,427,489,482
492,487,486,485,469
492,489,553,488,482
493,494,628,489,481
489,494,637,491,468
489,493,627,493,509
495,492,570,494,520
498,492,462,488,532
497,493,402,484,475
491,497,368,491,491
491,498,369,491,524
493,504,378,488,502
491,498,400,490,478
496,492,453,494,478
492,491,517,495,486
492,492,597,492,491
491,495,640,493,500
489,491,635,487,509
492,490,613,486,522
499,493,519,489,485
495,493,426,491,456
490,494,387,489,465
488,497,367,487,493
489,491,371,488,478
483,488,381,490,499
491,494,423,494,499
493,498,484,497,519
498,494,549,489,500
490,493,622,488,501
490,494,639,490,498
492,491,627,485,489
492,491,580,494,497
501,495,474,500,521
497,498,411,499,495
487,491,371,488,457
499,488,366,486,497
495,492,375,484,508
493,495,395,486,506
484,500,451,499,527
490,502,515,513,502
494,501,588,515,501
497,495,637,497,464
496,487,634,492,463
502,484,617,496,456
493,491,529,509,485
486,497,436,492,516
487,494,393,494,508
487,491,367,492,491
489,489,369,484,484
483,491,376,482,487
486,488,412,487,469
498,489,473,492,504
506,493,539,487,523
504,496,616,486,532
500,498,643,491,510
496,500,631,478,479
480,493,587,481,483
489,493,486,491,520
501,492,413,488,491
492,489,375,485,456
484,489,364,488,493
484,489,373,488,484
490,490,389,485,498
490,489,439,489,479
488,490,500,492,477
491,494,574,492,490
496,500,635,491,511
496,509,641,491,520
491,506,628,490,519
492,490,543,488,454
493,482,442,489,459
491,484,395,490,490
491,487,365,489,490
491,492,370,490,494
489,492,378,491,488
493,491,407,491,508
496,492,466,490,505
497,492,529,491,509
495,494,607,488,474
489,492,637,486,490
487,492,631,487,502
491,492,593,491,491
494,490,496,491,491
496,492,414,491,497
491,492,380,491,511
488,498,368,492,541
492,501,374,490,531
495,501,387,488,500
489,494,435,488,488
486,490,495,490,465
491,489,564,489,454
493,486,628,493,461
490,488,637,496,483
494,493,626,497,496
495,492,556,491,506
496,490,452,484,498
488,486,397,494,477
483,490,365,496,490
493,493,369,497,497
487,494,377,486,504
486,490,399,489,491
489,491,460,492,487
494,491,520,490,475
491,493,601,483,516
501,499,641,488,555
504,496,638,491,552
500,498,604,489,472
489,493,507,492,436
483,490,422,493,461
483,490,382,489,479
484,488,367,488,490
486,495,372,494,496
489,496,384,492,493
496,492,427,483,496
494,491,487,487,497
493,492,556,491,499
492,494,624,492,516
491,494,639,488,497
493,494,630,492,488
498,491,571,493,488
494,484,461,494,474
491,493,404,494,491
489,492,366,491,493
490,494,365,497,490
503,497,377,507,487
508,496,397,498,480
506,490,453,493,488
483,492,511,481,474
475,492,591,476,475
484,492,638,484,481
488,492,635,485,497
493,491,613,485,506
496,495,523,493,520
498,497,432,493,528
498,493,389,499,508
494,490,366,494,495
486,491,369,494,477
490,492,379,489,482
482,491,419,485,483
488,491,478,495,480
496,493,546,502,501
493,495,622,495,511
490,493,637,479,499
485,493,630,481,506
490,499,579,487,510
494,494,473,490,486
492,492,407,489,454
492,490,370,488,444
492,487,361,487,484
493,490,375,492,492
489,493,392,491,490
488,491,444,485,493
491,491,507,487,498
491,492,579,487,495
492,490,634,487,495
495,494,635,491,490
491,493,621,489,502
496,497,535,491,499
497,494,437,490,513
496,492,393,491,502
491,492,364,487,481
485,489,367,488,493
488,490,375,489,489
488,492,409,489,483
488,486,468,489,491
490,486,532,490,474
488,491,612,489,488
491,494,636,489,485
491,492,630,490,489
490,492,588,491,495
491,495,487,492,504
494,497,413,491,512
494,500,379,490,516
492,496,365,487,500
493,492,372,488,481
492,487,387,488,481
492,487,434,489,484
491,489,498,489,493
489,492,568,491,502
491,492,632,489,495
492,495,636,486,490
492,498,624,492,494
492,495,546,496,465
491,493,446,494,498
490,493,396,493,490
491,492,366,493,481
490,491,369,496,491
493,492,377,492,507
494,496,405,483,508
488,493,463,485,480
488,492,524,488,477
489,493,605,485,478
490,491,638,488,491
489,490,631,490,496
490,491,598,489,485
490,492,497,490,485
497,492,417,489,486
491,491,380,491,490
489,490,364,488,493
492,492,370,488,500
492,492,386,490,507
492,494,430,489,493
492,493,491,491,473
493,492,561,494,494
493,489,627,496,492
487,491,634,485,482
486,491,624,483,482
491,494,560,494,496
490,497,456,491,499
489,493,401,487,497
493,488,369,493,505
496,493,368,503,499
493,494,377,508,508
496,495,402,492,483
487,493,455,472,491
484,493,517,480,483
490,494,600,490,498
495,491,639,489,513
496,490,630,487,501
492,493,604,487,485
491,493,508,489,465
490,490,419,488,480
493,490,382,487,472
489,490,363,488,487
490,490,368,490,498
492,492,379,491,499
491,492,420,489,491
489,491,479,489,493
486,492,546,491,481
486,490,619,491,483
491,491,634,490,488
496,492,624,488,490
495,493,568,489,488
492,492,461,485,487
491,494,400,487,491
489,492,365,490,495
489,492,361,488,492
488,493,369,488,488
491,489,393,488,490
490,491,444,490,491
490,490,506,489,497
492,491,584,489,487
492,493,632,491,495
491,492,629,488,489
493,494,613,491,501
493,498,521,490,505
490,496,427,490,504
491,493,385,489,491
492,491,363,489,483
492,494,367,490,488
490,490,377,487,489
496,488,414,489,490
490,488,473,489,473
487,488,539,490,477
487,488,616,491,491
492,489,635,488,496
490,492,626,488,496
492,491,577,489,493
492,493,475,488,492
490,493,408,487,501
489,495,371,489,500
487,492,365,488,478
490,492,371,489,490
490,490,391,491,493
491,492,443,490,494
491,494,506,492,491
491,492,578,491,496
492,494,634,490,490
489,491,635,486,491
491,491,622,489,484
493,492,536,491,499
492,492,438,489,495
491,494,392,487,497
490,494,368,488,485
491,495,367,489,485
491,496,378,488,498
490,496,411,489,514
491,491,471,490,502
491,489,532,489,489
490,490,611,490,466
488,489,638,487,466
488,488,630,488,489
489,489,591,493,486
492,492,488,491,487
491,492,413,489,487
490,492,374,488,488
489,492,364,486,493
491,493,374,488,493
491,491,385,490,491
491,491,437,489,491
490,493,499,490,488
492,491,568,490,484
490,490,631,489,490
491,492,636,489,491
489,492,624,490,493
491,493,547,489,491
492,491,447,490,491
492,492,396,489,490
493,491,367,487,488
492,491,368,490,491
491,493,374,489,495
490,492,404,487,494
491,493,463,489,497
491,491,524,489,491
489,492,603,488,492
489,491,639,490,484
492,493,633,487,488
491,491,599,489,493
495,491,502,490,492
495,491,418,489,486
494,491,383,489,491
495,493,365,490,492
494,491,373,489,499
496,493,382,489,490
496,492,428,488,477
495,492,491,489,486
495,492,558,489,487
491,491,625,490,490
493,491,636,489,491
492,490,626,491,492
490,490,562,491,494
489,491,458,490,497
484,492,401,489,504
487,493,366,487,490
488,491,368,488,490
491,494,374,488,487
491,493,400,487,492
489,492,455,489,486
488,491,516,489,484
488,493,596,487,490
488,491,636,490,489
488,492,631,489,484
490,493,608,490,485
491,493,515,490,490
489,492,424,490,494
488,492,387,489,498
491,492,367,488,498
490,490,371,489,491
490,489,381,491,490
491,491,421,488,489
492,490,482,488,491
490,491,549,488,486
488,493,619,488,489
492,495,638,488,492
492,493,630,490,491
490,492,575,489,491
493,493,468,490,491
493,489,406,491,489
492,490,369,492,490
494,490,365,491,490
496,490,375,491,490
495,492,392,491,490
496,493,448,490,486
499,495,509,489,487
500,492,586,489,488
490,492,634,489,489
492,491,635,489,498
501,493,617,487,501
500,491,526,491,499
502,491,431,492,490
505,493,390,491,491
503,493,366,492,493
498,492,370,490,492
492,494,379,492,489
489,491,416,489,492
484,489,474,488,491
485,490,540,489,493
485,490,614,488,494
484,491,637,490,496
489,489,628,489,491
487,496,582,489,492
490,494,480,490,491
490,493,411,491,485
487,491,374,488,487
487,494,364,487,488
486,491,374,490,489
487,492,391,491,489
488,492,442,489,489
491,492,503,489,489
488,493,577,489,490
489,494,633,488,489
493,492,637,490,491
495,491,623,489,492
498,492,540,491,492
498,493,440,491,493
497,492,394,490,492
496,493,367,492,490
498,490,366,490,491
508,491,376,489,492
507,493,410,490,494
502,492,465,489,492
491,491,529,491,493
485,491,611,491,494
498,490,638,494,494
505,492,632,495,496
506,493,592,496,495
500,493,492,493,494
499,494,415,494,494
497,493,376,491,490
497,494,365,490,491
498,493,372,490,490
490,492,386,488,491
488,493,434,488,491
482,492,496,489,492
484,491,565,489,491
486,491,629,488,486
487,492,637,489,489
479,492,622,487,488
479,491,554,492,491
486,492,449,492,493
488,492,398,491,494
491,492,368,491,491
491,493,366,492,492
496,492,376,490,490
501,492,402,491,491
497,492,460,489,492
502,493,521,489,492
504,491,605,490,492
491,492,638,487,491
482,493,631,488,494
485,490,602,489,495
488,491,504,489,494
498,492,420,489,493
499,492,381,490,493
497,492,365,488,494
491,493,370,487,492
489,492,381,487,493
492,492,427,488,492
494,493,488,490,495
497,492,555,490,498
507,492,625,490,497
513,493,640,493,498
519,493,627,492,492
500,493,567,493,494
496,493,462,492,493
488,493,401,488,490
469,491,370,487,488
477,491,366,489,492
481,491,375,489,491
489,491,401,488,491
499,492,453,491,494
507,492,515,490,495
507,492,594,493,494
512,493,636,492,495
502,493,633,490,494
486,492,614,492,494
493,491,516,490,493
496,492,426,487,491
471,489,387,490,492
484,487,366,490,492
485,489,368,491,492
488,490,380,489,493
487,490,417,489,492
481,491,480,490,490
485,493,546,488,490
489,493,619,488,492
484,491,639,488,491
492,492,629,491,494
493,493,575,489,492
488,491,471,490,493
486,492,407,490,492
490,493,369,490,491
494,491,368,492,493
492,493,373,491,493
491,491,396,489,494
497,491,448,489,493
498,491,508,488,493
487,491,583,488,493
483,491,635,490,493
489,492,636,490,491
491,493,620,490,492
492,493,529,490,492
493,491,434,490,492
492,492,392,490,490
493,491,367,490,495
494,492,368,489,494
489,491,379,491,494
487,490,413,490,493
485,492,473,489,492
482,492,538,489,492
485,493,613,489,494
490,491,640,489,493
493,492,631,491,494
496,491,587,490,496
495,492,482,491,494
492,491,411,491,494
491,492,373,489,494
488,491,363,490,494
490,491,371,490,494
491,493,386,489,495
489,492,440,490,493
490,491,502,490,492
489,492,574,490,492
489,492,633,491,493
490,492,636,490,494
486,492,622,491,494
490,492,544,491,494
493,492,441,490,494
496,491,394,490,493
492,493,365,488,493
493,491,367,489,494
492,491,376,489,492
489,489,408,490,495
490,492,464,488,493
491,490,529,490,493
488,491,607,491,495
491,493,637,489,495
489,491,633,489,494
491,494,594,492,494
491,493,495,490,492
494,492,415,489,494
491,491,379,490,496
490,493,364,488,494
489,492,370,491,494
493,492,384,490,491
492,492,432,489,494
489,491,494,490,493
492,492,562,489,494
492,493,629,490,493
490,491,638,491,497
491,494,625,488,499
491,492,557,491,498
491,492,452,490,499
490,492,398,490,498
490,491,369,489,491
484,493,366,491,489
490,492,375,490,489
498,491,402,489,494
492,491,457,489,494
493,492,519,489,492
488,490,602,491,493
489,492,637,490,493
488,492,632,490,492
489,492,602,491,492
489,493,507,490,493
491,492,420,490,493
490,491,382,492,493
493,493,366,490,494
492,491,372,491,495
491,491,381,490,495
486,491,425,490,493
491,492,486,489,494
491,492,553,489,498
492,494,623,489,500
491,493,637,489,501
493,492,628,489,499
492,493,568,490,497
491,492,462,490,495
492,493,401,490,490
491,491,368,492,488
489,491,363,490,494
490,492,371,490,502
490,491,395,488,504
490,491,450,490,505
491,492,512,489,496
490,491,591,489,493
491,491,636,489,488
491,492,632,488,484
488,491,613,489,486
492,492,517,490,492
490,492,427,490,492
490,493,386,489,493
490,493,363,488,494
492,492,369,491,492
491,491,379,490,492
490,494,416,491,497
491,492,479,490,499
490,492,544,491,501
490,491,618,489,497
491,491,638,489,486
490,491,629,491,493
492,494,580,489,497
492,492,474,489,498
492,492,408,489,496
491,494,370,489,495
489,491,366,489,493
492,492,373,490,489
490,491,392,490,488
490,492,445,490,492
490,491,508,489,494
490,493,582,488,493
489,491,633,490,493
491,492,638,490,494
490,491,623,490,496
490,490,534,491,496
491,492,436,490,495
491,492,391,490,495
490,492,368,489,497
490,493,368,488,494
490,493,378,489,493
493,494,412,489,493
489,492,472,490,492
488,492,536,489,490
492,494,616,491,494
490,493,640,491,492
489,493,630,490,491
490,493,589,490,495
489,494,485,491,494
490,492,412,491,494
493,494,376,489,493
493,492,366,490,495
490,491,373,490,492
491,494,385,492,494
490,491,438,488,493
493,492,499,489,492
490,492,570,489,491
489,493,630,489,493
492,493,635,488,494
493,492,625,492,493
495,493,546,491,494
490,492,445,490,494
489,492,397,491,495
490,491,368,491,494
491,491,367,489,493
491,492,376,491,492
490,491,407,491,492
488,493,464,490,493
489,494,526,490,494
491,493,607,489,493
492,494,638,490,494
491,492,630,489,493
491,492,598,492,495
489,493,499,492,495
489,493,417,491,493
489,492,381,490,495
490,493,364,489,494
490,491,372,489,493
492,493,384,489,494
492,492,432,490,493
490,493,492,489,494
490,492,559,489,492
490,491,629,491,493
493,491,638,489,492
491,493,624,490,492
490,492,557,490,494
491,492,454,490,493
491,493,401,490,493
492,493,368,492,492
490,493,368,491,494
491,492,377,491,495
491,491,402,492,495
490,494,456,490,493
491,493,519,490,495
493,492,600,490,492
491,495,638,490,492
491,494,634,489,494
490,493,607,492,493
489,493,512,491,495
488,493,421,490,493
485,492,385,492,494
492,491,367,491,491
492,493,369,491,492
490,493,380,490,497
493,491,427,490,494
490,493,484,489,494
491,494,553,488,492
491,494,623,489,492
491,492,639,490,492
491,494,627,489,490
491,492,574,492,493
494,493,465,490,494
490,492,405,490,494
489,494,368,490,492
490,494,366,491,493
490,493,376,490,493
492,493,396,492,492
492,493,452,490,493
490,493,513,490,491
492,491,591,492,494
491,494,637,490,493
489,494,634,491,495
491,491,614,489,492
492,494,522,491,493
491,493,431,490,493
491,492,390,490,494
493,493,366,490,491
491,491,372,491,493
492,494,378,492,493
490,492,418,491,491
490,492,478,489,492
489,493,542,490,494
492,491,618,490,492
493,491,640,491,493
492,493,632,490,494
493,493,584,491,495
491,492,477,490,493
491,494,409,489,494
490,492,375,489,493
492,493,364,491,492
491,494,374,490,493
491,494,391,490,493
492,494,446,491,493
491,493,508,490,493
490,494,579,491,495
492,493,637,492,493
490,492,637,492,493
489,493,622,492,493
489,493,537,490,493
493,493,440,491,492
490,492,394,491,494
492,495,367,489,493
492,493,370,490,494
492,492,379,490,494
490,494,410,489,493
490,492,471,490,493
490,493,535,490,492
489,493,613,491,492
489,494,639,490,492
491,494,633,491,494
491,495,589,490,492
491,493,490,492,493
492,493,414,491,494
490,492,379,491,494
491,491,367,491,493
491,494,373,492,493
491,492,388,490,494
495,493,437,491,493
491,493,501,491,492
491,494,569,491,492
492,494,630,491,493
490,494,637,491,494
492,492,627,490,492
491,495,551,492,495
492,493,449,491,495
490,493,399,491,493
490,492,369,489,494
492,494,369,490,492
490,492,378,492,492
492,495,406,489,493
491,493,464,490,493
490,493,525,490,492
490,493,605,491,495
491,492,638,490,493
492,493,633,492,492
490,492,600,492,493
491,494,503,491,494
491,493,420,490,494
491,494,383,487,494
489,492,367,489,494
492,492,375,490,494
491,492,386,491,495
491,492,432,490,494
491,493,492,490,493
492,494,559,491,493
492,493,629,491,493
491,494,638,489,494
491,494,628,490,493
492,494,564,490,494
490,494,459,491,494
492,492,402,490,493
492,491,371,491,495
491,492,369,492,493
490,493,377,491,493
490,492,402,490,494
490,494,456,490,494
491,492,519,489,493
492,494,598,489,493
492,493,639,490,494
491,492,635,489,492
491,495,612,491,496
491,494,513,490,494
491,493,424,491,494
491,493,386,490,493
490,493,368,491,493
491,493,371,489,494
490,493,383,489,494
493,494,424,491,493
490,493,485,490,494
491,493,552,491,495
490,492,624,492,494
490,494,639,490,494
489,494,627,490,495
491,492,576,489,494
491,494,469,491,494
489,494,408,490,494
491,494,372,492,494
494,493,369,490,495
492,494,374,490,493
491,491,398,491,494
492,492,451,490,494
490,493,512,490,493
491,492,588,489,492
490,494,635,491,494
490,492,635,489,494
492,493,618,489,494
494,494,527,491,494
492,493,433,490,494
492,493,390,489,492
491,491,370,492,493
492,493,370,491,493
491,494,379,491,493
490,494,416,490,494
491,493,476,490,493
491,493,543,490,494
493,492,618,492,494
492,493,640,490,494
491,492,632,491,495
490,492,586,491,495
492,493,479,490,494
491,493,412,491,495
492,492,371,490,493
490,494,365,489,493
492,494,374,489,494
491,493,391,492,493
491,492,444,490,493
490,492,504,491,494
491,492,578,490,495
491,492,634,491,493
490,493,636,491,492
490,493,621,490,495
493,493,539,491,494
492,492,442,491,495
491,494,395,490,494
492,494,369,490,494
493,492,370,491,495
492,494,377,490,495
490,492,411,490,494
492,493,468,491,494
491,493,531,491,492
490,494,610,491,492
491,495,640,491,494
491,494,634,490,495
490,492,591,492,496
493,493,492,490,495
492,493,416,490,494
491,492,380,492,493
492,494,365,492,492
491,493,374,490,495
491,493,384,490,492
491,494,435,490,493
490,493,498,490,492
490,493,565,489,493
490,492,631,491,495
491,492,639,490,493
491,494,626,492,496
492,492,554,492,495
490,493,451,491,494
490,492,398,490,495
493,494,368,490,493
490,492,368,492,494
492,493,377,490,494
494,494,405,490,495
492,493,461,490,493
492,493,522,491,494
491,493,604,490,494
493,493,639,491,493
492,494,632,490,492
491,495,601,490,492
492,492,506,491,496
492,493,420,490,494
490,493,383,490,495
493,492,367,490,495
492,492,373,492,494
490,492,384,492,495
489,492,428,490,493
490,493,489,491,493
490,492,558,490,492
490,494,624,489,492
493,494,639,489,493
494,493,628,490,494
491,492,566,491,495
493,493,460,491,494
490,492,402,491,495
491,492,370,492,495
490,492,367,492,493
490,493,376,490,495
492,495,398,490,495
491,492,455,490,493
492,493,515,490,493
493,494,597,490,494
492,493,639,490,493
492,494,635,491,494
491,494,613,489,494
490,493,516,492,495
492,493,427,491,493
491,494,387,490,492
490,494,367,490,494
490,492,372,490,494
491,493,381,492,492
489,491,423,490,494
490,493,483,490,494
491,492,549,491,493
492,494,620,489,494
491,494,639,491,494
492,492,631,490,492
491,495,576,490,494
492,494,472,491,494
492,493,408,492,493
491,493,373,490,495
493,494,366,490,493
491,491,375,492,494
491,492,397,493,493
490,494,449,492,493
491,492,510,490,493
491,494,584,492,495
491,492,637,490,494
492,493,637,491,495
493,492,622,491,495
493,492,531,492,495
492,493,433,491,494
491,493,393,492,493
492,494,367,492,493
490,494,368,490,492
492,494,380,489,492
491,494,415,492,494
490,492,474,490,493
491,492,541,491,492
492,492,617,490,495
491,492,641,491,494
489,492,631,492,493
492,494,585,490,494
491,494,483,491,494
491,493,411,490,494
492,494,373,490,492
492,494,367,490,494
492,493,373,492,493
491,492,391,491,495
491,495,441,491,495
491,492,503,492,494
491,493,574,492,493
490,494,633,491,492
491,494,636,492,495
491,492,624,490,493
492,493,542,493,494
493,493,442,491,494
493,493,397,491,495
492,492,370,491,495
492,494,367,490,494
491,493,378,491,494
493,493,407,491,493
491,493,467,491,493
490,493,530,490,492
491,494,611,491,495
490,494,639,490,494
491,494,632,491,495
492,493,594,491,496
492,493,495,491,495
492,493,418,491,493
492,493,378,492,494
490,492,367,490,494
492,494,372,490,493
492,494,383,490,493
493,495,435,490,493
492,493,497,491,493
491,493,563,491,495
493,493,631,490,493
492,494,638,492,494
490,493,626,491,493
491,493,556,492,494
491,493,452,491,495
492,494,400,490,493
491,492,371,493,494
492,493,368,490,494
493,492,378,491,494
492,492,405,491,492
491,494,459,491,494
492,492,521,490,493
492,492,602,492,493
490,494,638,490,493
492,494,633,489,493
492,492,606,493,495
494,494,507,491,495
492,494,422,491,494
491,492,385,491,495
493,492,367,491,494
490,493,373,492,494
490,493,383,490,495
492,494,426,491,493
492,493,489,491,493
492,494,555,490,493
492,495,625,490,495
493,493,639,492,493
491,494,626,492,496
492,492,568,491,494
491,493,463,491,494
491,492,404,491,493
491,493,370,492,493
491,491,368,492,495
492,494,375,489,493
490,492,401,490,494
492,493,453,490,493
491,493,515,490,494
491,492,594,490,492
491,493,637,492,493
491,493,636,490,495
490,494,613,492,493
491,494,518,491,494
491,493,429,491,493
491,493,389,490,494
490,492,368,490,495
492,492,370,491,493
491,492,382,492,496
492,493,422,492,494
492,493,481,491,494
490,493,547,491,495
491,494,619,491,494
491,492,641,490,494
492,493,630,490,494
493,494,580,491,495
493,493,474,492,494
492,493,409,491,495
492,495,371,490,492
490,492,366,491,493
491,493,373,490,492
491,493,393,491,492
491,492,448,491,493
491,493,507,491,493
490,492,584,490,493
492,493,635,491,494
492,492,636,491,494
491,492,622,492,496
491,495,530,491,494
491,493,436,491,494
492,493,393,491,493
491,493,365,490,493
492,494,369,490,493
492,494,380,492,494
490,492,414,491,495
493,493,473,491,494
491,493,538,492,495
491,492,616,493,495
491,493,639,492,492
491,492,632,491,492
491,495,585,492,496
491,492,484,491,494
491,494,411,491,494
493,493,376,490,494
493,493,365,490,493
491,491,374,492,495
492,495,388,489,494
490,492,439,491,494
491,492,500,491,493
491,493,570,490,492
490,494,631,492,495
491,492,637,489,494
493,494,624,493,493
493,492,545,491,495
493,493,445,491,494
492,492,398,492,495
492,494,367,489,493
490,494,367,491,494
492,492,377,490,494
491,495,405,490,493
492,494,465,490,493
492,494,529,492,493
490,493,609,490,494
491,495,639,490,494
489,492,633,492,494
489,492,596,493,494
490,493,499,492,494
494,493,417,491,493
494,494,381,492,495
492,494,366,490,494
492,493,372,490,494
493,492,385,489,494
492,492,433,491,494
490,493,492,491,494
490,492,562,489,493
492,494,629,491,493
491,493,636,490,492
492,494,626,490,492
491,495,560,492,495
492,493,454,491,494
491,492,401,492,495
492,491,369,490,495
492,491,368,491,494
491,492,377,492,493
493,493,401,492,493
491,493,460,491,494
491,494,520,491,493
492,494,600,490,493
493,494,639,491,494
493,494,633,491,492
491,491,608,491,493
492,495,510,492,494
492,492,423,492,495
491,492,385,492,494
490,492,367,491,492
492,493,373,491,495
491,494,381,490,492
490,492,427,492,493
491,493,485,490,493
492,493,554,490,493
493,492,625,491,493
491,493,637,492,494
490,492,628,490,493
493,492,571,493,494
491,493,464,492,494
491,493,405,491,493
492,491,372,492,496
492,494,367,490,492
491,493,375,491,494
492,492,399,491,495
492,492,452,491,494
492,493,513,491,493
492,493,589,492,493
491,493,637,491,495
492,493,634,490,493
492,494,613,490,493
494,494,523,491,494
492,493,431,491,494
490,492,389,491,495
493,492,367,491,493
492,491,371,493,494
491,492,380,492,493
490,492,419,491,493
491,493,479,491,494
491,493,543,490,494
490,492,621,490,493
492,493,639,490,494
493,492,630,491,495
494,493,583,492,493
491,494,477,491,494
492,493,409,490,493
490,492,373,493,493
490,492,364,490,492
491,494,374,489,492
491,491,396,492,493
491,493,444,492,493
491,493,508,491,494
492,492,582,491,495
491,492,634,492,494
491,493,635,492,493
490,493,622,490,494
491,493,533,492,494
493,493,438,491,493
491,493,392,490,493
492,495,367,490,494
493,493,371,492,492
490,493,379,491,495
492,494,411,490,493
491,492,472,491,493
490,492,534,492,493
490,493,612,492,493
491,492,640,492,493
492,494,629,492,493
490,492,588,491,494
493,493,487,490,494
492,493,414,490,494
492,492,376,491,492
491,492,367,493,494
493,493,375,490,493
490,493,387,492,492
491,494,437,491,493
491,493,499,490,493
492,494,569,493,493
490,492,631,491,494
492,494,636,490,492
490,491,626,492,496
491,492,548,492,495
492,493,448,491,494
492,493,399,491,493
491,493,367,490,495
492,492,368,490,493
492,493,378,489,494
493,493,406,489,493
492,493,464,492,493
490,492,526,490,494
491,494,605,489,494
490,492,639,492,493
490,494,630,491,492
491,493,597,492,495
492,493,503,492,493
492,493,419,491,493
492,493,383,490,494
493,494,368,491,495
492,491,373,491,494
491,492,385,492,494
492,494,430,491,494
490,493,492,490,493
491,492,559,491,492
490,494,625,490,493
493,494,638,490,494
493,493,625,491,493
491,492,562,492,495
492,493,456,491,494
491,492,402,492,493
492,492,369,493,494
490,493,367,491,494
492,492,378,491,493
491,494,403,492,494
491,494,457,491,493
491,494,518,491,494
494,493,598,491,494
493,495,637,491,492
491,492,634,492,493
494,494,608,493,493
490,493,512,492,494
491,493,423,491,493
492,493,386,491,492
491,495,370,492,494
490,493,372,490,493
491,493,382,492,493
493,492,426,491,494
492,493,484,491,494
493,493,552,492,493
493,494,623,493,493
491,493,639,491,494
491,494,628,490,492
492,495,571,490,493
493,493,467,491,494
492,492,407,492,493
492,491,371,490,492
492,494,366,492,493
490,492,375,492,493
490,492,396,492,492
491,493,450,491,494
492,492,511,491,493
491,492,589,492,494
493,495,638,491,494
493,492,635,491,494
492,491,618,491,495
493,492,526,491,493
492,493,431,491,495
491,492,390,490,493
494,492,367,492,492
491,493,368,491,493
492,494,379,490,492
492,492,418,492,493
492,493,476,490,493
491,493,542,491,494
491,491,619,492,494
491,492,639,492,493
491,493,629,491,494
493,493,581,493,494
491,493,478,491,494
492,493,410,490,493
492,493,373,490,493
493,493,366,491,494
491,494,374,491,494
491,491,393,490,492
492,494,445,492,493
491,492,506,492,493
490,493,577,492,492
491,494,633,490,493
492,492,637,492,493
492,495,622,490,493
491,493,537,491,494
493,493,439,492,494
492,492,394,491,495
492,492,370,490,492
492,493,368,492,493
491,492,378,491,494
491,494,409,490,492
491,493,468,491,493
492,493,532,490,493
490,492,612,493,493
493,492,639,490,492
492,494,633,492,495
490,492,592,493,495
491,493,491,492,495
493,494,415,491,494
492,493,376,492,492
493,492,367,491,493
493,494,373,490,493
492,493,386,489,493
492,492,436,490,493
492,493,497,491,492
491,493,568,491,495
491,494,629,490,493
490,493,636,491,492
490,493,623,491,492
491,494,550,491,493
492,492,450,491,493
491,493,398,492,493
491,492,369,490,494
491,491,369,492,495
491,492,377,492,495
491,492,404,490,493
492,492,462,493,494
492,493,524,491,492
491,494,605,491,493
491,494,638,491,494
492,493,633,490,492
491,493,600,491,495
493,492,502,492,494
492,493,421,492,493
491,492,383,493,494
490,491,366,492,493
491,493,371,491,492
491,492,385,491,492
491,494,428,491,493
492,492,491,491,492
491,492,558,490,493
493,492,626,491,494
492,492,637,490,493
492,492,627,493,495
493,494,563,491,494
491,493,459,492,494
490,492,402,491,493
491,494,367,490,495
490,492,368,490,493
493,492,375,491,492
491,492,403,491,495
491,493,456,491,493
491,493,517,491,494
491,494,596,491,494
490,494,636,492,495
492,492,635,490,493
492,494,610,490,492
493,493,515,491,494
491,493,425,490,493
493,493,387,491,492
490,492,369,491,495
492,494,370,490,493
490,492,382,493,493
490,492,422,491,493
491,492,482,491,493
492,492,550,490,492
491,494,622,492,493
491,493,639,491,493
492,492,629,491,494
493,492,575,491,494
493,493,468,491,493
492,492,407,492,493
493,494,370,493,493
491,493,365,491,492
491,493,373,491,492
492,494,394,493,494
491,493,449,491,493
492,492,509,492,492
493,492,588,491,494
492,492,636,492,494
491,492,634,492,493
491,493,618,493,494
494,493,528,492,493
491,492,432,490,494
492,493,391,491,493
491,494,367,490,494
493,493,371,491,494
492,493,379,491,492
492,491,417,492,493
491,493,474,490,493
490,492,541,492,493
489,492,616,492,492
490,493,637,491,493
491,491,629,490,493
491,491,586,493,494
492,494,481,491,493
491,493,412,491,494
492,492,375,490,495
491,494,365,490,493
490,491,374,490,494
493,493,390,493,492
491,493,442,492,493
490,493,503,491,493
491,494,573,490,492
492,492,633,492,493
492,492,636,492,492
491,494,621,491,495
492,491,541,492,494
492,492,440,491,494
491,492,395,491,493
493,493,367,493,492
490,492,369,491,494
492,494,378,490,492
492,494,408,490,493
491,493,466,490,493
491,492,531,491,494
491,491,611,490,492
491,494,640,491,493
490,493,631,492,493
490,492,591,492,493
491,493,494,491,494
492,493,416,491,493
490,491,379,493,492
493,493,366,491,493
491,492,374,491,494
491,492,387,491,495
491,492,434,491,492
491,493,497,492,493
490,493,565,489,493
490,494,628,491,492
491,493,636,490,493
492,494,624,490,493
491,493,554,492,494
492,493,451,491,493
491,493,400,491,494
491,492,370,493,494
491,492,367,492,493
491,493,377,491,494
493,493,402,490,492
490,492,460,491,492
491,494,522,490,492
493,493,603,490,493
493,492,638,491,492
493,494,632,492,494
490,491,600,490,493
494,492,505,492,493
492,492,421,492,493
491,492,382,492,492
491,493,365,490,492
491,492,374,492,493
492,493,383,493,492
490,493,431,490,493
492,493,489,491,493
492,491,557,492,494
491,492,625,490,493
492,493,638,491,492
493,491,628,492,492
491,495,566,491,493
491,493,461,491,493
491,493,404,490,493
491,493,371,490,493
491,491,366,490,492
492,492,377,492,494
490,491,402,493,493
490,492,454,492,493
491,493,515,491,494
491,494,593,491,494
492,492,638,490,494
493,494,636,491,494
492,492,614,490,495
493,492,518,491,494
493,493,427,491,493
491,492,389,493,494
493,494,366,490,492
491,493,370,491,492
491,493,380,491,492
492,494,421,490,493
491,492,482,491,493
491,493,547,492,492
491,493,623,491,494
493,493,641,493,494
490,492,629,493,494
491,495,577,491,494
491,493,472,493,494
493,493,408,491,493
491,494,370,491,492
491,494,366,490,493
493,494,375,492,493
492,493,397,491,495
492,494,447,492,493
493,493,510,491,493
491,492,586,493,494
490,492,635,492,494
491,494,634,492,495
493,493,622,493,493
492,495,531,493,495
493,495,435,492,493
492,495,393,491,494
494,494,368,491,495
494,494,369,492,492
492,492,382,492,492
492,494,413,492,493
491,493,475,491,493
490,492,539,492,492
490,493,614,491,494
491,492,639,490,493
492,493,631,492,493
494,494,587,491,494
494,493,485,491,494
492,492,413,492,494
492,494,374,490,495
491,492,367,491,494
492,492,371,491,492
492,495,389,491,492
491,494,441,491,493
491,493,502,491,493
493,493,574,493,492
493,494,635,492,493
493,494,636,492,494
491,492,626,493,494
490,492,543,493,494
492,492,444,491,494
493,493,397,492,492
491,491,370,491,494
493,494,369,490,493
492,494,379,491,494
494,493,409,491,494
492,493,466,491,493
492,493,530,491,492
491,494,610,492,494
490,493,639,492,492
491,494,631,491,492
491,494,595,492,496
492,494,496,492,493
492,492,417,492,493
493,492,379,491,494
493,493,366,492,494
491,491,373,492,494
491,492,385,490,493
493,494,434,492,492
490,493,494,490,493
491,494,562,491,492
492,494,629,491,493
492,494,638,491,494
491,493,625,492,494
494,492,559,492,493
492,493,453,492,494
492,492,402,492,493
491,492,370,493,493
491,493,368,491,494
493,494,376,490,492
491,491,404,492,493
492,494,459,491,493
492,494,521,491,493
492,493,602,491,492
491,494,638,492,493
491,492,633,491,493
493,492,605,494,494
491,493,509,492,494
492,492,421,492,493
491,493,383,491,492
492,492,368,491,492
492,494,372,493,493
491,493,383,490,494
494,493,428,491,493
493,493,487,492,494
492,492,553,490,492
493,492,626,494,492
493,492,639,492,492
492,494,626,490,492
491,495,569,491,493
492,493,463,491,494
492,492,405,491,493
493,493,369,493,492
492,492,368,492,494
492,492,376,493,493
491,491,400,493,492
491,493,452,491,493
492,493,514,491,493
492,491,593,490,492
492,494,636,490,493
493,493,636,491,494
493,492,615,491,495
494,492,518,491,493
492,493,429,491,494
492,493,388,490,493
491,491,368,492,492
491,493,369,491,492
491,493,379,491,495
492,491,421,490,492
492,494,480,492,493
491,493,546,491,493
493,493,621,491,494
492,492,640,493,494
491,494,628,490,493
491,492,579,493,494
493,493,473,492,493
492,492,408,491,492
491,494,371,491,492
491,493,366,493,493
491,492,375,491,494
493,493,392,492,492
492,492,447,491,494
492,492,508,492,493
491,492,583,493,493
490,492,634,492,494
493,492,637,491,492
492,494,623,493,495
492,495,531,492,493
493,494,437,491,493
493,493,395,492,495
493,493,366,492,492
492,492,371,492,492
492,494,378,492,493
490,492,412,492,492
490,492,473,491,493
490,493,536,491,494
491,491,613,490,492
492,492,640,492,492
493,492,632,491,494
493,493,589,492,496
492,492,487,492,493
492,493,411,491,492
491,493,376,491,493
493,492,364,491,493
492,494,372,490,492
493,495,388,490,492
493,493,440,491,493
492,492,500,492,493
492,492,572,491,491
491,494,631,492,494
491,492,637,492,492
490,493,624,493,492
490,493,545,492,495
494,492,445,491,492
491,492,398,492,493
493,494,367,489,493
494,492,370,491,494
493,492,379,492,495
491,494,404,490,494
491,492,466,491,493
492,493,528,492,492
490,493,607,492,492
493,495,639,490,493
492,493,633,493,493
490,494,596,490,493
491,493,498,492,494
492,492,417,491,494
492,492,382,493,495
491,491,367,493,493
490,492,372,491,494
493,492,383,491,492
491,491,434,491,493
491,493,492,491,492
492,493,562,490,492
493,494,629,491,493
491,493,636,491,494
492,492,629,490,492
492,495,559,493,494
491,492,455,491,493
491,492,401,491,492
491,493,369,490,494
491,494,367,490,493
491,492,377,492,493
493,493,402,490,493
493,493,458,490,492
491,493,520,491,492
492,494,599,492,494
491,493,640,491,494
493,494,632,491,491
492,494,605,491,492
492,494,511,491,493
492,492,424,491,493
491,492,385,493,493
494,494,369,491,492
492,494,372,492,494
491,491,382,492,494
491,492,426,491,493
491,492,484,491,493
492,494,552,491,491
492,492,626,492,493
492,493,638,490,494
494,493,629,491,493
494,493,573,491,492
492,493,464,491,493
493,493,404,491,493
492,492,370,493,494
491,493,365,491,492
492,493,374,491,492
491,492,399,492,495
491,494,450,490,493
492,493,514,491,493
492,493,590,491,494
493,493,637,491,494
492,493,636,492,494
490,492,615,490,493
493,493,523,492,494
492,493,430,491,493
491,493,388,491,492
492,494,366,491,492
493,494,371,490,493
491,492,380,491,494
493,493,418,491,492
491,492,478,491,493
492,492,545,491,493
491,492,621,493,492
491,493,640,491,494
492,494,627,489,493
491,491,583,491,492
492,493,475,491,493
492,493,409,490,493
493,492,375,492,491
490,493,366,492,494
491,494,373,489,492
490,491,393,492,492
490,492,443,491,492
491,492,505,491,491
490,493,577,490,494
491,491,634,490,493
493,493,635,492,491
490,491,622,491,494
493,492,535,491,494
493,493,439,491,494
491,493,392,491,493
490,491,367,492,493
493,491,369,490,492
491,493,376,490,491
492,494,410,489,492
492,493,470,490,493
491,492,535,490,493
492,493,612,491,491
490,492,640,492,492
490,492,630,491,492
490,493,589,492,492
492,492,489,491,493
492,492,413,491,494
491,492,376,490,492
492,492,366,490,493
492,491,373,490,494
492,492,389,491,494
491,493,436,490,492
491,492,498,491,492
492,493,570,492,491
490,493,630,490,492
492,493,636,489,492
493,493,625,493,493
490,491,547,490,493
493,493,447,491,492
492,492,397,491,494
492,491,368,491,493
491,492,368,492,492
492,492,377,490,491
490,493,402,490,493
492,492,463,492,493
491,493,524,490,492
492,494,605,489,492
493,493,638,492,492
491,491,632,492,494
492,494,596,490,494
491,492,500,492,494
492,492,418,492,493
491,492,381,491,492
490,492,365,491,494
490,491,371,490,492
493,493,384,493,492
492,492,432,490,493
492,493,492,490,493
492,493,561,491,493
491,494,625,491,493
491,493,637,490,494
492,492,625,491,491
490,493,559,491,493
492,493,456,491,492
492,493,403,492,493
491,493,368,490,493
491,493,366,490,493
491,491,377,492,494
491,491,402,492,493
491,492,457,491,492
491,493,518,491,492
491,493,600,491,494
492,493,637,491,493
492,493,633,490,493
493,493,608,490,493
494,493,514,491,493
491,492,423,491,494
491,491,386,489,492
492,495,367,492,492
490,492,369,492,492
492,494,381,491,491
491,494,426,492,493
491,494,484,491,492
491,493,552,492,493
492,492,623,491,494
492,491,639,491,493
491,491,629,492,492
492,495,572,493,493
492,492,466,490,492
492,492,405,491,492
491,493,367,491,491
492,494,366,489,493
492,492,375,492,492
493,492,397,490,491
491,493,449,490,493
491,492,512,491,493
490,491,588,492,493
490,492,635,492,492
491,494,636,491,494
491,493,615,490,492
491,492,526,492,492
491,492,431,490,492
492,492,390,490,494
495,492,369,490,491
491,493,368,492,494
491,492,379,489,492
493,492,417,492,493
490,492,476,491,493
491,493,540,489,491
492,492,620,492,493
492,493,639,491,492
491,494,630,491,494
493,491,584,492,495
492,492,478,491,493
492,492,411,491,492
492,493,372,493,493
491,492,366,491,494
491,494,372,490,492
491,494,389,489,492
492,494,442,490,492
492,493,503,490,492
490,492,575,491,494
492,492,633,489,492
492,492,636,492,493
489,492,621,494,493
490,493,538,491,493
491,493,440,491,493
491,493,394,490,494
490,491,369,490,493
492,492,369,490,494
492,492,378,490,495
492,492,411,490,492
491,493,469,491,493
491,494,533,490,493
490,492,611,492,492
491,494,637,491,492
492,495,630,490,492
490,492,592,493,493
492,493,491,492,494
492,493,415,491,493
491,491,379,492,495
491,491,365,492,493
490,492,372,492,492
490,493,386,490,494
491,493,434,491,493
492,492,497,491,492
491,493,566,489,492
493,494,629,491,493
492,492,638,491,492
491,494,625,492,495
492,495,549,490,493
491,492,448,491,493
490,492,396,491,492
491,492,367,492,492
492,492,369,491,492
491,493,375,492,493
490,492,404,490,493
492,493,461,491,493
492,492,523,491,494
492,491,604,490,492
491,492,639,492,492
493,492,634,491,491
491,493,598,492,491
491,494,502,491,493
492,492,419,490,493
492,494,384,493,493
490,491,366,490,494
492,494,370,490,492
491,492,384,493,494
490,491,430,491,493
491,493,489,491,492
492,493,559,490,491
490,493,624,492,493
491,493,638,490,493
494,493,628,491,493
494,493,564,491,494
493,493,458,491,492
491,492,402,491,494
493,494,367,490,493
490,492,367,492,492
490,493,374,491,492
491,494,398,490,494
491,492,457,491,493
491,494,518,492,492
491,494,598,490,493
493,492,639,492,494
491,492,634,492,493
490,491,613,492,494
493,494,515,491,494
492,492,424,490,493
492,492,386,491,492
490,494,365,490,492
492,494,371,490,492
492,493,382,493,492
489,492,423,490,493
491,492,483,491,493
491,492,552,492,493
489,491,622,493,492
491,492,638,491,493
492,492,630,491,492
491,494,576,492,494
492,493,469,491,493
491,493,406,491,493
492,492,371,490,493
492,493,365,490,492
491,491,375,492,493
492,494,395,492,492
490,493,448,492,492
491,492,509,491,492
491,493,584,490,492
492,495,637,493,493
490,492,635,490,494
491,494,617,492,494
493,491,529,492,494
492,492,432,491,494
492,492,391,492,492
493,494,368,492,492
491,493,370,491,494
492,494,379,489,491
492,494,415,490,493
491,493,474,491,493
493,493,540,491,491
492,492,618,491,493
493,494,640,492,493
491,493,632,493,492
490,492,584,493,493
491,493,482,490,493
492,493,411,491,493
491,492,375,492,495
492,494,367,490,493
492,492,374,491,494
492,491,391,491,494
491,492,442,491,493
491,493,501,491,493
491,492,576,489,493
494,493,634,491,492
491,494,635,490,492
491,494,623,489,492
493,492,541,492,493
492,494,441,491,493
491,493,395,491,493
491,492,369,491,494
490,491,368,492,494
491,492,377,490,493
493,493,407,491,492
490,492,467,490,492
491,493,531,490,491
491,494,609,490,492
492,493,639,490,493
490,494,630,491,494
492,491,594,491,492
492,494,493,491,493
491,492,416,492,493
490,492,378,492,493
490,492,364,491,492
491,491,374,491,494
492,493,383,489,494
490,492,436,490,492
492,493,497,490,493
491,492,566,490,495
492,492,631,490,493
492,495,638,492,493
489,492,626,490,494
491,494,551,491,493
491,493,450,491,493
491,492,398,490,492
491,492,370,492,493
492,492,368,491,492
491,493,377,491,494
492,491,405,491,494
490,492,460,491,493
491,492,522,490,492
493,493,603,492,492
492,491,639,491,493
493,494,633,490,493
493,494,601,490,493
492,493,505,491,493
492,493,419,491,492
491,493,384,491,495
492,494,364,489,493
490,493,372,492,493
490,492,382,493,493
490,493,426,491,492
492,493,489,491,492
491,493,556,492,494
490,492,625,490,494
492,493,639,491,494
491,491,628,491,495
492,492,565,491,493
492,492,462,492,493
492,493,402,490,493
491,493,369,493,492
490,493,366,491,492
491,493,374,490,493
490,491,402,489,492
492,493,455,491,493
491,493,516,490,493
491,492,596,491,494
491,492,637,492,494
490,492,634,492,492
493,492,613,490,492
490,493,517,491,494
493,492,427,491,492
491,493,387,490,492
492,494,366,490,493
493,492,370,491,492
491,492,382,492,495
491,494,420,489,493
491,492,483,491,493
491,493,548,492,492
490,493,620,492,494
492,492,641,491,493
492,493,629,492,493
490,494,578,490,494
492,494,472,491,494
492,493,408,491,494
492,494,370,490,492
490,492,368,492,493
492,493,375,491,492
491,493,394,491,491
490,493,447,491,492
491,492,508,491,492
492,494,585,491,493
490,493,637,491,494
491,493,634,489,493
491,491,622,492,495
491,491,531,492,494
492,492,434,491,492
493,493,393,491,492
490,493,368,491,495
491,494,368,489,492
492,493,379,490,492
493,493,414,490,494
493,492,474,490,492
491,492,539,491,492
492,494,613,492,493
491,493,640,492,492
490,494,629,491,491
490,493,584,491,494
492,493,483,491,493
491,492,412,491,493
493,492,375,490,493
493,492,367,491,494
491,491,374,492,494
491,490,390,492,492
492,494,439,491,493
491,493,501,490,493
492,493,572,490,490
491,494,632,490,492
492,493,636,490,494
493,493,623,493,492
493,492,543,491,493
491,492,442,490,494
492,492,396,492,493
490,491,369,493,493
490,492,366,490,493
492,492,375,490,492
491,491,409,492,494
492,494,466,490,492
491,493,530,490,493
493,492,609,490,494
492,494,638,490,493
490,492,633,490,493
493,494,593,492,492
491,493,495,492,493
491,492,416,491,492
491,493,378,490,492
492,491,367,492,492
492,493,373,491,492
491,493,382,490,494
492,492,435,491,493
491,492,494,491,494
491,492,563,489,492
493,494,629,491,492
491,491,638,492,494
493,494,625,489,492
492,495,555,490,493
492,493,452,491,494
492,492,399,491,494
492,492,370,491,493
492,494,368,491,493
491,493,377,492,493
490,492,402,492,492
491,492,460,489,493
492,493,521,490,492
490,492,603,492,492
493,493,640,491,494
492,492,635,492,494
491,492,606,492,495
491,492,508,491,492
492,493,421,492,493
491,491,384,490,495
491,493,364,490,492
492,493,371,490,493
492,493,382,489,493
490,493,426,491,493
492,493,487,490,492
491,493,556,491,493
491,492,626,492,492
490,492,638,491,492
490,494,628,491,495
494,494,568,490,492
492,492,464,491,494
492,494,404,490,493
493,493,371,490,493
492,491,368,491,492
492,494,374,492,493
490,492,399,490,493
493,493,453,491,493
492,493,515,491,492
491,494,591,490,492
491,494,637,490,494
491,492,635,491,494
492,491,616,491,492
491,494,521,491,494
493,493,430,491,494
491,492,389,493,493
490,491,367,490,493
492,493,370,490,492
491,491,382,491,491
492,494,420,490,492
492,494,480,491,492
492,492,546,490,491
491,493,618,491,493
491,492,639,490,493
493,492,629,492,492
490,493,579,493,492
491,493,474,492,493
492,492,410,491,494
492,494,372,490,494
489,492,366,490,494
492,492,375,490,494
492,492,396,491,495
491,492,446,491,494
491,493,506,490,492
492,493,582,491,492
493,492,636,491,493
492,495,635,490,493
493,493,621,490,493
494,494,532,491,494
492,492,437,490,493
492,492,392,490,492
491,491,369,492,494
490,492,369,492,492
490,492,378,492,492
490,491,414,490,493
491,493,472,491,493
491,492,537,490,492
493,494,615,489,492
493,493,641,491,494
492,492,631,491,493
492,495,590,492,494
491,493,484,491,493
491,491,412,492,493
491,493,374,491,491
490,494,365,490,492
491,494,372,489,493
491,492,389,489,493
492,493,439,491,493
492,493,501,490,493
491,493,574,491,494
491,492,634,492,494
490,493,638,490,494
491,494,623,492,495
492,491,546,491,493
492,494,444,491,492
491,494,397,490,493
493,494,367,493,492
491,494,369,491,494
492,494,376,490,492
491,491,409,491,493
491,493,467,491,493
491,493,528,492,492
493,493,609,491,492
493,495,639,492,493
490,492,632,490,494
493,495,596,490,493
493,493,499,492,494
492,493,417,491,494
492,493,379,491,492
493,491,368,492,492
491,494,370,491,494
491,492,386,492,495
491,492,433,491,493
492,492,492,491,493
492,494,563,492,493
490,495,627,490,493
490,493,638,492,493
490,492,627,493,494
491,492,560,492,494
492,493,453,490,493
491,492,401,491,493
491,493,368,492,492
491,492,366,492,492
491,492,375,491,492
489,492,403,489,494
492,493,457,491,491
490,492,520,490,491
490,493,600,489,492
491,493,638,490,493
492,492,635,491,494
492,491,607,490,492
492,494,510,492,494
491,492,420,491,493
491,492,385,492,492
491,492,367,492,492
490,493,370,493,492
492,492,382,491,491
491,494,425,491,493
490,491,484,490,491
491,493,552,489,491
492,494,623,489,493
492,492,637,492,492
491,492,629,491,494
490,494,569,492,495
493,493,464,491,493
492,492,406,491,493
491,492,371,492,491
491,493,366,492,492
490,493,376,491,494
493,493,396,491,492
491,494,451,490,492
491,493,513,490,492
492,493,590,490,493
490,492,636,491,494
492,492,636,490,493
492,493,618,493,494
491,493,523,492,493
492,493,432,492,493
491,492,390,491,494
493,494,365,490,492
490,492,370,493,493
493,492,381,490,494
493,492,420,491,493
492,492,478,491,493
491,493,543,492,493
490,492,619,491,494
493,493,639,491,492
492,494,629,489,492
491,495,581,490,493
492,492,478,492,494
492,494,409,490,492
491,492,373,490,493
493,491,367,491,494
491,491,375,491,493
491,491,394,493,493
490,491,443,490,492
492,493,507,492,492
492,491,581,491,492
492,494,634,489,492
492,493,636,491,494
493,492,622,490,492
491,493,533,491,494
492,493,438,491,493
491,492,392,492,493
491,491,368,491,493
490,493,368,491,492
492,491,378,491,495
492,495,410,490,493
491,492,471,491,493
492,493,535,490,494
493,492,615,491,494
492,492,639,490,493
493,494,630,491,492
490,494,588,491,494
492,493,486,492,494
493,493,413,490,493
492,494,376,490,492
491,493,366,490,492
491,493,372,490,494
492,492,386,491,491
491,491,439,490,493
492,493,500,491,493
491,493,571,492,492
490,493,631,491,494
492,495,636,490,493
491,491,626,489,493
493,494,547,491,493
493,494,448,491,493
492,493,398,490,493
491,494,369,491,494
491,493,368,490,493
490,493,375,492,492
490,493,405,491,492
491,493,464,491,492
491,492,526,491,492
492,495,607,492,493
491,493,640,491,494
492,491,633,492,494
491,492,599,492,495
491,492,500,492,494
491,492,416,491,493
491,493,380,492,494
493,492,366,490,492
492,494,371,489,492
492,494,384,489,492
492,493,431,492,492
492,493,493,490,493
492,494,560,490,491
491,491,629,491,493
491,493,639,491,492
490,494,626,492,493
493,492,562,491,493
492,494,456,491,494
491,492,400,490,493
493,494,368,489,492
492,492,369,491,493
492,491,374,490,493
492,491,403,492,493
492,494,457,490,493
491,492,519,491,492
491,493,598,490,492
491,495,638,491,492
492,493,634,492,493
490,493,609,490,493
494,493,513,492,494
492,492,423,490,494
491,492,387,492,494
491,492,368,493,493
493,492,371,490,491
491,494,381,491,494
491,491,423,490,492
491,493,483,491,491
492,493,552,490,492
492,493,621,491,492
491,491,640,492,493
492,494,628,490,493
490,492,573,492,493
491,493,467,491,493
491,492,406,491,494
491,491,371,490,491
492,494,367,492,492
490,493,375,491,494
493,492,397,490,494
491,492,451,490,493
491,493,512,491,493
492,493,588,489,492
490,493,635,491,494
491,492,633,489,492
493,494,616,490,492
493,495,525,491,493
492,493,432,491,493
491,492,391,491,495
490,494,366,491,494
490,492,370,492,493
491,493,380,491,492
489,493,417,491,493
491,492,477,490,492
491,493,544,492,493
490,494,617,490,494
492,492,640,491,494
492,492,631,491,494
493,494,581,491,493
492,493,479,491,493
491,494,409,491,492
491,492,371,492,492
491,493,365,490,492
491,494,374,490,492
492,493,393,493,493
491,493,444,490,493
491,493,505,492,493
492,492,580,491,494
492,492,635,492,493
491,493,636,492,494
492,491,623,492,491
491,494,539,492,494
492,492,438,491,492
491,493,394,490,493
494,494,368,489,493
492,493,367,491,492
