Sensor0,Sensor1,Sensor2,Sensor3,Sensor4

494,493,573,491,493
492,492,467,491,494
491,493,406,25,490
493,493,493,606,491
492,491,2,492,379
490,492,491,494,405
489,492,492,493,464
491,493,492,493,525
490,493,493,493,606
491,492,491,492,641
491,494,491,494,630
489,493,491,491,600
493,494,491,493,501
492,494,493,492,418
492,493,494,492,384
491,492,490,493,366
492,495,491,494,373
489,493,493,493,386
490,494,493,492,431
491,493,492,493,491
490,492,491,492,560
491,492,492,494,624
491,492,491,493,636
490,492,491,494,625
490,492,492,494,561
492,495,493,493,457
491,493,492,492,402
492,494,494,493,370
490,494,493,492,370
492,495,492,492,378
492,494,491,491,401
492,493,493,493,457
491,493,491,492,517
490,493,492,493,595
490,491,491,494,636
490,493,492,493,633
490,494,493,493,610
493,493,494,493,514
491,494,492,492,423
490,494,491,492,388
492,495,492,492,369
492,493,491,493,370
490,494,493,492,381
491,491,490,491,426
491,494,492,493,484
490,492,492,492,550
490,493,492,493,621
490,494,491,493,636
490,494,492,491,629
490,493,493,495,574
493,494,493,493,468
491,493,492,492,407
491,493,492,493,369
491,492,492,492,369
492,494,492,494,376
490,493,490,492,395
490,494,493,492,451
490,493,491,493,511
491,493,491,491,586
489,492,493,494,634
492,492,491,492,634
492,494,493,495,616
490,492,492,495,525
491,493,492,493,432
491,493,492,492,391
491,494,494,493,369
491,493,492,494,371
492,494,491,492,381
492,493,490,492,418
492,493,491,491,476
490,493,492,493,541
490,491,491,491,618
493,493,493,493,639
490,494,493,492,631
491,494,494,492,584
492,496,493,492,479
491,494,493,494,412
492,493,491,493,373
490,493,491,493,365
490,492,493,494,375
490,493,492,494,390
490,492,491,492,444
491,493,492,493,504
491,492,491,492,577
490,494,493,492,634
491,493,491,491,635
492,493,491,492,622
490,493,495,493,538
492,493,493,493,439
491,493,492,493,394
490,492,493,494,368
490,493,492,493,370
490,492,492,493,378
490,494,493,492,409
491,493,491,492,470
490,493,492,492,533
491,492,490,492,611
492,492,491,493,637
491,492,492,491,631
492,493,493,495,590
493,495,492,492,491
490,493,493,493,416
490,493,493,492,380
491,495,493,492,365
490,493,493,492,375
492,493,493,493,386
489,491,492,492,436
491,492,491,492,498
491,492,492,493,564
489,494,492,492,630
490,493,493,492,636
491,492,492,491,625
491,495,493,492,553
492,494,493,492,451
491,494,492,493,398
491,493,491,493,368
492,494,493,491,369
490,493,493,494,376
490,492,493,495,405
490,493,492,493,461
490,493,492,492,522
490,492,492,492,605
491,494,492,493,636
490,493,491,493,632
491,492,492,493,601
493,493,493,494,504
492,494,493,493,421
490,492,493,494,384
493,494,491,494,367
491,494,493,492,375
491,494,491,492,385
492,495,492,493,428
490,493,491,492,490
491,492,492,492,556
491,491,492,494,624
490,492,492,494,637
490,493,493,493,627
492,493,492,492,566
491,494,493,493,459
492,494,493,492,403
491,494,492,492,371
492,494,491,492,368
492,493,491,492,375
491,494,492,491,401
490,491,491,493,456
491,493,492,493,515
490,492,493,493,595
489,492,493,492,637
490,494,492,494,631
489,493,491,492,614
493,493,494,493,516
492,494,493,492,427
491,493,492,493,388
491,492,491,494,366
492,494,492,493,373
489,493,493,492,382
492,492,494,491,423
491,493,493,493,483
490,493,492,492,549
491,493,493,493,619
490,492,491,494,638
491,494,492,491,627
490,493,492,495,575
490,493,493,494,471
491,493,492,493,408
491,493,493,493,371
492,492,493,492,370
492,492,493,493,375
492,493,492,492,397
492,493,492,493,449
491,493,492,492,509
490,493,492,492,583
489,492,491,491,635
492,493,493,493,635
490,493,493,492,621
491,495,494,492,530
491,495,493,493,434
491,494,492,492,393
491,493,494,494,367
492,493,492,494,369
491,492,492,494,380
490,491,491,494,416
492,493,492,494,474
491,493,491,493,538
491,494,493,492,615
490,494,492,492,639
492,493,491,492,630
492,493,490,492,585
490,494,494,493,483
492,493,492,492,413
490,494,492,494,373
490,492,492,494,367
490,494,493,493,375
491,494,492,493,388
491,495,493,492,443
490,492,491,492,502
491,493,491,492,573
491,492,490,492,632
491,492,491,493,636
492,494,493,494,623
490,493,491,492,543
493,494,493,494,442
492,493,493,493,397
491,494,494,492,370
491,492,493,494,368
492,494,491,492,379
490,493,493,492,406
491,492,491,493,467
491,493,491,493,529
490,491,491,494,606
490,492,491,492,639
491,494,493,492,633
491,491,491,493,594
491,495,493,492,496
491,494,492,492,418
492,493,491,492,379
490,492,494,493,365
491,492,492,491,374
491,492,493,494,384
490,492,492,494,435
490,492,492,493,496
490,493,491,493,561
490,493,492,492,627
490,492,492,492,637
491,492,491,493,625
492,493,491,493,557
492,493,493,493,453
491,494,493,494,400
490,494,492,492,372
490,493,493,493,369
491,494,494,493,379
491,494,493,491,405
491,494,491,491,458
490,492,492,492,522
491,492,493,493,601
489,492,491,494,636
490,492,492,494,632
489,492,493,494,603
490,495,492,492,508
491,493,493,493,422
491,493,491,492,385
491,494,494,491,368
491,494,491,492,373
492,493,491,492,383
489,493,491,493,427
491,493,492,493,487
491,492,492,493,553
489,492,493,494,623
489,493,493,493,639
491,492,492,494,628
491,495,493,495,567
491,493,493,493,463
491,493,493,492,405
492,493,492,493,370
493,492,492,494,367
490,494,493,492,378
490,493,492,494,400
493,492,491,493,453
489,492,492,493,514
490,493,492,491,593
491,494,492,493,634
489,493,491,493,633
492,493,493,491,615
492,492,492,493,519
491,493,492,493,430
490,492,492,493,390
492,495,492,491,367
490,493,493,493,372
491,492,492,492,383
491,495,493,491,422
492,493,492,492,481
491,493,492,493,544
490,491,491,493,618
491,494,492,492,637
489,493,493,494,628
490,493,494,495,580
490,494,493,493,476
491,494,493,492,409
491,492,493,492,375
491,492,492,494,366
492,493,492,493,375
491,492,492,493,393
491,492,491,493,446
490,494,492,493,507
490,492,492,492,582
492,492,493,493,635
490,494,492,492,636
492,494,492,492,622
492,495,493,495,532
490,494,492,493,436
491,493,493,492,391
491,492,492,494,367
490,492,492,494,370
490,493,494,494,379
491,493,491,493,414
490,493,491,493,472
491,493,493,492,537
490,494,491,492,614
492,493,490,493,638
491,492,491,493,628
491,495,493,493,586
491,492,492,492,488
492,494,492,494,413
490,493,494,494,378
490,493,494,493,368
491,495,492,494,371
490,494,492,492,391
489,492,492,493,440
491,493,492,493,499
491,492,492,493,569
490,491,491,493,633
492,494,492,494,636
490,493,491,493,624
492,494,494,493,546
490,494,494,493,447
491,494,493,491,398
491,493,493,495,367
492,493,491,492,371
491,494,493,493,376
491,491,491,494,405
490,492,492,493,465
490,492,492,493,527
490,492,490,492,606
492,493,493,492,640
490,492,492,494,632
492,493,491,491,598
493,494,492,494,499
492,494,493,493,417
490,494,493,493,381
491,492,493,492,368
492,493,494,494,373
489,493,493,493,385
489,493,494,493,433
490,492,492,492,492
490,493,492,492,560
490,492,492,491,628
492,493,492,494,636
491,492,492,495,625
491,492,492,492,562
492,495,493,494,455
491,493,493,492,403
491,493,494,494,368
489,493,494,493,369
491,494,494,492,379
491,494,492,491,399
489,492,493,492,459
491,493,491,493,519
490,492,491,494,597
490,492,492,494,637
490,492,493,494,633
489,494,491,493,609
490,493,495,494,512
492,494,492,492,422
490,494,493,492,388
492,495,494,491,369
491,494,491,493,372
489,493,491,493,383
492,494,493,491,427
490,492,491,492,484
490,492,491,493,551
489,491,492,494,621
492,492,491,492,638
489,494,494,493,627
490,492,493,492,572
491,495,493,493,466
490,493,494,492,407
491,493,491,490,372
492,490,495,493,367
490,492,491,493,376
491,494,494,493,395
490,492,492,493,450
490,491,492,493,511
490,492,492,491,588
491,492,493,494,636
489,491,491,493,632
492,494,492,492,618
492,495,492,493,525
492,495,493,492,431
492,492,492,493,389
491,492,491,493,368
491,494,492,493,369
489,492,492,492,379
489,491,493,494,418
490,492,491,491,477
490,492,493,493,543
490,491,491,493,618
490,494,492,491,638
491,494,491,492,629
492,492,491,492,581
493,493,492,493,477
491,493,493,492,411
491,494,492,491,374
491,491,491,494,364
489,492,494,494,375
490,493,493,493,391
493,491,491,492,444
490,492,493,492,504
491,492,491,491,577
491,493,492,492,633
492,493,490,494,634
491,492,494,492,622
490,492,492,495,536
492,494,493,493,437
491,492,492,493,393
490,493,494,494,367
489,493,493,493,368
491,492,492,492,380
491,495,492,495,410
490,493,491,492,471
491,493,492,492,532
491,491,491,493,610
491,491,492,493,637
491,494,492,491,629
489,493,493,492,590
493,493,494,493,489
490,493,493,492,415
490,493,492,492,380
491,495,492,493,365
489,494,491,492,374
491,494,493,493,386
491,491,491,493,436
490,493,491,493,499
490,492,492,493,567
492,492,491,494,629
490,494,491,493,635
491,494,491,491,624
491,495,493,492,552
491,494,493,493,449
491,493,493,493,398
492,493,492,493,370
490,494,493,493,367
490,493,493,493,377
489,492,494,494,406
489,492,493,493,462
490,492,492,492,523
489,493,493,491,606
489,491,491,493,638
491,492,491,493,632
491,491,492,492,600
492,492,492,493,503
491,494,493,492,419
490,492,492,492,384
492,493,494,493,366
490,493,493,492,374
490,493,493,492,386
491,492,492,493,429
491,493,491,492,491
490,491,492,492,556
491,491,491,493,625
490,492,492,494,637
489,492,493,492,626
493,494,495,494,564
491,493,493,493,459
491,494,493,492,403
491,495,493,492,370
492,495,492,492,368
492,493,491,492,376
490,494,494,493,399
490,491,492,492,456
490,493,492,493,515
490,493,493,493,594
489,492,493,492,637
491,492,492,493,631
491,494,492,491,609
490,492,493,492,514
491,494,493,493,426
491,493,493,493,388
491,492,489,492,368
491,495,492,495,371
489,494,491,492,383
489,493,494,493,423
490,493,493,493,483
490,493,493,492,549
490,491,492,494,621
491,493,491,493,639
490,493,491,493,626
491,492,492,493,574
491,493,493,493,470
492,493,493,493,408
491,494,492,492,372
489,493,494,493,367
491,492,492,491,376
491,494,492,491,398
492,493,491,492,450
491,493,492,492,509
490,493,491,493,584
490,494,493,491,636
490,493,493,493,634
489,493,494,493,618
490,493,495,493,529
491,493,492,492,432
490,494,493,493,391
490,492,492,491,370
491,493,491,493,370
491,492,492,493,380
491,491,493,491,417
491,492,492,494,474
491,492,492,492,540
490,493,493,493,615
490,493,493,492,639
491,493,492,491,631
491,494,491,494,582
490,493,492,493,482
492,493,493,493,412
491,493,492,493,373
491,492,492,494,366
490,493,493,494,375
492,493,491,492,391
490,494,493,493,443
491,492,492,492,502
490,493,492,492,575
491,493,492,492,632
492,492,493,492,635
491,491,492,494,621
491,495,492,491,538
491,493,492,493,440
491,492,493,493,396
490,493,494,494,367
493,492,491,491,369
492,494,493,494,379
491,493,491,491,409
492,492,492,492,467
490,492,491,492,529
491,491,491,493,607
491,495,491,492,637
489,493,493,493,630
492,491,493,492,593
490,495,495,493,494
491,494,493,493,418
491,494,492,493,378
490,494,492,492,366
490,494,493,492,371
491,493,492,493,383
489,491,492,494,435
490,492,492,493,496
492,493,491,492,564
490,493,490,493,628
490,494,491,491,637
492,494,491,492,625
492,494,492,492,556
492,493,493,493,451
491,493,492,493,401
491,494,492,494,368
490,493,492,494,368
490,493,494,493,379
490,493,494,493,406
490,494,491,493,459
491,493,492,492,523
490,492,493,494,601
492,493,491,494,636
491,492,493,494,631
491,492,493,495,605
494,495,493,494,507
492,493,493,493,421
493,494,493,492,384
492,496,494,492,368
492,494,491,493,373
493,493,493,493,383
492,492,491,493,430
490,493,492,492,487
491,492,491,493,553
489,491,492,494,623
490,492,494,493,638
492,492,493,491,628
491,491,491,494,566
492,494,494,492,462
491,494,493,492,404
492,494,492,492,372
492,495,492,492,367
491,494,494,493,375
492,492,493,493,401
491,492,491,493,452
491,493,492,494,513
490,492,493,494,591
490,494,491,493,635
490,494,493,492,633
490,492,493,491,616
493,496,493,493,518
493,495,494,494,430
492,493,492,493,389
491,494,491,493,366
491,495,492,492,373
490,493,493,493,381
490,493,494,493,421
490,493,493,493,480
491,492,491,493,546
492,494,492,494,618
490,493,491,493,637
492,492,491,494,627
491,492,491,495,578
491,492,493,494,475
492,493,493,492,410
490,493,493,494,374
492,493,491,493,368
492,495,493,491,376
491,494,492,492,397
492,494,493,494,446
491,493,493,493,508
492,493,493,494,582
492,492,492,494,633
491,493,493,494,634
490,493,494,495,621
494,494,492,493,531
491,495,495,493,436
491,493,493,492,394
492,496,493,491,369
492,495,492,493,371
492,495,494,493,381
490,495,491,493,411
491,495,492,493,473
491,492,492,493,537
490,492,493,494,613
490,492,494,493,640
491,491,493,494,629
490,491,493,492,588
494,493,494,494,485
493,494,493,492,412
492,493,493,493,375
492,492,492,494,366
492,492,491,492,372
490,492,494,492,390
493,491,493,492,440
491,492,493,492,501
490,493,493,492,572
491,494,492,495,630
491,494,491,492,635
490,494,494,493,622
492,493,492,494,544
492,495,494,494,445
491,494,494,494,398
493,493,492,495,369
490,494,493,494,368
491,495,493,493,380
492,495,492,491,409
492,494,492,492,466
490,492,492,493,528
490,493,493,492,605
491,492,493,492,639
492,493,493,494,631
490,494,494,494,595
490,493,495,494,498
490,493,493,492,417
492,494,493,491,381
490,492,493,495,367
493,494,492,492,372
492,493,492,493,383
492,493,492,494,435
491,494,493,493,493
490,492,492,492,562
492,492,494,494,628
491,496,493,492,637
491,497,492,491,626
491,496,494,495,557
493,497,494,493,454
491,495,495,493,402
491,494,492,494,368
492,495,492,494,367
489,494,494,494,378
490,494,491,491,402
492,491,494,492,459
491,492,493,492,521
491,492,492,491,601
492,493,493,492,637
492,492,492,494,634
491,494,493,494,606
492,494,495,493,512
491,496,493,494,423
491,497,493,493,386
490,492,495,493,368
490,490,492,491,371
491,494,492,489,381
489,492,493,490,427
492,492,491,490,485
491,490,491,492,550
491,492,492,493,624
490,497,492,495,637
490,501,491,492,627
491,501,496,495,572
491,493,494,494,465
492,494,494,493,406
492,495,494,493,369
491,494,494,493,367
492,498,495,494,378
491,501,492,495,397
490,497,492,494,452
490,498,493,494,513
490,499,492,493,590
490,499,494,493,635
490,488,493,492,636
492,484,493,491,617
493,493,491,492,523
492,496,493,495,431
491,494,492,493,390
492,498,494,493,370
490,496,493,494,371
491,491,495,493,381
491,490,495,493,419
492,488,492,493,479
491,490,493,494,543
489,489,491,493,619
493,489,490,494,638
492,491,492,495,628
490,497,493,495,581
490,502,494,493,480
491,496,494,494,412
492,501,494,493,375
490,507,496,492,369
492,509,494,492,376
492,507,492,494,392
489,491,490,491,444
491,483,492,492,504
491,488,491,493,578
490,494,491,494,632
490,499,494,494,636
492,494,491,493,623
490,492,495,494,534
492,499,495,494,439
492,496,493,494,395
492,499,493,491,370
492,506,494,494,372
490,511,493,494,378
491,514,495,493,411
490,485,493,494,470
490,491,493,494,534
490,500,494,494,611
490,493,493,495,638
490,482,491,491,631
492,489,494,495,588
493,481,491,493,489
493,491,494,494,415
492,509,495,495,378
493,512,495,494,367
490,515,496,495,375
492,521,495,495,391
491,529,495,493,439
490,491,493,492,496
490,467,492,492,565
489,486,492,490,632
490,503,496,494,636
492,508,493,496,624
492,519,494,498,550
492,518,496,497,450
491,528,497,497,401
490,526,493,493,370
492,505,493,492,370
490,499,492,489,378
491,476,491,488,405
492,469,490,490,462
491,481,491,492,523
491,487,490,491,604
490,495,492,494,637
490,498,493,494,630
490,495,494,494,597
489,475,492,492,501
491,483,493,492,417
491,485,493,494,383
492,496,492,493,368
493,495,492,494,372
494,498,493,495,387
494,505,495,497,431
495,508,496,496,493
495,512,495,497,561
491,514,495,498,628
491,511,496,494,638
490,490,495,494,626
493,500,494,491,561
493,503,495,492,459
492,515,493,492,403
493,511,494,492,368
493,482,492,492,365
490,469,490,491,377
492,484,493,493,400
490,488,491,493,457
489,494,493,493,518
490,495,494,493,598
491,486,496,495,637
490,494,495,495,633
493,496,495,493,612
494,503,495,496,515
493,510,491,494,427
491,506,492,493,387
489,481,489,490,368
489,484,491,490,369
490,479,492,490,382
492,491,491,491,425
492,498,492,491,482
491,498,493,491,548
490,498,492,493,620
492,505,494,492,637
491,503,495,494,628
490,490,494,493,574
491,488,493,492,468
491,492,494,493,406
491,495,492,492,371
491,499,494,493,366
489,507,492,493,375
491,506,492,493,394
491,487,491,492,447
491,493,492,492,510
491,497,492,492,585
493,474,489,491,635
491,487,491,492,634
493,502,492,492,619
493,506,495,497,526
492,505,494,496,434
494,503,495,494,392
491,492,492,493,366
491,481,492,492,370
489,487,492,491,380
492,481,490,490,417
491,488,493,490,475
490,492,493,491,540
490,495,492,491,616
492,496,492,492,638
493,504,493,495,628
493,505,497,494,585
494,505,496,496,482
493,515,496,496,412
490,496,494,495,375
488,494,493,492,368
488,508,491,492,374
490,487,491,490,393
492,486,493,494,442
492,507,492,494,505
491,498,491,496,575
491,506,492,497,634
493,515,495,494,637
492,485,496,493,622
495,475,496,493,540
492,480,494,494,442
491,479,493,492,396
492,478,493,492,366
490,491,491,490,370
490,493,492,490,377
491,500,490,493,409
490,503,491,493,468
491,498,493,494,530
490,489,495,492,610
492,495,495,494,640
492,499,494,496,630
491,496,491,492,594
493,494,491,493,494
493,504,493,493,416
490,490,492,492,377
492,479,491,492,367
493,493,499,496,374
495,500,498,496,388
495,503,497,494,437
495,504,497,495,498
493,507,494,494,567
488,494,485,494,630
495,497,487,493,636
496,498,491,492,623
491,480,492,492,554
487,480,493,493,451
489,490,490,493,400
491,504,494,494,370
491,481,495,491,370
493,497,494,493,379
494,505,494,493,406
493,502,497,498,464
498,505,496,498,524
496,501,493,498,603
491,491,493,499,640
490,506,494,497,634
491,497,489,497,606
491,510,492,493,508
489,497,494,492,423
491,519,496,492,387
494,524,496,494,370
495,513,494,494,375
492,513,495,494,384
491,488,489,490,428
487,455,490,490,488
488,471,489,490,555
490,469,490,488,623
490,475,492,491,635
491,488,492,492,626
490,487,495,493,565
494,486,494,495,461
494,502,494,499,406
495,524,497,504,372
496,522,493,500,372
496,488,493,497,380
490,476,491,496,405
488,509,492,487,455
487,482,491,484,514
489,493,491,486,592
488,493,494,492,635
490,478,492,493,633
491,486,493,498,613
490,497,497,499,522
493,519,494,498,431
491,512,491,494,390
490,493,493,489,367
492,482,493,488,371
496,482,491,490,383
499,497,494,491,422
497,503,494,494,483
493,487,496,494,547
496,487,496,494,622
500,497,499,499,642
501,513,497,497,634
503,520,496,495,582
497,513,492,494,472
482,476,492,490,407
479,473,495,494,371
489,506,498,500,369
492,514,499,503,378
491,510,502,505,399
490,522,496,499,452
488,487,491,490,509
490,490,491,484,585
490,517,493,488,635
492,501,491,490,634
489,489,494,492,620
489,489,491,494,529
494,502,495,493,436
493,518,495,497,394
491,500,495,496,368
491,511,494,491,372
491,488,492,496,382
492,496,494,500,416
492,505,494,498,477
493,482,491,497,539
490,475,487,494,614
489,477,491,492,638
485,490,492,496,634
489,487,498,499,589
500,478,502,496,487
501,485,502,493,416
499,497,495,492,378
489,491,488,494,365
487,493,489,493,375
492,505,495,491,391
490,515,493,494,442
489,532,495,498,505
492,551,496,501,575
492,548,495,500,636
492,504,496,496,635
492,461,493,493,626
498,468,491,491,548
502,496,491,491,446
497,491,495,490,397
490,503,497,491,367
489,489,499,493,369
492,513,497,498,381
493,506,491,499,410
493,493,492,497,468
493,521,495,495,529
485,500,491,491,611
490,498,494,493,639
490,483,494,497,632
491,477,494,497,598
497,524,502,500,504
498,549,502,502,421
492,504,490,493,383
494,475,488,492,369
496,495,490,492,376
501,468,492,495,390
493,494,496,495,434
488,501,500,493,495
490,474,495,491,561
493,468,497,489,626
490,484,496,492,638
487,518,494,496,626
488,515,490,497,561
489,530,487,497,456
493,500,492,501,406
499,557,499,501,377
499,514,499,493,371
498,509,501,491,377
492,471,492,489,401
488,443,490,488,458
491,459,487,490,519
484,492,488,489,599
486,484,493,492,638
492,501,494,494,630
489,493,492,494,608
489,492,496,497,509
491,509,497,496,425
491,515,501,497,387
494,504,495,498,371
499,493,495,496,375
501,475,495,493,385
502,520,493,492,430
492,515,496,500,490
489,552,503,504,560
493,531,494,500,623
487,462,489,489,638
485,451,490,485,624
490,482,501,495,571
494,504,500,493,466
497,518,498,493,407
494,505,498,493,372
501,516,497,491,370
500,461,499,491,374
495,448,492,490,399
493,497,491,494,453
490,511,486,496,513
488,502,491,502,592
496,516,497,503,641
496,497,495,501,638
485,520,495,495,620
483,542,492,491,525
489,499,487,490,430
490,488,486,488,386
488,429,487,485,364
492,458,495,493,369
491,480,496,497,382
490,504,501,494,422
491,512,500,493,481
491,499,495,493,545
493,516,495,496,620
490,490,486,492,639
492,477,485,489,628
488,484,492,491,580
489,484,497,495,478
489,502,494,496,410
487,492,494,499,373
489,514,493,501,371
490,513,495,498,380
493,567,499,496,400
493,591,502,500,451
492,559,492,489,505
494,381,485,484,576
502,403,491,490,632
503,464,499,494,637
497,499,498,495,621
484,511,495,497,538
490,512,502,497,440
493,501,502,498,397
496,485,497,491,370
489,490,492,492,371
491,502,491,494,381
492,503,489,493,412
498,488,495,488,471
497,486,490,489,533
492,481,488,493,610
491,488,488,492,639
493,502,499,496,633
492,553,508,506,598
496,607,508,504,497
502,559,492,492,414
497,416,478,485,372
491,437,487,492,366
494,502,500,496,378
502,480,493,489,384
501,444,481,486,436
489,483,487,493,498
484,498,490,496,571
482,502,490,497,630
484,485,489,493,636
487,490,494,496,625
489,501,497,495,550
492,518,505,497,451
492,519,498,492,398
491,481,487,489,367
487,484,492,493,370
490,504,499,499,384
495,563,508,502,415
497,551,505,503,467
488,498,488,481,519
480,373,482,476,602
486,459,485,492,635
487,484,488,495,633
492,528,501,503,603
500,563,500,503,506
493,535,491,494,419
490,480,492,497,385
493,497,506,495,370
499,483,500,488,373
496,463,495,488,384
488,470,491,490,430
487,504,490,492,493
489,516,494,496,559
490,491,499,497,629
497,492,492,492,635
497,460,486,485,625
493,476,490,492,560
484,516,492,492,456
488,489,494,488,400
490,468,492,493,368
493,500,493,500,369
498,531,501,504,383
499,535,500,503,407
504,536,492,499,462
500,503,496,491,520
496,474,495,488,598
485,466,492,489,634
486,462,489,493,632
489,473,498,491,606
485,491,498,492,512
487,488,500,487,424
495,485,495,491,387
499,502,498,497,370
500,527,502,504,377
495,578,508,506,391
501,581,503,501,431
496,520,482,483,479
490,382,485,480,544
494,421,486,484,619
488,460,492,491,635
489,490,488,496,628
495,516,488,503,578
493,560,500,508,475
491,526,494,505,409
489,512,493,497,375
489,457,495,488,366
489,434,492,485,373
488,481,494,486,396
491,481,490,486,448
489,477,490,491,510
488,516,492,494,588
490,522,496,497,638
492,508,496,492,635
494,505,495,496,623
493,562,499,499,527
490,535,499,494,434
492,504,495,493,387
489,432,489,494,365
489,459,493,500,374
487,498,493,499,383
488,493,485,493,420
489,483,491,490,477
488,474,489,484,539
497,464,490,482,615
496,477,495,488,636
487,490,497,492,628
488,492,497,497,582
492,505,504,499,481
496,485,491,494,411
499,500,488,490,376
501,497,493,490,368
488,513,493,497,375
483,528,494,494,392
484,503,493,493,443
487,500,493,497,505
491,517,493,493,575
493,488,493,494,634
495,475,496,503,638
490,503,493,499,623
488,494,491,498,543
500,526,498,492,444
499,538,499,490,400
498,499,492,487,364
486,409,481,483,366
479,458,485,489,376
488,487,495,495,409
493,516,502,494,470
491,512,491,499,534
488,530,483,502,609
484,477,481,498,640
488,479,485,490,630
489,479,493,487,592
504,479,500,493,494
503,496,507,494,418
496,501,506,497,379
488,512,507,496,371
501,529,493,494,378
503,547,488,494,392
498,530,484,494,437
484,501,487,498,497
482,474,494,499,565
489,413,492,496,628
487,468,492,491,635
483,496,495,488,624
486,508,494,486,554
489,508,493,491,448
488,452,485,491,398
492,490,496,492,370
494,511,503,496,370
495,507,505,493,380
495,514,506,496,407
497,517,505,496,464
502,493,497,492,523
507,463,483,491,600
506,478,467,489,636
514,486,472,489,633
523,488,475,496,604
528,500,489,500,507
515,507,502,494,419
485,491,492,492,380
486,466,493,494,366
490,468,496,496,374
486,500,500,501,386
477,549,503,494,433
474,557,505,500,493
483,517,493,495,555
483,430,489,494,624
482,474,491,488,637
488,491,494,485,627
488,489,494,490,564
493,499,502,497,462
498,529,510,499,407
492,515,504,494,369
482,489,491,489,366
477,468,476,488,374
491,462,480,492,402
498,497,490,497,458
501,508,492,496,518
498,491,496,487,593
497,468,498,487,633
498,481,500,492,632
500,489,496,494,611
494,505,496,501,521
500,549,488,504,433
505,539,497,502,394
497,512,494,498,366
483,447,483,483,369
489,471,481,486,380
486,516,491,491,422
485,508,490,490,482
492,515,488,486,543
488,408,483,490,617
490,477,486,493,637
488,491,488,495,630
487,527,497,493,579
483,473,493,488,468
486,470,499,490,407
490,479,497,488,368
489,492,489,491,363
484,491,490,494,374
484,489,490,498,397
488,504,490,498,448
487,510,494,496,510
489,479,495,489,583
489,476,495,487,632
489,495,489,493,634
490,487,490,494,620
490,505,494,500,533
493,518,496,497,437
495,521,499,495,394
494,522,498,495,369
488,515,496,495,372
490,517,493,493,381
487,489,492,494,414
486,466,484,488,473
490,478,490,487,535
492,474,491,493,612
494,495,491,498,641
490,540,499,506,634
489,518,498,501,588
493,456,491,493,482
489,444,487,489,412
488,476,483,487,377
488,482,486,490,366
496,490,492,489,375
496,469,499,489,387
496,473,503,494,441
489,504,496,498,503
486,534,488,499,577
497,554,499,501,637
495,498,491,493,633
488,450,486,481,620
492,463,488,488,541
487,492,485,493,445
488,504,496,493,394
491,494,501,494,370
491,501,499,497,371
485,514,492,496,379
488,521,495,494,410
487,505,489,490,465
487,466,490,488,525
493,485,496,491,608
495,492,502,493,638
495,474,488,492,626
483,446,478,491,591
491,480,486,495,498
500,514,493,502,420
491,526,486,504,384
485,505,492,500,370
483,491,491,487,375
487,482,492,483,386
484,468,494,488,432
488,483,499,488,495
498,470,496,488,560
501,482,495,492,626
496,492,489,495,635
480,473,482,495,623
487,480,494,497,559
493,518,497,498,456
492,531,503,493,402
495,486,497,490,369
492,490,480,491,367
482,516,485,489,378
485,485,490,492,399
485,477,488,492,460
489,504,489,500,522
494,517,500,501,604
498,503,492,495,640
496,493,492,489,630
491,465,491,487,602
486,462,490,487,505
489,483,495,492,420
489,497,489,497,385
488,516,490,495,370
491,495,492,497,374
494,502,493,494,387
491,497,497,496,431
494,515,497,495,488
486,484,488,485,551
482,462,486,487,621
487,471,490,490,638
487,495,492,493,625
484,492,495,496,567
488,490,495,495,463
489,485,496,492,405
490,491,491,490,369
489,488,493,495,367
488,495,493,493,376
491,500,491,497,399
492,499,490,499,454
490,489,492,498,516
491,500,493,488,590
493,488,494,487,636
492,509,499,495,637
495,554,503,498,618
492,520,493,494,521
486,504,483,490,427
486,439,489,487,385
491,440,486,486,366
498,466,490,488,368
492,469,490,492,379
491,488,484,492,421
486,511,490,496,481
487,520,490,496,547
486,496,487,492,619
484,481,493,489,635
486,460,489,489,627
494,482,496,494,581
494,513,496,494,475
492,494,494,497,410
487,506,489,496,370
481,492,491,494,367
487,488,488,490,373
489,485,489,487,393
488,486,492,489,444
488,477,494,492,507
491,492,493,496,580
495,511,501,503,637
508,534,510,504,642
512,506,504,500,626
507,513,491,492,532
483,479,468,486,433
476,486,481,489,392
490,487,498,493,368
493,495,500,491,371
486,484,504,496,379
484,486,490,495,412
488,479,486,492,471
494,479,492,493,534
495,491,497,494,615
482,498,489,493,636
481,473,483,489,628
496,490,485,490,590
504,508,494,495,488
503,508,489,494,412
480,476,490,494,375
488,467,487,493,366
495,500,489,498,375
490,504,493,494,387
485,478,490,491,437
487,484,492,492,501
492,490,496,491,570
491,501,497,492,630
485,516,498,495,638
483,534,494,490,621
488,476,490,487,545
487,464,491,490,444
488,481,488,492,396
487,495,490,498,368
489,497,491,500,370
489,504,492,498,380
488,498,493,495,409
486,500,491,487,462
488,455,491,483,523
491,472,491,486,606
494,479,491,489,634
492,484,493,488,628
490,512,494,491,600
490,546,497,495,499
488,543,495,495,418
488,469,486,489,378
490,458,494,492,366
490,498,492,492,373
489,506,495,495,385
497,485,495,494,431
494,482,494,490,490
491,459,488,489,555
487,476,487,493,623
487,486,487,492,635
491,479,487,492,626
488,486,490,496,562
488,494,493,495,458
491,507,492,496,404
488,496,491,499,372
494,502,496,500,374
493,516,494,496,379
497,539,500,489,407
494,541,499,487,457
488,456,488,489,514
483,458,494,487,595
485,466,481,489,634
489,461,480,490,630
490,488,490,493,608
492,499,491,495,512
501,501,492,495,425
501,489,488,494,388
494,488,493,497,367
484,496,494,493,374
480,493,495,489,384
489,499,493,491,426
486,512,495,493,485
494,500,493,493,551
505,487,501,498,624
505,474,491,498,637
479,459,482,497,627
480,477,491,493,573
495,477,485,488,467
495,488,486,488,404
478,507,487,490,368
482,496,490,491,368
492,482,490,490,374
490,459,490,492,396
493,486,503,493,453
494,529,495,497,513
494,539,489,494,589
481,499,490,491,635
487,470,502,491,634
493,480,498,489,614
495,489,499,492,524
491,484,493,491,430
489,488,493,493,390
506,497,491,493,369
512,518,486,498,373
512,510,479,494,381
490,474,484,490,414
470,485,484,489,476
478,495,502,490,543
486,491,500,491,618
488,501,500,492,638
482,514,495,492,629
483,455,478,492,578
487,480,484,493,478
489,489,489,494,410
488,490,492,496,374
488,499,494,498,368
489,490,490,496,377
490,483,492,491,390
487,481,492,487,445
491,483,492,488,504
491,503,493,489,573
488,484,495,490,633
488,504,494,498,636
491,509,492,503,625
489,514,498,503,542
491,511,497,495,441
489,491,494,488,393
488,491,485,482,367
490,478,490,485,367
490,487,490,493,377
490,484,487,495,408
489,487,487,496,468
489,497,486,498,534
489,509,485,491,610
492,476,490,491,637
496,502,504,489,633
496,534,498,490,593
493,549,500,492,491
493,459,491,484,409
488,432,484,482,372
487,472,487,487,360
490,481,493,493,372
497,499,494,500,386
492,505,492,496,436
502,488,487,497,499
504,483,485,494,564
506,481,486,488,630
493,489,490,490,633
483,487,488,493,619
468,488,493,496,550
467,495,494,498,450
486,525,493,505,405
506,534,505,505,377
516,546,504,502,377
505,515,495,496,381
495,473,492,488,404
503,453,488,482,461
504,478,491,489,524
512,486,493,494,602
512,482,493,493,636
503,472,489,488,631
500,473,494,489,599
488,485,492,493,501
489,497,497,495,423
513,524,496,496,387
502,534,497,495,367
483,516,497,495,375
491,503,496,496,387
511,463,505,494,431
504,491,502,495,492
503,490,498,498,558
491,503,484,499,625
473,499,479,497,640
482,503,492,495,626
469,507,491,485,564
481,463,490,480,456
506,445,491,486,400
517,467,489,489,370
498,486,485,492,365
485,489,480,492,373
488,497,488,495,402
488,499,495,494,454
484,478,492,490,513
482,488,493,490,594
486,494,495,493,634
490,507,489,492,633
492,503,493,497,615
482,532,500,501,519
481,542,496,502,429
483,501,490,498,388
483,444,489,487,368
491,480,483,482,370
497,458,485,489,380
504,474,488,490,423
496,490,491,489,481
484,514,491,490,547
491,517,494,491,621
489,541,495,496,639
491,496,487,494,628
494,488,490,497,578
490,491,495,495,471
492,478,492,480,403
491,477,489,483,366
490,491,492,487,364
486,496,491,495,373
486,481,490,491,393
490,496,497,492,449
492,506,497,503,513
497,537,499,501,590
495,533,495,498,636
488,489,488,493,633
487,423,485,487,616
490,465,496,489,529
494,489,496,495,434
497,494,493,494,394
496,477,493,493,366
482,475,487,492,368
484,489,491,489,380
501,495,496,491,418
513,496,495,494,477
506,505,486,494,538
488,496,485,492,613
495,497,498,492,641
512,521,504,497,632
497,502,487,495,586
485,512,502,496,485
495,481,495,492,411
497,450,492,491,372
480,494,491,492,367
481,496,490,493,375
481,488,488,495,389
485,500,490,493,442
487,494,492,492,502
487,497,497,492,573
494,500,494,491,632
500,487,490,488,635
500,459,488,490,623
490,503,488,492,542
488,483,488,494,440
488,492,489,495,397
485,514,491,496,371
483,514,496,497,370
486,487,497,494,380
488,478,499,492,408
490,462,498,491,466
492,494,489,492,532
493,497,485,494,606
488,481,486,491,639
488,496,492,490,630
492,480,496,492,592
495,501,500,490,497
495,498,499,492,417
490,482,487,493,378
489,478,495,497,368
491,496,488,494,375
493,493,484,497,385
491,494,484,495,436
480,489,487,490,494
484,496,493,493,563
487,524,496,495,630
489,542,497,495,639
491,543,493,496,627
491,449,491,491,553
497,466,491,494,452
494,467,485,490,398
481,456,478,485,368
482,469,485,488,366
492,486,496,490,377
490,491,494,491,404
490,499,494,493,459
493,501,496,494,520
491,502,494,494,601
482,498,495,494,635
485,485,491,492,634
492,506,488,496,604
500,523,492,493,509
502,515,494,493,422
497,478,493,492,381
485,476,491,490,364
480,472,490,490,371
487,479,492,491,383
484,500,492,493,429
489,517,492,493,488
495,493,490,493,552
499,476,490,492,625
498,475,492,490,635
496,483,492,490,624
481,487,492,495,566
479,493,496,495,463
482,491,497,495,405
489,483,493,497,371
489,482,489,494,366
486,483,492,491,378
495,494,495,490,402
499,506,494,489,452
482,501,490,491,513
482,492,488,491,591
488,486,489,493,634
486,494,489,492,633
488,490,488,491,613
488,480,487,492,517
488,499,490,496,430
488,514,493,496,391
491,530,499,495,371
493,501,497,495,371
493,452,491,493,382
490,481,487,493,419
484,488,490,492,481
491,493,494,496,546
490,493,493,496,619
487,470,489,491,638
486,475,488,486,627
489,489,495,490,579
494,493,492,491,473
494,497,491,491,407
493,500,490,492,370
491,500,490,490,365
490,496,490,490,373
491,489,492,490,393
489,471,491,490,444
487,484,489,492,506
487,490,489,495,580
487,494,490,495,634
487,502,492,496,633
486,489,490,492,621
489,482,492,491,529
489,481,493,490,435
489,488,494,492,393
490,490,494,492,366
489,491,494,491,369
488,501,493,492,379
491,499,491,492,412
490,495,491,492,471
489,471,489,492,534
489,481,490,492,615
492,497,493,495,639
488,504,491,490,631
488,496,492,488,587
490,479,494,490,486
489,479,496,491,410
487,487,493,492,375
490,490,491,492,367
488,489,490,493,371
488,492,492,494,386
488,496,491,493,439
488,496,491,495,499
490,491,494,495,570
493,480,494,491,633
492,491,486,491,635
486,498,486,493,624
492,514,492,493,547
490,492,494,492,446
489,502,491,493,397
487,480,490,492,366
487,466,494,490,369
487,487,493,491,379
490,494,494,489,404
489,492,491,491,465
490,487,489,493,526
490,487,488,492,604
488,485,490,493,636
489,483,493,492,630
490,487,490,489,597
489,489,494,493,498
491,491,493,492,417
488,492,496,491,381
488,494,495,491,367
490,497,494,491,372
489,486,496,491,382
490,487,497,491,433
488,487,495,491,491
487,487,495,493,558
485,487,496,494,626
488,491,494,494,637
488,499,494,495,624
487,504,493,491,561
489,497,489,492,454
488,486,485,492,400
489,491,484,493,368
490,484,486,490,367
487,483,492,493,378
489,487,489,492,402
488,492,498,491,457
487,490,493,491,519
487,495,490,493,595
486,492,492,491,636
489,484,495,492,633
489,487,497,493,605
489,490,498,492,511
490,488,500,492,424
491,492,498,491,386
490,496,500,490,367
494,492,498,490,373
493,494,496,493,383
493,494,494,494,426
492,494,497,493,485
492,491,502,493,550
491,492,498,495,621
489,491,506,493,637
487,493,513,493,628
486,495,512,493,573
487,494,498,493,466
489,492,495,491,405
491,490,493,494,369
493,494,492,493,366
490,496,499,495,375
490,495,488,494,396
492,491,488,493,450
489,481,493,492,513
490,485,493,491,588
489,490,492,492,634
491,490,492,491,634
493,491,496,494,614
491,492,498,493,524
492,490,488,495,431
492,490,489,494,389
492,490,494,494,367
493,493,502,493,373
496,496,516,491,382
497,496,530,492,419
500,498,536,494,480
502,500,552,495,545
503,502,551,498,622
505,502,553,498,641
504,508,549,496,630
499,505,535,494,587
497,505,533,495,478
493,500,512,494,410
490,498,502,493,375
483,494,495,497,365
481,491,483,493,375
481,490,478,495,393
486,490,491,494,444
484,488,485,494,504
483,485,482,493,579
485,490,487,492,632
484,487,482,490,634
489,492,481,489,622
491,494,491,491,537
494,491,489,495,440
495,491,503,497,396
501,492,505,496,370
502,494,488,499,371
505,493,488,499,381
502,495,496,499,413
502,495,503,496,472
500,496,510,494,535
496,499,520,492,615
493,496,532,494,641
492,492,535,492,632
495,495,548,495,594
496,501,550,497,495
491,500,501,497,415
488,495,454,494,378
482,485,437,492,364
475,484,451,490,372
478,483,465,490,388
481,484,479,492,435
484,488,484,492,498
486,489,502,493,568
490,491,503,493,629
490,492,501,493,636
490,495,497,494,625
493,496,488,495,552
492,495,498,493,451
495,491,497,492,400
498,492,520,492,371
501,492,499,492,370
503,494,492,493,379
501,494,459,494,402
495,489,469,492,463
490,488,492,492,523
486,491,510,494,603
484,493,512,493,639
487,493,504,493,631
491,497,498,492,599
490,497,501,495,504
491,496,503,493,420
490,496,502,493,382
488,492,488,491,368
482,495,489,494,371
479,493,477,493,383
482,493,481,492,431
485,485,482,492,489
487,484,485,491,558
488,487,489,493,626
489,489,489,493,637
488,494,495,493,626
490,490,500,493,562
489,497,502,493,459
489,496,509,495,404
488,495,506,493,371
488,497,493,492,367
488,490,470,491,377
489,492,478,490,401
490,492,490,491,456
490,491,490,492,516
490,489,488,492,593
487,493,492,491,638
488,493,496,492,634
488,493,494,491,612
487,493,494,492,517
490,491,492,493,425
491,492,495,493,386
490,492,493,490,368
493,493,494,492,369
492,492,493,492,381
489,491,491,491,424
488,492,487,492,481
485,492,486,492,549
485,490,490,491,621
488,491,497,490,639
490,493,493,491,629
492,492,492,493,576
493,494,494,492,470
490,494,495,492,407
488,492,494,492,368
486,491,492,493,365
487,493,494,493,376
491,492,492,491,396
490,494,492,492,447
490,491,491,492,511
490,493,490,490,584
489,493,491,492,633
488,492,494,491,635
488,492,495,493,616
490,494,492,492,527
486,495,492,492,433
485,492,492,491,392
488,494,496,491,366
488,493,493,492,369
491,493,496,493,380
488,492,490,491,415
491,492,491,491,473
490,492,490,492,537
488,491,491,494,614
488,492,492,491,638
486,491,500,493,628
487,492,492,492,586
489,496,492,492,482
488,493,492,492,412
489,493,494,492,374
488,493,491,491,363
488,494,494,491,372
487,492,494,493,388
487,492,495,493,440
488,492,495,492,502
491,492,492,491,574
489,494,488,494,631
488,493,491,491,635
491,493,490,492,622
491,493,491,493,541
488,494,494,493,444
489,493,492,493,396
489,494,491,495,367
487,493,493,492,370
489,495,493,491,378
488,494,493,491,410
490,493,492,493,465
489,492,490,491,528
489,493,491,491,607
491,492,490,493,637
489,492,494,493,631
487,493,500,495,595
491,494,491,492,494
489,494,492,493,416
489,494,492,491,380
490,495,492,491,365
490,492,493,492,372
489,494,494,492,386
489,493,493,493,435
488,492,494,493,496
488,492,490,493,562
487,493,490,494,627
488,494,492,493,635
488,492,492,491,626
490,492,493,496,554
491,495,491,493,452
490,494,491,492,397
490,493,493,494,366
490,492,492,495,368
490,494,491,493,376
488,493,490,492,402
490,494,492,492,459
488,493,491,491,520
488,494,491,491,601
489,491,492,493,636
489,493,491,493,633
488,494,493,494,601
489,492,492,495,506
489,494,493,494,420
488,493,492,492,385
490,493,493,493,366
488,492,492,493,371
490,494,490,492,384
491,495,490,492,426
489,493,490,493,487
488,492,491,493,553
488,492,491,492,625
490,493,493,495,638
489,494,493,493,628
489,494,494,494,569
489,495,494,494,464
490,494,491,494,404
490,495,492,493,369
488,493,493,493,367
490,493,491,494,375
489,493,492,495,399
487,493,492,493,456
489,494,491,493,514
488,493,490,493,593
487,494,493,492,638
489,495,491,492,635
490,494,491,492,617
488,490,493,494,520
491,496,490,493,429
489,494,487,493,389
489,493,487,494,367
488,495,494,494,372
487,495,493,493,383
490,498,496,494,423
488,496,493,495,483
488,494,492,494,547
490,491,490,492,620
490,492,490,493,638
488,492,492,492,631
490,491,492,495,578
489,492,490,494,477
490,492,491,494,410
489,492,493,492,374
488,496,493,493,369
489,493,492,494,377
490,494,490,494,394
487,493,490,493,447
490,493,490,492,506
489,492,492,494,579
488,490,492,492,636
491,494,492,493,635
490,491,493,494,623
489,497,493,493,534
490,497,493,494,437
490,498,494,493,395
488,497,493,492,370
490,495,491,493,371
489,490,491,494,379
489,490,490,495,412
488,492,491,493,472
488,491,491,493,536
489,488,490,493,614
488,496,491,494,638
488,493,490,492,631
491,493,490,492,587
492,494,492,494,488
491,494,492,494,415
490,493,491,494,375
490,496,491,493,368
489,494,492,493,375
489,495,492,492,390
488,495,491,492,439
488,492,489,493,500
489,494,493,493,570
487,493,489,493,631
489,493,490,494,635
488,493,491,494,623
488,496,490,493,549
490,495,491,494,446
489,495,491,494,399
489,495,492,492,371
489,495,491,492,369
490,495,490,493,379
490,494,492,494,408
488,493,490,492,464
488,493,491,493,527
488,492,490,494,606
488,493,492,493,639
489,494,493,493,632
490,493,488,493,598
490,498,490,495,499
490,496,493,493,419
491,495,492,493,380
492,495,491,493,366
490,496,492,492,375
489,494,491,494,385
490,494,489,493,434
488,493,491,493,493
488,494,490,492,560
489,494,491,494,626
488,493,491,493,637
490,495,494,494,627
491,495,491,493,559
491,495,491,493,455
490,495,491,493,402
489,494,492,495,371
491,495,489,493,367
489,495,490,493,376
489,495,492,492,404
490,495,489,492,457
489,494,490,493,519
489,493,491,494,598
491,493,490,493,639
489,495,491,494,633
488,494,491,494,606
489,494,493,494,512
490,495,492,494,424
491,494,491,492,387
490,494,491,495,367
491,495,489,493,372
492,494,490,493,382
491,494,489,493,424
489,494,491,493,485
490,493,489,492,552
490,494,492,495,623
488,494,491,493,639
490,496,490,491,628
490,496,492,492,575
491,494,491,494,466
490,496,490,493,405
489,495,491,493,370
491,493,489,493,366
489,493,489,494,375
488,493,493,492,400
492,494,492,493,450
489,495,490,494,512
489,494,489,492,590
490,495,490,491,635
491,493,489,493,633
489,496,491,493,615
492,494,490,492,524
490,496,492,494,433
490,495,492,494,391
489,495,492,494,368
489,496,490,494,371
489,496,491,492,382
489,493,491,495,421
490,494,489,492,479
489,494,489,493,541
489,493,489,493,617
490,493,490,492,640
491,495,491,494,629
488,494,490,493,583
489,496,492,494,479
490,495,491,493,411
490,496,491,492,376
489,493,490,494,368
491,494,489,493,376
489,495,490,494,391
490,493,490,494,444
489,494,490,492,504
489,494,489,493,579
491,494,491,493,634
489,493,491,494,638
490,495,489,492,624
491,496,489,492,538
491,496,490,494,441
490,495,491,493,395
491,493,492,492,370
490,494,492,495,370
489,495,490,494,380
490,495,491,493,411
489,494,493,493,470
489,493,491,493,533
490,495,489,494,610
488,493,489,494,639
490,493,490,494,629
489,494,491,495,589
490,494,490,493,493
491,494,490,494,415
491,495,491,492,380
489,494,494,492,368
490,496,489,492,374
491,495,489,492,386
489,494,492,492,437
491,494,492,493,498
489,494,490,494,566
489,493,489,494,629
489,494,491,494,637
490,493,489,494,624
490,495,492,492,549
491,496,491,494,450
491,496,488,493,400
491,495,488,492,369
492,494,488,494,367
490,493,492,492,380
491,493,492,494,404
491,495,490,493,463
489,494,490,493,524
490,494,491,492,604
490,496,491,493,637
489,494,491,492,633
491,494,492,494,600
489,494,490,494,503
491,495,491,493,419
490,494,491,494,381
489,496,490,492,368
489,494,491,493,371
491,493,489,492,386
490,496,490,492,431
490,495,490,492,490
490,495,490,494,558
489,494,489,492,625
490,495,490,492,638
489,493,493,495,627
490,494,492,495,564
490,496,492,494,458
491,496,492,493,404
491,494,491,492,371
491,497,490,495,368
489,494,489,494,376
491,493,489,492,399
491,493,490,493,455
490,494,490,492,518
489,493,490,494,597
491,495,489,494,638
490,495,491,492,634
491,495,490,492,613
491,497,491,495,515
490,493,491,492,426
491,495,490,493,387
491,494,489,493,367
490,493,490,494,370
489,494,490,494,381
491,495,489,493,424
489,494,491,492,483
490,494,491,492,549
490,494,489,492,622
491,494,489,492,637
491,493,490,493,627
491,495,494,493,578
491,495,490,494,470
491,496,491,494,407
490,494,491,494,371
490,494,492,493,367
490,495,492,493,375
490,494,490,491,397
491,494,491,494,448
490,494,490,493,511
491,494,489,493,583
491,493,489,493,633
491,495,490,492,635
489,494,491,493,618
492,495,493,494,529
490,495,491,493,434
490,495,490,492,393
491,496,491,495,368
490,494,489,493,370
490,494,491,493,380
491,492,490,494,415
490,493,489,493,475
490,494,490,493,538
489,494,491,493,616
492,494,490,492,640
491,494,490,495,629
492,495,488,492,586
493,495,491,493,483
492,496,492,493,413
491,495,491,492,374
491,493,488,492,368
491,495,492,494,376
490,494,491,492,391
489,495,491,492,441
490,494,489,494,503
490,494,489,492,575
489,493,491,495,633
490,493,489,494,635
490,492,491,494,622
491,493,490,495,543
491,495,490,494,443
490,494,489,493,396
491,494,491,493,369
489,494,490,492,371
491,495,491,492,378
491,494,490,492,409
489,494,490,493,467
490,493,488,493,529
490,495,489,495,608
489,492,491,494,639
490,494,493,493,632
490,495,490,494,594
492,497,492,493,496
491,495,492,493,418
491,495,490,493,381
493,495,489,492,366
492,494,491,494,375
491,495,490,494,384
489,493,489,492,436
491,493,490,493,497
489,493,489,493,565
490,495,491,492,630
490,493,491,494,637
491,494,489,493,626
490,495,493,494,555
491,495,491,493,453
491,494,490,493,400
490,494,491,494,367
489,493,489,493,369
492,494,492,492,378
490,493,490,495,407
491,495,489,492,462
490,493,490,492,522
491,494,489,492,602
489,494,492,494,637
490,493,491,492,634
492,494,492,495,604
490,494,493,494,508
491,495,491,493,422
490,494,490,494,385
491,496,492,492,366
490,494,493,494,373
492,493,491,493,384
492,494,488,493,427
490,494,489,493,489
490,494,489,494,555
489,494,487,492,625
489,495,489,493,641
491,495,489,492,629
491,496,491,492,570
492,496,494,493,463
491,495,491,492,404
491,494,492,493,370
489,493,490,494,367
490,493,490,494,375
490,494,491,495,398
489,494,490,493,454
490,494,490,492,514
490,493,490,492,595
491,495,489,492,636
492,494,489,493,633
490,493,490,492,616
490,496,490,495,518
491,496,492,493,430
490,494,491,494,389
490,494,492,495,368
491,495,492,492,372
490,493,491,495,383
492,495,490,494,420
490,493,491,492,481
490,493,489,493,546
490,492,489,493,618
490,494,492,494,638
490,494,490,493,631
490,495,492,494,579
492,494,491,494,475
490,494,491,493,411
491,494,491,491,374
491,497,490,494,367
490,494,489,493,374
491,494,491,492,395
490,494,491,494,447
490,493,489,492,507
490,493,490,494,581
491,493,490,493,636
491,494,490,494,633
489,494,489,493,622
493,495,490,493,533
492,495,490,493,437
492,494,492,493,394
491,493,491,495,367
492,495,490,492,369
490,494,492,494,380
490,494,491,493,414
490,495,490,493,471
490,493,491,493,535
490,492,489,491,614
492,494,491,493,639
491,492,490,494,629
490,492,490,494,586
491,494,491,494,487
491,494,491,493,414
490,494,492,493,376
492,493,493,492,368
491,495,489,492,375
492,495,489,492,390
492,495,492,493,439
490,493,489,492,501
490,494,491,492,569
489,492,490,495,631
490,493,491,493,637
490,495,492,493,622
491,493,490,493,549
492,496,491,494,446
491,495,491,493,398
492,494,490,493,370
493,493,489,493,368
491,493,490,494,377
492,495,491,492,407
489,493,491,492,466
491,493,491,494,527
490,493,491,492,608
490,495,490,492,639
491,495,491,495,632
489,494,489,492,597
489,495,492,493,498
492,495,491,493,417
492,494,490,493,380
491,493,490,495,367
492,494,490,493,374
490,494,489,493,383
492,495,491,493,435
490,494,489,493,494
491,494,489,492,560
492,493,490,495,627
491,492,490,494,638
491,494,492,494,625
490,492,491,496,560
491,494,491,494,456
492,495,492,493,402
491,495,491,494,369
492,495,490,492,370
490,494,491,495,378
492,494,487,492,403
493,492,487,492,458
492,494,489,493,520
491,494,493,494,598
490,493,493,492,638
491,493,493,494,634
490,494,493,493,609
491,495,494,492,512
491,494,493,493,423
491,495,490,492,385
490,493,491,492,367
492,493,490,493,372
492,492,490,493,381
491,491,490,492,427
491,494,490,494,486
490,495,490,492,551
490,493,492,493,624
490,494,491,492,639
492,495,490,492,628
493,495,491,492,572
490,494,492,493,467
492,495,491,493,406
491,494,491,495,369
491,493,491,495,367
490,495,493,494,377
490,493,490,493,397
490,494,491,491,450
490,493,491,492,513
491,493,490,492,589
492,494,490,492,635
492,493,491,492,636
491,494,491,494,615
491,496,490,492,524
490,494,492,494,432
490,493,491,493,392
491,494,493,493,369
491,492,491,494,372
491,494,489,494,380
490,493,488,492,419
492,493,489,492,478
491,493,488,493,542
491,492,490,494,616
490,494,489,492,641
490,494,490,493,628
491,492,490,493,584
491,495,495,493,480
492,494,492,492,412
492,495,490,494,373
489,493,489,493,366
492,495,491,492,375
491,493,491,496,392
489,492,491,494,445
490,493,492,492,504
492,492,490,493,580
490,494,490,494,633
490,493,489,492,636
492,493,489,493,623
493,494,489,493,537
492,493,492,494,440
491,494,490,493,394
492,495,491,491,366
489,493,493,493,371
490,494,492,492,381
492,495,492,492,412
491,494,491,494,469
491,492,490,492,533
492,493,493,493,611
492,492,491,493,638
491,492,491,494,630
490,494,492,495,590
493,496,491,493,491
491,494,491,493,415
492,494,492,492,380
491,496,492,492,368
493,494,490,492,374
493,494,493,493,387
489,493,489,493,437
490,494,491,492,499
490,493,492,494,567
489,492,490,494,630
490,494,489,492,635
491,492,488,492,626
491,495,490,495,550
491,496,491,493,449
491,494,494,492,399
491,493,491,492,369
493,493,491,493,367
490,494,492,492,378
490,492,491,491,407
492,494,491,494,463
490,493,491,493,524
490,493,491,492,605
490,494,490,494,637
490,494,490,492,634
489,493,492,494,601
493,494,490,493,504
491,495,491,493,420
492,493,490,492,383
491,494,494,493,366
491,493,491,492,373
492,493,492,494,384
489,491,491,494,431
490,493,491,493,490
490,493,491,493,557
490,494,491,491,625
490,492,491,492,638
491,493,490,492,627
492,493,490,492,564
493,493,492,492,460
492,494,491,493,404
491,493,491,494,368
491,496,490,491,367
489,493,492,493,377
490,491,493,492,401
490,496,491,492,455
491,493,490,492,516
491,493,491,493,594
489,494,490,493,637
492,493,490,493,633
491,492,490,494,610
492,496,492,493,517
492,493,490,493,427
492,495,490,493,387
490,494,492,495,368
490,494,491,492,373
491,495,492,493,380
490,491,492,492,425
491,493,490,493,482
490,494,491,493,549
492,492,489,492,622
492,492,489,493,637
491,493,491,494,630
492,494,492,495,575
490,494,491,492,471
491,494,492,494,408
490,493,492,493,372
490,493,492,491,367
491,492,492,494,374
491,494,491,491,394
490,494,492,492,448
491,493,490,493,510
491,492,489,493,582
491,492,489,492,635
491,494,490,494,635
490,493,487,493,618
490,494,492,493,528
491,494,494,493,434
491,494,494,492,393
490,493,491,495,371
491,494,490,494,370
491,494,490,493,379
491,493,489,494,415
491,492,489,492,475
491,493,490,492,537
490,494,489,492,616
490,492,492,494,638
491,492,490,492,631
491,495,492,492,586
491,495,491,492,483
491,494,493,493,411
491,492,489,492,376
492,492,492,493,366
491,493,490,493,373
490,492,492,494,389
490,492,491,494,440
491,494,491,493,503
490,493,491,492,574
492,493,492,493,633
490,494,491,492,637
491,494,490,492,623
493,496,493,495,541
491,494,492,493,443
491,494,492,493,394
491,492,491,493,367
492,493,492,494,369
490,493,492,494,378
490,493,494,492,409
491,492,494,493,468
490,494,488,492,528
490,494,491,492,612
491,495,490,492,639
492,494,490,493,631
490,494,494,494,593
492,494,491,493,495
491,496,492,493,416
490,493,491,494,380
490,493,491,494,367
490,494,490,493,372
490,495,491,492,389
490,492,492,494,436
491,494,491,493,498
491,493,490,493,563
492,492,490,493,631
491,495,491,494,637
490,493,490,493,625
493,494,494,494,556
491,495,492,494,452
491,493,492,493,401
492,496,491,492,369
490,493,493,494,368
492,494,490,492,378
491,495,490,494,402
490,492,491,494,461
491,493,491,494,520
490,493,490,492,602
492,493,493,492,640
491,492,491,494,634
492,495,491,492,607
493,495,490,493,508
492,495,491,493,420
490,493,492,494,384
491,492,491,492,368
491,493,492,494,371
489,493,494,494,384
489,493,493,493,428
490,494,491,493,488
491,494,491,492,554
490,493,491,491,625
492,493,490,494,638
491,492,491,495,627
491,492,489,495,567
491,494,491,493,465
491,494,491,494,404
493,494,490,493,370
490,494,495,492,369
492,495,493,492,377
493,495,490,491,398
489,493,491,493,454
491,493,491,493,514
491,493,491,493,591
490,491,491,494,636
490,493,492,493,635
490,493,491,493,615
490,494,493,493,519
491,494,491,492,429
490,494,491,492,390
492,494,490,491,370
492,493,490,492,372
490,494,492,494,381
491,495,491,491,422
490,493,491,493,481
490,492,492,494,547
490,493,491,493,620
490,495,490,492,637
490,493,493,492,631
492,493,494,495,578
490,494,493,493,474
492,494,492,493,409
491,493,491,494,371
491,496,491,492,368
490,494,492,494,374
492,493,491,492,395
491,495,491,492,448
491,494,491,492,507
492,493,490,494,580
489,492,490,493,634
491,494,491,492,636
490,493,492,494,620
489,493,492,495,534
491,493,492,493,437
492,494,491,492,394
491,495,493,493,367
491,492,491,491,370
492,494,491,492,380
492,493,490,493,414
492,493,491,492,472
491,493,492,492,536
490,492,491,495,615
492,494,491,493,640
490,495,492,493,632
491,495,491,492,590
492,496,491,494,485
492,494,491,493,414
492,494,495,493,376
493,493,492,494,364
491,492,492,495,373
490,493,492,495,388
493,494,490,492,440
490,492,491,493,501
491,493,492,492,572
490,495,492,492,633
491,494,490,492,637
492,493,493,493,623
490,493,490,494,545
491,494,492,492,444
491,493,491,493,396
490,493,493,495,368
489,493,494,493,370
490,494,492,493,376
490,492,492,492,409
491,493,491,493,463
491,493,491,492,527
491,492,490,493,607
492,492,490,494,638
491,495,492,492,632
490,493,492,492,598
493,494,492,493,498
491,494,492,493,419
491,494,491,492,383
492,496,493,495,365
490,494,492,493,373
491,494,492,492,383
491,492,491,494,432
490,493,490,493,494
490,492,490,493,561
492,493,488,494,628
490,494,489,494,636
491,495,490,491,627
492,495,494,491,561
493,494,493,493,456
491,494,491,492,401
490,494,494,492,368
492,492,491,491,368
492,494,492,494,375
490,493,493,494,402
489,493,492,493,457
491,494,491,493,517
491,494,492,492,601
490,492,491,494,637
492,493,490,493,632
491,492,491,494,608
491,492,491,494,513
492,495,492,493,423
491,493,491,492,387
493,494,494,494,367
492,495,493,492,374
492,495,491,492,383
492,492,492,493,424
491,493,491,492,486
491,493,492,493,550
491,491,490,494,621
490,493,492,494,639
490,493,492,493,629
490,494,490,493,572
492,495,493,493,468
492,494,490,493,405
491,494,491,492,372
492,494,490,493,367
492,492,491,493,376
491,494,493,494,396
490,492,491,492,452
491,493,491,493,511
490,493,492,494,589
490,493,492,493,637
491,492,491,494,632
492,494,490,492,615
491,493,494,493,523
493,494,492,493,431
492,493,491,493,391
491,493,491,492,370
492,495,493,494,371
490,492,490,494,380
491,495,493,492,418
490,494,491,492,478
490,493,491,492,543
491,493,489,492,617
490,494,492,493,638
491,492,489,491,631
492,493,490,495,580
490,493,490,494,479
492,494,490,494,411
491,492,490,493,373
490,494,492,492,366
490,493,492,491,375
492,493,493,492,393
492,492,492,493,444
491,493,491,492,504
490,494,492,494,577
490,494,491,492,634
490,493,492,493,636
491,494,493,492,623
491,495,492,493,538
492,494,493,493,439
491,494,492,494,395
491,494,490,492,366
493,493,491,494,368
490,492,492,495,378
491,493,492,495,410
490,493,491,492,470
490,493,492,494,533
491,492,490,492,614
491,495,491,492,640
491,493,490,493,632
492,492,490,494,591
490,494,492,493,491
493,493,492,493,415
491,493,492,494,377
490,492,492,494,367
490,493,492,493,375
491,492,491,493,388
492,494,491,494,437
491,492,491,492,498
492,493,490,493,567
492,492,490,493,631
491,492,490,492,637
492,493,491,494,624
492,494,490,493,551
492,495,494,494,448
492,494,494,493,400
491,494,492,492,370
492,494,491,494,367
490,494,491,493,377
492,494,493,492,406
491,492,491,493,462
491,492,491,494,525
490,492,490,494,604
493,494,489,493,639
491,494,493,494,632
491,492,494,492,602
493,495,493,493,504
492,494,492,493,421
492,493,492,493,382
490,493,491,492,366
491,494,492,492,369
490,492,492,493,383
490,492,493,494,430
490,493,492,493,491
491,493,492,492,558
490,493,491,494,625
491,493,489,492,637
492,493,490,494,626
492,493,491,493,565
493,493,492,493,460
492,494,493,493,402
491,493,492,492,371
494,495,493,493,367
491,495,493,493,377
491,494,491,492,403
492,494,491,493,453
490,493,491,492,516
490,493,492,492,594
491,492,491,494,635
491,492,493,494,634
490,493,492,493,613
493,494,491,493,515
491,493,491,493,427
492,494,491,492,386
492,495,492,492,369
492,494,491,492,371
493,493,492,492,381
492,491,490,494,425
492,494,493,493,483
491,492,491,493,547
490,492,493,494,620
490,493,491,493,639
492,494,491,494,627
489,494,491,492,578
491,493,492,494,469
492,493,491,493,407
491,492,490,494,370
492,492,492,493,367
492,494,492,494,375
490,493,491,492,396
493,494,492,491,449
490,493,492,492,510
490,493,492,492,586
492,492,492,494,635
491,493,490,494,636
491,494,492,494,616
491,492,492,495,527
490,493,491,493,435
491,492,492,492,392
492,493,493,493,368
491,491,489,494,370
492,493,489,492,380
492,494,488,492,415
492,492,492,492,476
491,492,494,492,538
491,494,492,494,613
490,491,490,492,640
492,493,492,493,629
491,494,495,493,586
491,495,494,493,483
491,494,492,493,410
491,494,491,492,374
490,492,493,493,365
491,493,491,493,373
491,492,492,494,389
490,491,490,492,442
492,494,492,492,502
490,492,490,492,574
490,493,492,493,633
491,494,492,492,637
492,494,491,492,624
490,493,493,494,541
493,493,492,494,443
491,493,490,493,395
491,492,491,494,366
490,492,492,494,369
490,492,492,494,380
490,492,490,492,407
491,494,493,493,468
491,492,491,492,530
491,493,491,491,610
492,493,491,493,639
492,492,492,492,632
492,494,492,495,592
491,495,492,493,496
492,493,492,493,415
491,492,493,493,380
491,494,494,493,367
491,492,492,494,373
492,493,491,494,385
489,492,490,492,434
491,493,491,492,495
491,492,491,493,563
491,491,491,492,631
492,493,492,493,638
492,491,490,493,627
491,494,493,492,556
491,494,495,493,452
491,493,492,492,401
492,494,489,494,367
490,493,490,492,367
491,494,492,491,379
491,492,490,494,401
490,492,491,494,460
491,493,491,494,521
492,492,490,492,603
490,493,493,494,638
490,492,491,492,633
492,493,490,492,606
493,494,491,493,508
493,493,492,492,421
490,493,492,494,384
492,495,492,492,365
490,494,492,493,371
490,494,494,493,383
490,494,493,492,426
491,492,490,492,487
491,493,491,494,554
490,492,489,492,624
493,492,489,493,636
491,491,491,494,626
490,491,492,494,569
493,494,492,492,462
491,493,492,492,405
492,492,492,492,370
490,494,492,491,367
492,494,491,492,377
492,493,492,495,397
490,493,491,493,453
490,492,491,492,514
491,492,490,493,589
490,491,489,494,636
489,493,491,493,634
493,492,489,492,615
491,495,492,494,520
492,494,495,493,429
491,494,492,492,389
492,494,491,492,370
493,494,492,492,371
491,492,492,494,382
492,495,491,494,419
490,492,491,493,479
490,492,492,493,545
490,492,493,493,619
490,494,491,493,637
490,493,491,492,630
490,493,492,495,579
494,493,491,492,474
492,493,492,492,408
491,492,491,493,374
491,495,492,494,365
489,492,490,492,375
492,493,492,493,394
490,494,492,492,446
491,493,491,493,507
491,492,491,493,579
491,493,490,492,635
491,493,492,493,634
490,492,491,494,620
491,492,492,496,533
491,493,492,493,438
492,493,492,493,393
491,492,490,494,367
492,494,492,491,370
492,494,491,492,379
492,493,490,492,412
492,492,490,492,472
490,493,490,492,534
490,491,488,492,616
491,492,489,494,639
490,494,493,493,632
490,494,497,493,590
491,492,492,493,485
491,493,493,492,412
491,493,492,491,376
493,493,490,492,364
491,491,491,493,373
490,491,491,491,390
492,495,492,493,437
490,493,491,494,501
490,493,492,494,570
490,493,493,492,632
492,494,491,492,637
490,492,492,493,623
493,493,491,494,547
491,494,491,492,445
491,493,491,493,395
490,493,493,494,366
490,493,493,494,369
490,493,490,492,377
490,494,493,492,405
490,491,491,492,465
491,492,491,492,526
491,493,491,492,607
492,493,491,492,639
491,494,491,493,630
490,494,491,492,599
490,492,492,494,499
491,493,491,493,417
490,493,491,493,382
492,492,489,492,366
491,494,494,494,371
490,492,490,491,385
493,493,490,492,431
492,493,492,493,494
491,492,491,491,561
491,491,491,494,625
492,492,490,493,639
491,494,492,492,627
491,495,493,492,561
492,494,492,493,457
492,493,492,493,400
491,493,491,492,368
494,493,493,492,368
491,492,492,494,374
490,492,492,494,399
489,492,492,493,456
491,493,491,492,517
490,492,493,493,599
491,491,492,491,639
492,493,491,491,633
491,493,491,492,610
493,494,494,493,512
491,494,492,493,422
490,493,492,492,384
490,492,491,494,366
490,493,493,493,371
489,493,492,493,381
492,491,490,492,426
490,494,492,493,486
491,493,491,492,552
492,492,489,491,623
492,492,491,493,637
491,492,492,494,628
493,494,492,491,571
490,493,493,493,468
492,493,493,492,406
490,493,493,492,370
490,493,493,492,367
492,495,491,494,374
490,493,490,491,396
489,493,493,492,450
491,492,491,492,510
490,492,490,493,586
489,491,490,495,636
492,492,488,493,635
491,494,489,494,616
491,495,493,491,525
491,494,494,492,430
491,494,492,492,391
492,493,493,494,367
492,492,491,493,371
491,494,492,494,380
489,491,491,495,416
490,492,492,493,476
491,492,492,493,542
490,493,490,493,616
491,493,491,491,640
490,492,492,494,630
492,492,490,492,582
493,494,492,493,480
492,493,491,493,411
491,493,491,494,372
490,492,491,492,367
492,494,492,493,375
491,494,492,492,392
490,494,491,492,443
491,492,491,492,503
491,493,490,492,577
489,492,493,493,632
491,492,491,493,634
490,492,492,494,621
490,492,492,492,539
492,493,492,493,439
491,493,491,492,394
491,494,492,492,368
491,494,491,491,369
491,494,491,492,378
492,493,490,490,411
490,493,491,492,469
490,492,492,493,532
491,492,492,494,610
490,491,493,494,638
490,493,494,493,632
491,491,490,493,589
491,495,492,492,490
491,492,492,493,415
492,493,491,493,377
493,493,490,493,365
491,492,491,492,375
492,494,490,494,385
490,494,488,492,437
490,492,488,493,497
490,492,492,492,566
489,492,495,492,632
490,492,492,493,636
492,492,493,493,625
490,493,492,493,551
492,493,492,492,449
491,493,491,493,397
490,492,492,495,368
490,493,490,492,368
490,494,493,492,376
491,491,491,492,406
491,493,491,491,463
490,493,491,492,523
491,492,490,493,604
490,493,490,493,636
490,494,492,492,634
490,492,491,494,600
490,493,494,494,504
491,493,492,493,420
492,493,491,493,383
492,495,493,495,365
490,493,491,493,373
493,493,491,492,383
493,492,491,492,429
491,492,492,493,490
491,492,491,493,555
491,493,490,492,627
490,493,492,493,639
491,494,492,492,627
491,495,494,492,568
492,494,492,493,459
492,493,491,492,402
491,493,493,493,369
493,492,490,492,365
491,491,491,493,374
490,492,492,494,398
493,493,491,492,454
490,492,492,492,516
491,491,492,491,596
491,494,492,491,637
492,493,491,492,634
492,492,493,493,612
491,493,491,493,515
490,494,493,493,426
492,492,491,494,386
491,492,492,495,366
490,493,494,493,370
492,492,491,492,382
491,494,491,494,421
490,493,491,492,483
491,493,491,492,548
492,492,490,492,620
493,491,491,494,638
492,494,491,491,628
490,493,492,491,578
493,493,493,493,471
492,493,492,492,407
490,494,493,492,372
490,494,491,493,365
490,494,491,491,375
489,492,492,494,395
493,491,490,492,447
491,492,492,493,508
491,492,492,494,586
491,494,491,494,634
490,493,491,493,633
491,494,492,492,621
491,495,493,491,529
492,494,492,493,434
491,492,492,493,392
492,493,490,492,367
492,494,493,494,368
490,492,492,494,379
490,492,492,494,413
489,492,492,493,474
490,492,490,492,537
491,493,492,492,616
491,491,492,494,641
492,493,490,492,630
492,492,490,492,586
492,492,491,493,484
490,493,491,492,410
491,493,492,492,376
492,492,491,494,366
490,494,492,492,374
490,494,492,492,390
490,491,491,493,439
491,493,492,492,501
490,493,493,493,574
492,492,489,492,631
491,492,491,494,635
489,492,492,492,625
492,495,492,494,542
491,494,492,492,443
491,493,493,492,396
491,494,492,491,368
491,495,492,492,368
492,494,492,493,378
491,494,493,492,405
491,492,492,493,467
490,492,492,492,528
490,492,491,493,607
489,492,493,493,639
490,492,490,493,630
491,494,492,492,592
490,492,492,492,496
491,494,491,492,416
492,493,491,491,379
492,494,491,494,367
491,494,490,493,370
490,494,492,492,387
489,491,492,493,434
490,493,492,492,494
491,492,492,492,563
490,491,490,493,630
492,494,490,493,636
490,493,490,492,626
492,493,490,493,556
493,494,491,493,453
491,493,493,494,400
491,494,493,492,371
490,493,493,493,368
491,492,490,492,378
491,494,491,491,404
491,493,489,492,459
490,492,491,493,519
490,492,492,491,600
492,492,494,492,638
490,492,492,493,632
490,492,493,494,604
490,492,493,494,509
491,493,491,492,421
490,493,491,492,384
491,492,491,492,367
491,494,489,491,373
492,494,494,492,382
492,493,495,493,427
490,492,491,492,486
490,493,493,492,553
490,491,491,495,623
491,493,492,493,638
490,494,493,493,629
491,494,494,493,569
492,493,493,493,464
491,492,492,493,404
492,493,491,492,370
493,494,491,493,365
492,492,492,493,374
491,494,492,492,396
490,492,492,492,454
490,492,492,493,514
490,492,491,493,591
490,492,492,492,637
490,494,491,493,633
490,494,490,491,616
490,492,493,494,522
492,494,491,492,429
492,493,491,492,388
491,493,491,492,368
491,495,491,493,370
490,493,490,491,381
492,493,493,493,420
490,493,492,492,479
491,493,492,492,544
491,493,491,492,619
490,490,492,493,638
492,492,491,492,630
491,494,490,493,578
493,492,491,493,474
492,493,492,493,408
490,492,491,492,374
493,492,492,493,367
491,492,492,494,376
492,494,492,491,395
492,494,490,491,444
491,493,491,493,506
490,492,492,492,580
492,492,493,494,634
491,491,492,494,634
490,492,492,494,620
490,492,493,494,533
490,493,492,492,438
490,492,491,492,391
491,491,491,492,368
491,493,491,491,370
492,494,490,492,378
492,494,490,492,411
491,492,492,493,471
491,493,491,492,533
491,493,492,491,612
490,491,491,494,639
491,494,493,492,632
491,494,493,493,588
492,492,492,492,488
492,494,492,493,412
491,493,491,492,377
494,493,490,493,365
492,492,492,494,372
491,494,492,492,391
490,491,491,493,439
491,493,492,492,500
490,492,492,493,570
490,493,493,492,631
491,494,492,494,635
490,491,491,491,625
493,492,493,494,546
492,493,492,492,447
491,493,491,492,397
492,492,491,493,366
491,492,491,494,370
492,493,490,493,377
490,493,489,492,405
492,493,490,492,465
491,492,491,492,526
490,493,494,491,606
491,491,493,493,638
492,492,490,492,632
491,494,493,494,596
491,493,492,494,500
492,494,492,493,417
491,494,493,493,383
492,494,494,494,367
491,493,491,493,370
491,494,492,492,386
492,492,489,492,431
491,491,491,491,491
490,491,492,492,559
491,490,489,492,627
491,493,492,493,637
490,492,492,494,626
490,492,493,494,561
491,493,492,493,456
491,492,490,492,401
491,494,493,491,366
490,491,492,491,368
492,492,490,492,376
492,492,490,491,400
491,491,491,492,458
490,492,491,492,517
490,493,491,491,598
489,492,493,493,638
490,493,492,492,634
491,494,492,491,610
490,491,492,494,513
492,494,492,493,423
491,493,491,493,385
492,492,491,492,366
492,491,492,494,369
490,492,492,492,383
492,492,492,493,424
491,492,491,491,484
490,492,492,492,551
491,493,491,491,623
491,494,491,491,637
492,493,491,493,629
490,493,490,492,572
492,494,493,492,467
491,493,491,492,405
491,493,492,493,368
490,492,491,493,366
491,492,491,492,376
491,494,493,492,394
490,491,492,492,452
491,493,491,492,511
491,493,489,491,586
492,493,492,493,636
491,492,490,493,633
493,494,490,491,616
490,492,492,494,525
491,493,492,492,432
491,493,496,492,390
491,492,492,492,368
492,494,493,493,369
490,494,491,492,380
493,492,490,492,416
492,491,491,491,476
491,491,492,492,539
491,494,490,491,616
490,492,492,491,639
491,492,493,493,632
491,494,493,491,585
491,495,492,492,480
491,494,492,493,409
490,493,490,492,373
489,492,493,492,364
490,491,491,493,373
490,491,491,493,389
489,491,492,493,444
491,493,491,492,504
491,492,491,492,575
490,493,493,492,636
492,494,491,491,637
492,493,490,492,622
493,493,494,494,540
492,493,492,492,440
491,494,492,494,393
490,492,492,495,367
490,492,493,493,369
491,493,492,492,379
491,494,489,493,408
490,493,490,492,469
490,492,492,493,533
491,492,491,491,611
492,492,490,493,638
491,492,491,494,633
491,493,491,494,590
490,492,491,492,492
491,493,492,493,415
491,493,492,493,379
491,494,493,492,366
491,491,492,494,372
492,493,490,491,384
489,492,493,492,436
491,492,491,493,498
491,492,491,493,564
490,492,491,492,631
492,493,492,493,637
490,491,491,493,623
490,494,493,492,553
491,494,492,492,450
492,494,491,492,398
492,494,491,492,367
489,493,493,493,367
491,492,492,492,377
491,492,491,495,403
490,492,491,493,461
491,492,490,492,521
490,491,490,492,603
490,493,492,491,637
490,492,493,492,634
492,493,489,491,604
493,493,490,492,504
492,494,492,492,420
490,493,491,493,382
491,495,492,491,366
489,493,493,493,373
490,493,492,493,384
490,493,493,491,429
490,492,491,493,491
491,493,491,493,555
490,492,490,492,626
491,492,490,493,637
491,492,491,493,626
490,492,492,494,566
491,494,492,493,462
491,493,492,493,402
492,493,491,492,369
490,493,493,492,368
492,494,491,492,376
492,494,491,495,398
489,492,490,492,455
492,492,491,492,514
490,491,491,493,593
490,491,491,493,636
490,493,492,493,633
492,492,491,493,615
490,494,493,493,516
492,493,493,492,427
491,493,492,492,389
492,493,490,491,368
492,492,492,492,371
490,491,491,493,380
491,494,491,491,419
490,492,491,493,481
491,492,492,493,546
490,493,492,492,619
490,494,492,493,638
489,492,490,491,629
493,493,492,494,575
493,493,491,493,472
492,493,491,492,407
492,493,491,493,369
491,495,492,492,366
490,493,493,492,374
493,492,493,493,396
490,493,492,492,448
490,492,492,492,508
490,493,492,494,581
489,493,490,491,635
490,493,492,492,634
491,492,491,494,619
492,492,491,494,529
492,493,491,492,435
491,493,492,494,392
490,493,490,491,367
492,493,493,491,371
491,494,492,492,381
492,494,491,491,415
492,493,491,491,473
491,492,492,493,537
491,491,490,491,615
491,494,491,494,638
490,492,491,494,631
491,494,491,494,585
491,494,489,493,484
492,493,493,492,412
491,493,495,494,376
492,494,493,493,366
493,493,491,492,373
492,492,492,492,389
490,494,492,493,440
490,492,492,492,500
491,492,492,494,571
489,491,493,494,633
490,493,492,492,636
491,491,492,493,622
491,495,492,491,542
491,493,492,492,442
491,493,491,492,397
491,492,490,492,367
493,491,491,493,366
490,492,492,491,379
491,492,492,494,406
492,492,491,492,466
490,493,492,493,529
491,493,492,491,609
492,495,491,491,638
489,493,493,493,632
492,491,492,492,595
491,492,491,494,496
491,492,491,493,416
491,492,492,494,379
490,494,491,492,366
491,493,493,492,371
492,492,492,492,387
491,494,491,491,434
491,492,491,492,494
491,493,490,493,561
489,492,490,493,628
491,493,491,491,637
489,492,492,494,625
489,491,493,495,557
491,493,492,493,454
491,493,491,493,400
492,492,491,492,370
490,494,491,493,366
490,493,491,492,377
492,492,490,491,403
492,492,491,492,458
492,493,492,492,521
490,491,491,494,602
491,494,491,493,637
490,493,493,493,634
491,494,492,492,607
491,495,493,494,507
491,493,493,493,423
491,493,492,493,383
493,493,491,492,366
491,492,492,494,371
491,492,492,493,381
492,494,491,491,427
490,492,491,492,487
491,492,492,492,553
490,493,492,492,626
490,493,491,492,638
492,493,490,492,627
492,493,494,494,571
493,493,491,492,463
491,493,492,492,404
490,492,492,494,369
490,491,491,494,367
490,493,492,492,375
491,491,492,493,400
490,491,489,493,451
490,492,490,492,514
491,492,489,492,591
492,493,491,492,635
490,494,495,492,633
491,491,493,491,618
492,495,494,494,521
491,493,493,493,430
491,493,492,492,391
491,494,490,493,365
491,494,492,492,372
491,493,492,493,380
492,493,490,492,419
490,491,491,492,480
491,492,490,492,542
490,491,490,491,620
491,492,493,494,640
490,492,490,493,628
491,494,494,492,583
491,494,492,493,476
491,494,491,492,409
491,492,492,494,374
493,493,489,492,366
491,494,491,494,372
490,492,492,494,391
490,492,491,493,444
491,492,491,492,506
491,493,492,493,580
491,491,490,493,634
492,494,491,492,636
492,492,490,492,622
493,493,490,492,534
491,493,493,493,438
491,492,492,492,394
492,493,492,494,366
491,493,493,494,370
491,493,492,493,380
491,494,493,491,411
490,492,491,493,472
491,492,491,493,534
490,492,490,492,613
492,492,491,493,639
491,491,490,494,630
491,492,491,492,591
492,492,491,494,489
492,493,490,491,413
490,493,492,493,378
490,493,495,492,367
491,494,491,491,371
490,492,493,492,388
493,492,493,493,438
490,492,491,493,499
491,492,491,493,567
490,491,490,494,629
490,494,491,493,636
490,494,493,492,624
492,492,490,492,549
492,494,493,493,448
491,494,493,492,399
492,493,490,492,368
493,493,494,492,369
491,492,491,494,377
492,495,492,491,403
490,492,492,494,463
490,492,491,493,525
491,492,493,492,604
491,492,491,492,640
491,493,491,493,631
489,493,490,492,599
493,493,491,493,501
492,493,492,492,418
492,494,492,492,382
490,491,491,495,367
493,493,490,492,371
490,493,493,492,384
489,494,493,492,431
491,493,492,492,490
491,492,491,492,559
491,492,492,494,626
492,492,491,493,635
490,491,491,494,625
490,491,491,494,562
491,493,492,493,458
491,493,492,493,403
491,494,491,493,367
492,495,492,492,368
492,494,491,492,377
492,493,490,491,400
493,493,492,493,456
490,492,491,492,517
490,493,491,494,595
490,491,491,494,637
490,493,491,493,634
490,493,491,493,609
492,492,492,493,515
491,492,491,492,424
491,494,495,492,387
492,494,491,491,368
492,491,490,493,370
491,494,492,491,381
490,491,491,491,425
492,493,491,493,484
491,492,492,493,550
490,493,492,493,622
490,493,491,491,639
492,493,493,494,627
492,493,490,492,574
491,494,493,492,468
491,493,492,492,406
491,492,492,494,370
490,492,492,492,367
492,493,493,494,376
490,492,490,492,394
490,494,492,491,450
490,493,491,492,512
491,493,490,491,586
489,491,493,494,634
492,491,491,492,635
492,494,491,494,615
490,491,492,495,526
491,492,492,493,434
491,492,491,492,390
492,493,493,493,368
491,491,491,493,371
492,494,490,491,380
492,493,490,492,417
492,492,490,492,476
491,492,491,492,540
491,494,491,494,615
491,493,490,492,638
490,493,493,493,631
490,494,494,492,585
491,495,492,492,480
492,494,492,493,411
491,494,491,494,373
490,492,490,493,364
491,492,491,494,373
491,492,492,494,389
490,491,491,491,443
491,492,491,493,503
491,491,490,492,576
490,494,493,492,634
491,494,491,492,637
492,493,491,492,622
490,493,493,492,540
492,493,492,494,440
491,493,491,492,393
491,493,492,494,366
491,492,492,494,369
490,493,492,493,378
492,493,490,492,411
490,493,492,492,468
491,493,492,492,531
491,493,490,492,612
492,494,491,493,639
492,492,492,492,631
492,492,492,495,591
492,495,492,492,492
491,493,492,493,414
491,493,493,493,380
491,493,493,493,364
491,492,492,492,374
492,494,492,493,385
489,493,490,492,435
491,492,492,492,497
491,492,491,493,565
491,493,491,491,630
490,492,492,494,639
492,492,489,492,626
491,494,494,493,554
492,494,493,493,451
491,493,493,493,400
492,495,492,494,366
490,494,491,493,368
490,493,493,493,375
492,492,491,492,403
490,492,491,493,462
491,492,491,492,523
491,493,490,494,602
489,492,490,492,638
492,493,492,492,634
491,494,493,492,605
491,495,493,492,507
492,493,491,492,418
491,494,492,492,384
491,492,493,491,365
493,493,491,492,371
491,491,491,493,382
491,491,490,491,430
491,493,491,493,489
490,492,490,492,556
490,493,492,492,625
490,494,492,492,639
491,493,491,491,629
492,494,490,491,565
491,493,492,492,461
491,492,492,492,403
491,493,491,493,365
490,491,492,494,367
489,493,493,493,376
489,492,490,491,397
489,493,492,493,454
491,492,491,491,515
490,493,491,491,594
492,493,490,493,636
492,492,490,492,633
491,494,492,494,612
491,495,491,492,519
491,493,492,493,426
491,493,493,493,389
490,494,493,494,368
492,492,491,494,372
491,494,492,494,381
489,492,489,491,421
492,493,491,492,480
490,493,491,492,546
491,491,490,492,619
491,494,491,491,639
490,492,492,494,630
492,492,490,494,578
490,494,493,493,473
491,493,492,492,409
490,493,492,493,369
490,491,492,491,368
492,493,491,493,375
492,492,490,492,393
491,491,490,493,447
490,492,491,493,508
491,493,491,491,581
489,492,492,492,635
491,493,492,491,636
491,494,491,491,621
491,495,492,492,533
492,494,492,493,435
491,494,491,492,391
491,494,493,493,365
491,492,492,494,367
490,492,492,494,379
490,491,493,494,413
490,492,491,492,472
491,492,492,492,538
490,491,490,493,612
491,495,490,492,638
491,492,491,493,630
492,492,490,492,587
491,494,493,492,484
491,493,492,492,413
491,494,491,493,373
490,492,492,493,366
490,493,492,492,374
491,493,491,493,387
490,494,492,491,442
491,492,490,493,501
491,492,490,492,570
491,492,490,493,631
490,491,491,493,637
492,494,490,494,623
489,492,489,492,545
492,493,491,493,444
491,493,490,492,396
491,495,490,492,369
491,494,491,492,368
490,494,495,493,376
491,492,490,493,408
490,493,490,492,464
491,493,490,493,526
