Sensor0,Sensor1,Sensor2,Sensor3,Sensor4

492,492,489,492,634
491,491,491,494,635
490,492,492,5,493
492,494,367,489,493
493,494,366,490,492
491,493,374,492,0
494,492,493,465,491
493,491,493,404,491
493,492,494,367,489
493,493,494,366,490
492,491,493,374,492
495,493,491,395,5
491,493,491,493,404
491,493,492,494,367
489,493,493,494,366
490,492,491,493,374
492,495,493,491,395
490,493,492,493,452
491,493,491,492,513
491,493,491,492,589
491,492,490,493,638
491,493,492,493,635
490,493,491,493,619
490,493,494,494,524
491,494,493,493,430
490,494,493,492,390
491,493,492,495,369
493,494,491,493,369
490,494,492,494,379
491,492,491,493,417
490,493,491,493,476
490,492,492,492,545
491,492,493,493,619
492,492,491,493,642
491,494,492,491,633
492,494,492,492,584
492,495,492,492,478
492,494,492,493,409
490,493,491,493,370
492,495,494,492,366
490,493,492,494,373
490,493,492,493,390
489,494,493,493,443
491,493,491,493,505
490,494,491,494,577
489,492,492,492,636
491,493,491,494,636
492,492,492,494,622
491,492,494,493,539
492,494,495,494,439
491,494,493,492,394
490,494,493,494,367
490,494,494,492,369
491,495,493,492,377
490,492,492,491,411
492,493,492,493,469
490,493,491,493,534
491,492,491,493,611
490,492,492,494,639
489,493,493,494,633
492,492,492,492,592
490,495,493,493,489
491,494,493,493,415
491,494,492,492,378
492,495,491,493,364
492,493,493,492,374
491,492,492,493,384
491,495,492,492,436
490,492,492,493,499
490,492,493,493,567
490,494,494,493,631
490,492,493,492,639
492,494,494,494,625
489,493,492,493,550
492,494,493,492,448
492,493,492,493,396
491,495,494,492,370
490,494,494,493,365
492,493,493,493,377
491,495,494,492,407
491,494,492,492,461
491,493,493,492,524
491,493,494,494,605
490,492,491,493,638
491,494,493,492,633
490,492,494,495,598
490,492,494,494,502
491,493,494,493,420
492,493,492,492,382
491,494,492,493,363
490,494,493,492,373
492,494,492,493,383
493,494,492,492,428
491,494,494,493,491
491,493,493,493,559
491,495,492,494,626
489,493,493,493,640
490,494,494,492,628
491,495,495,494,563
491,493,493,493,459
492,494,493,493,400
492,493,493,493,368
493,493,493,493,365
491,492,493,494,373
490,493,494,494,402
492,493,492,493,454
490,493,492,492,516
490,494,493,491,599
491,494,493,492,638
492,493,492,492,634
492,494,493,492,613
492,492,492,493,516
491,495,494,493,425
491,493,493,493,387
490,493,494,494,366
490,494,494,493,370
491,492,492,492,382
491,493,493,494,421
491,494,493,492,484
491,493,492,492,549
491,492,491,493,620
490,494,493,492,640
490,493,494,492,629
493,493,496,494,578
491,495,495,494,472
491,494,494,492,408
491,495,493,492,371
492,492,494,494,366
492,493,492,493,374
491,495,494,494,394
490,491,492,493,448
490,492,492,492,509
490,492,493,492,586
491,492,494,493,638
491,492,493,494,635
491,494,492,492,622
493,495,492,492,530
492,494,493,493,433
490,494,494,493,391
491,492,492,491,368
491,494,494,494,369
489,493,494,493,380
489,494,494,492,415
490,494,492,493,474
490,493,492,492,541
490,492,493,494,617
492,493,492,493,640
491,492,492,494,630
490,492,492,494,584
490,493,494,493,485
492,494,493,494,411
491,494,493,493,373
490,495,494,492,367
492,495,491,492,373
492,494,491,492,390
489,493,494,494,441
491,492,492,492,502
489,493,492,494,574
489,491,492,495,634
490,493,493,493,638
490,494,492,494,623
492,494,494,492,543
491,493,493,493,441
491,494,492,492,396
492,493,491,491,369
493,493,491,493,368
491,494,494,494,377
490,492,492,491,409
492,493,493,493,466
490,493,493,494,531
490,493,493,492,610
490,494,492,491,640
490,493,493,495,634
492,493,491,494,593
490,494,493,494,495
492,494,493,493,416
491,493,493,494,377
490,492,493,492,366
492,493,494,493,373
492,492,492,493,386
490,495,493,492,435
491,493,492,492,494
491,493,492,492,563
489,492,494,493,631
491,492,492,491,638
491,492,493,495,626
489,492,494,495,555
490,494,493,493,452
491,494,492,492,399
490,493,494,492,366
491,492,493,491,367
492,494,492,493,376
492,493,491,492,402
492,492,492,492,459
491,493,492,493,522
490,491,492,494,601
492,494,491,493,639
490,494,493,493,635
491,494,492,492,605
491,495,493,492,506
491,493,493,493,422
492,494,493,493,383
491,493,492,493,364
491,492,492,494,370
491,493,493,494,380
489,494,491,492,427
490,492,493,493,488
491,493,492,492,556
490,495,493,492,627
491,494,492,492,639
492,493,491,493,628
490,494,492,493,569
492,495,493,493,462
491,494,492,493,403
490,493,493,495,369
490,492,492,494,367
491,494,493,493,374
491,492,492,492,401
491,495,492,494,451
491,493,492,493,516
491,493,491,493,593
492,493,491,493,636
491,494,493,492,637
489,492,493,494,617
493,495,492,494,521
491,494,494,494,430
491,493,492,493,390
492,495,494,494,365
490,493,491,492,371
493,494,493,493,380
491,492,491,494,420
490,492,491,493,480
491,492,491,493,545
492,494,491,492,621
489,493,493,493,640
491,492,493,491,632
492,495,493,493,583
492,494,492,494,476
492,494,492,492,408
491,493,494,493,372
493,492,491,493,366
491,496,492,495,373
489,493,493,495,393
489,493,493,493,445
490,493,492,493,506
491,492,493,492,583
490,492,492,494,634
492,493,491,493,636
491,492,491,493,622
492,493,492,494,533
492,495,494,493,437
491,493,492,492,394
492,494,494,495,367
491,494,494,492,371
491,494,493,492,380
491,495,492,495,411
490,493,492,492,473
491,493,492,493,536
491,492,491,493,613
490,491,493,494,640
490,493,493,494,632
490,494,494,492,590
493,493,494,493,489
491,494,492,492,412
491,494,493,492,378
491,495,491,492,366
492,493,491,492,372
490,494,494,493,387
492,491,491,492,438
491,494,492,493,500
490,493,492,494,570
489,492,493,494,633
491,493,492,493,636
490,495,492,492,627
491,492,493,495,547
493,495,493,493,446
491,494,492,493,397
492,493,492,492,368
490,495,493,494,367
489,493,491,492,378
492,493,494,493,406
490,493,493,493,464
490,493,492,493,528
490,494,492,491,607
490,492,492,494,641
492,493,490,493,633
490,494,491,493,597
493,493,492,493,501
492,494,492,493,417
491,493,492,492,382
492,492,492,495,366
492,492,491,493,372
490,494,492,492,385
490,495,492,491,432
491,494,492,492,492
491,492,492,493,560
492,492,493,493,629
491,492,492,494,638
490,493,493,494,628
490,493,493,495,562
491,494,493,493,457
491,494,493,493,401
491,492,492,492,369
492,496,492,492,367
492,493,491,493,375
492,492,490,492,400
491,492,492,493,457
490,492,492,494,518
492,493,491,491,599
489,492,493,493,640
490,494,493,492,636
492,494,492,491,606
490,492,492,493,514
492,494,493,493,423
490,494,492,492,385
492,492,491,493,366
491,492,492,494,370
490,494,492,492,381
489,492,493,494,425
492,492,491,493,485
490,493,493,493,553
491,494,492,492,626
491,493,491,493,638
490,493,491,494,629
491,494,494,492,576
491,493,493,494,466
491,494,492,494,406
490,493,494,495,369
490,493,494,493,365
491,493,492,492,377
491,494,492,494,395
489,494,491,492,451
491,494,492,493,513
491,492,491,492,587
491,494,494,492,638
490,492,493,494,637
492,493,491,494,617
490,493,495,493,527
491,494,494,493,432
491,494,492,493,389
490,493,493,492,369
492,493,493,493,370
492,493,491,493,378
492,492,491,494,416
491,492,491,493,477
491,493,492,492,543
489,492,493,492,620
493,492,492,492,641
491,494,492,492,633
492,494,493,492,586
493,495,492,492,480
492,494,493,494,409
491,493,492,493,374
491,495,494,494,363
490,493,494,495,373
489,493,493,494,391
489,493,493,492,441
491,492,492,493,505
490,492,491,493,576
491,494,492,491,635
492,493,491,493,637
492,492,491,494,622
490,495,494,492,538
491,493,492,493,441
491,494,492,493,393
490,493,494,494,367
489,493,494,492,370
491,494,492,493,375
490,495,492,492,411
490,493,492,493,469
491,493,492,492,531
491,492,491,494,610
491,491,492,494,639
490,493,493,492,633
492,493,494,494,593
490,493,492,493,492
491,494,494,493,416
491,494,492,492,380
492,495,492,492,366
490,494,494,493,372
491,492,492,493,387
490,494,491,494,434
490,493,492,493,497
490,492,492,493,567
489,493,490,492,631
491,494,493,492,640
490,492,493,494,627
493,496,492,492,553
492,494,493,493,450
491,494,491,492,399
491,495,493,494,366
491,492,491,492,368
492,493,493,493,376
490,493,494,494,403
490,493,492,492,461
490,493,492,492,522
490,492,492,494,606
491,494,491,493,640
491,494,491,494,632
490,492,492,494,602
491,493,493,494,506
492,494,493,492,420
492,493,493,493,384
492,493,491,492,365
491,495,492,491,372
491,495,492,492,384
492,494,490,492,427
490,493,493,492,488
490,493,492,492,557
490,491,491,493,624
490,492,493,494,639
490,493,493,494,628
490,493,491,492,566
490,494,493,494,460
491,493,491,492,402
491,495,492,491,369
491,495,491,493,366
492,492,491,492,374
491,492,493,492,399
490,492,491,493,453
490,493,492,492,514
490,493,493,493,594
489,493,493,492,638
491,494,492,491,633
489,492,493,492,615
492,494,494,494,517
491,495,492,493,427
492,493,492,493,387
491,492,491,494,366
491,495,491,492,370
490,493,493,494,381
492,492,490,491,422
490,494,492,493,481
491,493,493,493,549
491,494,491,494,620
490,494,491,493,639
491,493,493,492,632
490,492,492,494,576
490,493,493,493,473
491,494,492,493,408
490,493,492,493,371
492,493,492,492,368
491,494,492,494,373
490,494,492,491,396
492,493,492,493,448
491,493,492,493,509
492,493,493,492,584
490,491,491,494,638
492,493,491,493,636
490,494,494,492,621
490,494,494,493,532
491,494,493,493,434
491,493,493,492,392
492,493,493,495,365
493,493,492,493,367
491,493,492,494,378
490,491,491,494,413
491,494,491,492,472
490,493,492,493,539
491,492,492,492,616
490,494,492,492,640
491,494,491,492,632
492,493,491,492,589
493,494,493,493,483
492,494,492,492,412
490,494,492,493,372
490,493,491,494,364
490,493,493,494,374
490,494,493,493,387
492,492,493,492,441
490,492,491,493,502
490,493,491,492,573
492,493,491,492,634
491,492,491,494,637
491,495,491,492,622
490,492,493,492,546
492,494,493,494,442
491,493,494,493,396
490,494,494,493,369
490,495,492,494,366
490,495,491,492,377
489,493,493,494,407
491,492,491,492,465
491,493,492,492,528
489,492,491,494,608
490,491,492,492,640
491,493,494,493,634
490,491,491,493,594
490,495,493,492,497
490,494,493,493,418
490,493,491,492,381
490,493,493,494,363
491,492,492,492,373
491,493,492,493,382
489,492,493,494,432
490,492,492,493,495
490,492,491,492,562
491,494,493,492,631
489,492,493,494,639
492,493,491,493,626
491,493,491,493,559
492,494,493,493,455
491,494,492,493,399
490,493,492,492,370
493,493,492,493,367
491,495,493,492,376
491,494,493,491,404
491,494,491,492,458
490,493,491,493,520
490,492,491,493,603
489,493,490,493,637
491,492,492,494,633
489,492,493,495,607
489,492,491,492,510
492,493,493,492,422
491,492,491,493,385
490,494,492,492,366
491,494,491,492,371
492,493,490,493,381
489,493,493,493,424
490,492,492,492,488
490,492,491,493,552
489,492,492,494,623
489,493,493,493,640
491,492,491,494,628
492,495,493,492,570
490,493,492,493,465
491,494,491,492,404
491,493,491,493,368
492,492,491,494,366
490,492,491,492,375
492,493,494,494,398
492,492,490,492,451
490,493,492,493,513
490,494,491,492,592
492,494,491,491,637
490,494,493,493,635
491,492,493,492,619
491,492,492,494,522
491,493,492,493,429
491,493,491,494,390
489,494,490,491,368
490,494,493,492,369
491,492,492,492,381
492,495,492,491,419
491,494,492,492,479
491,493,492,493,545
490,493,491,493,618
491,494,492,492,642
490,493,492,494,630
490,494,494,495,581
490,494,494,494,478
491,494,492,493,409
491,493,492,492,374
492,495,492,495,365
490,493,491,493,372
492,493,492,493,391
491,491,491,493,443
491,494,492,492,506
491,492,492,494,581
492,493,490,494,636
491,494,492,491,637
491,495,492,491,624
492,495,492,495,535
491,493,493,492,437
491,493,493,493,394
492,492,491,492,365
491,492,492,494,367
489,493,493,494,378
492,494,491,491,411
490,493,492,493,470
491,492,492,493,535
491,494,490,491,614
491,494,491,492,639
491,492,490,493,632
491,494,493,492,591
491,493,493,494,490
491,494,492,493,413
491,494,493,493,376
490,494,494,493,366
491,495,492,493,371
490,493,492,492,388
492,492,492,493,437
492,493,491,492,497
491,492,491,493,567
490,491,491,494,631
492,494,491,491,636
490,494,493,493,625
492,493,494,493,550
491,494,493,493,447
491,494,493,492,399
491,494,492,494,366
490,494,491,492,366
490,494,493,492,376
490,491,490,493,403
490,492,492,493,463
490,493,492,494,526
490,492,492,492,607
492,492,493,492,641
491,492,492,495,634
492,494,490,491,602
493,495,492,493,503
492,494,493,493,420
491,493,493,492,379
491,493,491,492,367
492,494,493,493,372
490,493,493,492,383
489,493,494,492,430
490,493,490,492,490
491,494,491,492,559
489,492,492,494,629
492,493,490,493,638
491,492,491,494,626
490,492,491,494,567
492,495,492,493,456
491,493,492,492,402
491,493,493,493,369
489,493,493,491,367
491,495,492,491,376
491,494,491,491,402
489,492,492,493,454
491,493,491,493,518
490,493,490,493,596
490,492,491,494,637
490,492,493,494,635
489,493,490,493,611
493,494,494,492,516
491,494,492,493,427
491,494,492,492,386
493,495,492,492,367
492,493,492,494,371
491,494,492,493,378
491,492,492,492,425
491,492,491,493,483
491,492,492,492,550
489,492,493,493,622
489,491,491,494,638
492,494,492,491,629
489,493,493,491,577
493,493,491,492,469
491,493,491,492,406
491,492,492,493,369
492,492,492,491,367
492,493,493,494,373
492,493,491,492,396
490,494,493,492,448
490,493,492,493,510
490,493,492,492,586
490,492,492,491,636
492,492,493,493,637
490,491,491,494,618
491,492,492,494,527
491,493,493,493,434
491,494,491,492,392
491,494,494,493,367
492,492,492,491,371
492,494,491,491,379
492,495,490,492,415
491,493,492,494,475
490,493,491,492,539
491,494,492,493,619
490,492,492,494,640
490,493,492,493,631
490,494,494,494,585
490,494,493,493,481
492,493,492,492,411
490,494,492,494,373
490,494,491,492,365
492,493,491,492,372
491,493,492,494,388
491,495,491,492,442
490,492,491,493,504
491,493,491,493,576
490,493,493,493,634
491,494,492,492,638
491,494,491,494,623
490,492,491,492,541
493,494,493,494,442
491,494,491,493,394
491,493,492,493,365
491,493,493,495,368
493,494,491,493,378
490,494,493,492,407
491,492,492,493,468
491,493,492,492,532
491,494,491,492,611
491,494,491,492,640
492,494,492,492,633
491,492,491,493,594
491,495,493,493,493
491,493,491,493,413
490,492,492,493,378
490,492,493,492,365
492,492,492,491,372
491,492,492,494,383
491,494,490,492,434
491,493,491,492,495
491,493,491,492,563
490,493,492,492,628
490,492,493,492,639
491,493,493,493,628
490,493,493,494,555
491,494,494,493,451
491,494,492,493,399
490,494,491,491,368
490,493,494,494,367
491,492,491,493,375
491,492,490,494,400
489,492,491,494,459
490,492,491,492,524
491,492,493,492,604
489,492,490,494,639
491,494,491,492,635
492,494,490,492,605
492,495,491,492,508
491,493,492,493,420
491,493,492,492,384
491,495,490,494,364
490,492,491,494,370
489,494,493,494,382
490,493,490,493,427
491,494,492,492,487
491,492,491,494,558
492,493,490,491,627
492,492,490,493,638
491,492,491,494,631
491,495,493,495,567
490,494,492,493,462
491,493,492,494,404
490,494,493,492,368
490,495,493,491,366
491,495,492,493,376
490,493,492,494,398
492,493,490,493,452
489,493,492,492,514
490,492,491,494,591
489,492,492,494,637
489,493,490,493,636
492,494,493,492,616
492,492,491,494,521
491,494,493,493,428
491,494,491,492,388
492,494,491,492,367
490,493,493,494,369
491,492,492,491,381
492,492,492,495,419
490,492,492,493,480
490,493,493,493,546
490,492,490,494,619
490,494,491,492,639
489,493,493,493,630
492,492,491,493,580
493,493,491,493,473
491,494,492,493,408
490,492,492,492,374
492,493,493,494,365
492,492,491,494,375
491,494,492,491,395
491,495,491,491,445
490,493,491,493,507
490,492,492,492,582
491,492,493,493,636
491,492,492,494,636
489,492,492,494,620
490,493,494,495,533
490,494,491,493,437
490,493,492,492,390
490,492,491,492,369
491,494,491,492,369
492,493,490,493,376
492,493,491,493,414
490,493,491,493,471
491,493,492,492,537
489,492,492,494,615
489,492,492,493,640
490,494,492,491,632
491,495,493,492,587
490,493,492,493,486
492,494,493,494,412
491,493,491,493,374
493,492,491,493,364
491,492,493,494,372
490,493,491,492,390
489,492,491,493,438
491,493,491,493,501
490,493,492,492,573
491,494,491,491,634
491,494,491,494,638
490,493,490,494,623
492,495,493,492,547
490,493,492,493,445
491,493,492,493,397
490,493,493,494,367
492,492,491,494,369
491,494,492,494,375
490,492,491,492,409
491,493,491,492,465
491,493,491,492,526
491,492,491,493,606
490,494,491,492,641
490,493,492,494,633
492,492,490,495,598
490,494,493,494,500
491,494,493,493,418
490,494,492,494,380
490,492,491,492,365
492,494,493,493,372
491,492,491,493,383
491,491,490,494,431
490,492,491,493,493
491,493,491,492,561
490,492,492,492,628
490,491,493,492,641
492,494,490,491,628
492,495,491,491,562
492,494,492,494,455
491,493,491,492,400
491,495,493,492,367
490,492,491,494,367
489,493,492,494,377
490,494,494,493,402
490,494,492,493,457
491,493,491,492,519
490,491,492,494,599
491,493,490,492,639
491,492,491,494,634
490,492,491,494,608
491,495,493,492,513
491,493,491,492,423
491,494,493,493,387
490,494,494,493,368
491,495,492,492,371
492,495,493,495,382
489,493,490,492,425
490,493,492,493,485
490,492,491,493,552
490,491,491,494,623
490,493,492,494,641
491,493,490,493,632
490,493,490,493,572
491,495,493,493,467
491,494,492,492,407
492,494,490,491,369
492,495,491,492,366
490,494,492,493,373
491,492,491,491,398
492,494,492,494,450
490,492,491,493,511
491,493,493,493,588
489,493,490,493,636
491,494,491,492,636
489,493,493,494,620
493,493,490,493,525
492,494,491,493,431
491,493,492,494,391
492,496,492,495,365
490,493,492,493,369
492,494,493,492,381
491,494,492,491,418
491,494,491,492,476
490,493,491,493,542
491,493,489,491,618
490,494,492,493,639
490,492,492,495,630
490,492,492,495,583
489,493,493,494,479
491,494,492,492,412
491,493,492,492,374
491,493,491,493,367
492,494,491,492,374
492,494,491,492,391
492,493,491,492,444
490,493,491,492,505
491,492,491,491,578
491,492,492,494,635
490,493,492,493,637
491,494,492,492,623
490,492,492,495,537
492,494,492,492,438
491,493,492,493,393
492,493,490,492,367
493,492,491,494,366
490,492,492,491,378
491,494,492,494,409
490,493,491,492,469
491,493,492,493,535
490,493,491,492,613
491,494,490,491,640
491,494,491,493,633
490,494,493,492,591
493,493,491,492,491
490,493,492,493,415
490,493,491,494,376
490,492,492,494,365
489,492,491,494,371
491,495,493,492,383
490,492,491,492,437
491,493,491,493,498
492,493,491,492,566
491,492,490,492,632
491,494,492,494,637
490,494,490,492,625
489,493,494,495,553
491,494,493,493,450
491,493,492,493,398
491,492,492,495,370
492,494,490,494,366
490,494,491,494,374
491,491,490,494,403
490,492,491,493,461
491,493,491,493,522
490,493,491,492,607
489,492,492,492,638
491,492,491,492,636
491,494,491,491,603
492,495,491,492,505
492,494,493,493,419
490,493,490,493,381
492,494,493,492,365
489,492,492,494,371
490,493,493,494,383
490,493,493,493,428
491,493,491,493,492
490,494,491,493,556
490,492,491,492,629
491,493,491,493,640
491,492,491,494,627
491,492,494,492,568
492,493,492,493,460
492,494,492,492,403
490,493,494,493,369
490,494,493,492,368
492,495,492,491,375
490,494,491,495,398
489,492,490,492,455
491,493,491,493,515
491,492,491,493,595
491,492,490,493,637
490,493,492,494,634
492,493,490,493,614
490,494,494,493,517
492,494,493,493,427
490,494,491,492,390
492,495,491,491,368
492,494,493,493,371
490,492,491,493,379
491,495,492,491,420
490,493,491,494,483
491,493,491,492,548
490,494,493,493,620
491,493,492,491,641
492,494,492,494,628
490,494,491,492,578
493,493,492,493,473
492,492,492,492,407
492,492,492,494,370
491,495,492,493,365
490,494,493,492,373
492,493,493,492,397
490,494,492,492,448
490,494,492,493,509
490,494,492,494,583
489,493,490,492,635
490,495,492,492,635
489,493,492,494,620
490,493,492,495,530
491,494,492,493,434
491,494,491,493,393
491,494,490,492,365
491,494,492,491,370
491,494,491,492,380
492,495,490,491,414
491,496,492,493,472
490,497,490,493,540
490,499,491,494,615
489,497,493,494,641
490,499,493,492,633
490,500,494,492,587
491,496,493,495,483
492,489,492,493,412
491,492,494,493,374
493,493,491,494,365
491,489,492,494,372
491,493,491,494,390
492,497,490,494,440
490,496,490,492,501
491,490,491,491,575
490,485,491,491,634
492,491,490,492,636
492,495,493,493,625
492,494,490,493,544
491,496,493,493,441
491,494,491,493,395
490,494,492,494,366
489,495,494,493,366
490,495,493,492,379
492,499,492,495,405
492,505,493,494,468
491,508,492,494,531
491,507,491,494,609
492,508,493,496,642
491,499,491,495,635
489,487,490,492,596
494,479,494,493,497
491,481,492,493,417
491,485,493,492,382
492,485,492,495,365
493,491,492,494,373
491,496,493,494,383
491,495,491,495,434
490,490,490,492,494
490,482,490,491,562
491,493,491,492,632
490,497,489,492,638
491,497,490,492,627
492,496,491,492,559
492,496,492,493,454
491,498,493,493,400
490,498,492,491,370
490,501,492,494,366
489,499,493,495,377
490,493,494,493,403
491,501,493,493,458
490,505,494,495,520
490,506,492,493,602
488,515,495,496,639
491,520,494,496,635
491,522,494,496,606
492,509,493,493,510
491,475,491,492,422
491,474,490,491,381
490,478,493,491,366
491,480,488,492,372
492,484,490,492,381
489,485,494,493,426
490,485,491,494,487
490,490,492,494,554
490,492,492,494,624
490,493,493,493,641
490,491,491,494,628
490,494,493,492,575
490,493,491,493,464
491,498,492,492,405
491,494,490,493,369
492,490,490,493,364
491,492,492,492,375
491,495,493,495,397
489,499,491,492,451
490,500,492,493,514
490,503,492,493,594
491,512,492,494,638
490,514,494,496,637
492,507,491,493,617
491,493,492,496,521
492,499,493,496,432
492,506,493,496,390
491,490,491,494,368
492,493,493,494,373
490,492,491,494,380
491,491,490,492,420
492,493,492,493,480
491,499,491,493,545
491,508,493,494,620
491,505,491,492,641
492,489,492,494,629
490,482,493,495,581
490,491,497,494,477
491,496,493,494,410
491,499,491,494,373
491,503,492,494,364
489,496,492,493,373
491,500,492,494,392
491,505,492,496,445
489,517,494,496,508
489,518,491,497,582
493,508,490,495,637
492,491,493,495,639
492,500,492,494,625
491,488,493,492,535
492,473,494,493,439
495,481,496,494,394
494,489,498,494,366
491,497,496,494,369
491,494,493,493,379
491,496,492,492,410
490,500,491,493,471
494,493,487,492,537
500,499,490,493,615
500,497,492,494,640
494,480,490,494,630
485,484,491,493,590
483,487,491,494,489
489,499,490,493,412
492,510,492,494,377
494,518,492,494,367
495,518,493,493,370
496,498,496,494,389
493,508,492,496,437
487,511,493,496,500
493,507,490,495,570
492,503,489,494,631
490,484,491,492,638
488,472,492,494,626
491,481,490,494,549
490,490,494,495,449
490,491,494,493,399
493,487,493,494,365
490,486,492,492,367
492,489,494,492,378
492,494,491,494,404
491,494,492,494,464
490,503,490,494,527
489,510,492,494,607
489,502,495,494,642
490,490,494,494,632
491,478,492,490,601
494,493,493,493,504
493,503,494,494,420
492,506,493,493,382
490,514,491,495,367
491,519,492,498,372
490,516,495,498,386
490,510,495,497,433
492,487,492,496,491
492,499,492,496,562
491,489,493,496,628
492,476,494,492,638
492,462,491,493,628
491,468,490,492,563
493,480,494,492,457
493,495,493,492,404
492,500,494,492,368
490,504,494,493,369
492,505,494,493,378
492,501,493,492,402
492,494,493,496,455
491,501,492,495,519
491,502,492,496,597
490,511,491,499,641
488,508,491,500,638
489,505,493,499,615
493,514,499,498,520
493,500,495,493,427
493,493,498,491,388
492,493,494,491,369
495,473,490,490,370
493,474,493,489,380
494,498,490,490,426
496,506,492,493,484
493,499,493,495,551
489,505,494,496,623
489,483,491,494,638
490,482,492,492,631
490,497,493,495,577
494,503,493,493,469
493,501,493,493,407
492,491,493,494,370
492,490,493,493,366
492,485,493,496,375
490,484,491,494,397
489,511,493,495,451
492,513,496,495,513
490,493,493,491,588
490,502,495,495,637
493,503,494,494,639
493,507,492,495,618
493,508,495,496,529
491,505,493,493,434
491,474,490,491,390
496,482,494,493,367
496,483,491,492,369
494,483,492,493,379
495,492,490,495,417
497,483,491,496,475
500,489,492,496,542
493,505,492,494,621
482,501,495,496,640
486,503,496,496,634
489,498,496,496,588
491,485,494,495,484
497,494,495,497,415
497,495,494,499,376
495,495,493,495,366
497,497,492,493,374
492,490,492,495,390
486,483,490,491,443
490,497,492,493,505
489,500,491,493,578
489,504,494,495,637
491,514,492,495,639
491,482,490,492,624
489,486,494,495,542
493,503,496,498,444
492,513,495,498,396
491,507,493,499,368
492,493,493,496,370
488,481,493,490,378
487,489,495,490,409
490,486,490,489,468
492,492,492,491,532
490,499,492,492,612
492,484,491,493,640
491,478,492,492,633
491,485,493,495,592
492,492,493,493,493
490,495,494,494,415
491,498,494,495,381
492,496,496,495,365
492,483,495,494,374
493,483,495,497,387
490,500,492,495,435
491,506,492,495,498
490,520,491,495,566
489,527,494,494,635
490,520,496,498,642
491,515,495,494,629
491,488,493,494,556
492,472,491,496,454
495,509,496,497,402
496,519,491,494,370
500,504,492,494,369
491,473,490,495,374
487,459,494,499,402
488,464,492,499,461
493,480,492,499,527
497,492,492,500,610
498,516,494,500,643
489,527,493,495,638
489,518,496,494,609
496,519,499,491,510
496,482,497,489,421
495,485,495,495,386
497,499,492,496,368
489,517,494,496,373
490,509,490,496,386
493,517,491,499,429
489,500,493,493,488
491,477,491,496,559
494,501,491,497,627
495,484,490,498,641
492,508,497,503,635
505,510,499,498,572
501,466,499,494,465
491,480,493,493,406
487,479,495,488,370
489,484,494,485,368
491,509,492,490,376
491,503,494,495,400
491,516,493,495,456
490,499,492,493,514
490,483,492,498,594
488,485,491,496,639
488,491,490,494,635
490,505,490,491,618
492,486,491,493,519
489,479,496,490,427
488,486,495,494,388
494,492,492,496,368
493,497,494,498,371
492,508,493,499,385
498,522,494,499,425
491,532,495,500,483
488,517,498,496,550
490,505,498,496,622
493,499,496,495,642
491,482,494,498,632
489,476,490,492,580
487,484,499,492,476
491,497,501,495,413
498,506,499,496,377
505,525,495,495,370
499,525,488,496,376
492,544,490,496,399
491,530,493,495,448
487,504,496,497,508
486,459,492,494,580
490,478,491,495,639
493,496,496,499,639
492,520,496,499,626
492,524,499,498,539
498,512,495,497,440
502,469,497,492,394
502,462,497,492,369
493,474,492,495,369
493,489,488,496,380
491,499,482,490,414
488,494,489,490,471
486,499,492,494,539
487,493,495,498,617
492,511,494,502,647
500,544,494,504,640
502,537,494,500,596
489,525,492,497,489
488,482,490,490,412
489,456,498,483,372
488,468,495,487,363
490,495,497,494,374
490,520,497,497,393
493,566,503,502,443
488,534,495,503,505
487,504,495,503,574
490,447,491,499,636
492,461,497,498,642
494,472,495,490,624
500,489,498,485,551
505,531,504,493,448
501,524,501,494,397
486,526,495,496,369
488,501,494,498,367
490,485,477,495,377
492,482,486,493,408
506,488,490,495,466
501,529,495,494,528
495,516,496,495,608
488,494,501,493,641
490,489,495,491,634
491,488,486,491,598
495,484,490,494,500
501,524,494,499,422
499,518,501,498,384
519,505,512,498,370
522,479,505,495,375
491,476,492,501,384
480,519,493,505,435
480,489,487,496,495
486,470,486,489,563
490,493,493,488,630
484,488,486,487,639
483,493,485,490,628
489,500,492,493,563
493,513,495,494,458
495,517,499,494,402
490,524,498,496,372
488,491,497,496,368
492,494,502,496,379
490,513,499,498,405
489,517,497,499,461
492,519,499,498,524
494,517,495,501,604
487,518,493,497,641
488,497,491,493,633
493,445,492,489,608
490,473,487,490,513
489,465,483,493,424
491,485,488,494,388
491,483,495,492,367
496,483,496,491,374
492,509,494,495,383
486,501,488,495,425
491,487,491,499,489
493,530,497,495,556
494,548,503,496,626
494,542,501,491,641
488,477,489,490,629
487,475,499,498,573
493,508,504,501,472
498,526,500,501,410
499,504,490,494,371
498,477,491,488,366
500,481,495,486,376
496,495,490,494,400
499,494,493,497,452
501,480,496,497,514
511,499,498,497,592
516,505,497,499,641
510,509,499,497,640
499,544,501,501,622
490,534,496,496,527
479,509,492,490,429
479,461,488,492,388
485,462,490,494,367
485,507,491,492,370
485,491,490,490,381
485,477,491,492,419
489,505,495,498,479
485,504,499,499,548
490,505,502,492,620
497,489,495,491,641
498,473,492,495,632
491,502,489,499,585
486,505,490,497,481
496,495,490,495,414
497,499,496,492,375
494,485,496,493,366
485,493,502,492,375
489,515,499,496,392
489,522,492,491,444
486,533,486,490,503
490,512,494,493,581
494,509,500,495,634
493,435,494,485,633
491,453,494,488,623
492,487,494,496,536
494,494,493,494,437
489,485,491,495,394
492,477,489,497,368
492,492,490,498,369
490,502,496,499,382
490,520,492,496,411
487,526,491,493,471
486,510,489,500,536
489,501,491,500,617
492,487,495,495,642
496,478,502,491,636
499,511,500,490,593
506,505,496,492,494
501,525,496,493,415
492,503,492,493,377
484,531,493,498,367
489,505,490,499,373
485,511,502,498,389
484,484,500,496,439
488,493,485,494,499
492,472,483,488,566
500,480,489,480,631
503,495,492,488,636
507,469,500,490,626
506,473,499,497,551
488,490,500,500,450
489,522,497,499,402
496,521,488,498,368
491,507,493,495,367
486,471,491,491,376
485,499,487,494,407
490,567,496,497,465
488,534,500,494,523
485,482,494,491,606
492,471,491,496,640
487,468,486,497,637
491,484,493,493,605
491,472,490,489,504
494,487,493,487,418
490,502,497,495,384
486,540,505,502,370
491,512,493,498,372
491,501,496,492,384
493,493,493,492,429
496,475,486,491,489
495,470,485,489,555
491,489,484,492,630
491,510,495,495,640
489,507,491,496,627
488,483,490,488,566
492,474,495,487,458
494,471,496,488,401
494,470,495,493,367
492,489,502,493,369
499,519,507,497,378
496,546,493,501,402
488,572,494,501,459
490,540,505,495,518
504,492,509,494,598
517,446,503,496,638
511,467,499,500,636
486,480,479,497,615
472,454,476,494,517
486,488,490,490,428
491,511,491,489,390
496,511,495,492,370
498,504,495,489,369
494,459,493,486,377
497,468,497,492,423
496,505,498,497,483
491,521,506,498,551
490,520,509,496,621
492,478,487,493,641
488,474,483,496,629
487,460,491,493,579
492,489,501,499,476
495,512,507,500,413
495,533,485,493,372
494,502,491,485,367
490,464,492,485,370
491,461,497,491,393
494,495,489,493,448
499,507,486,497,508
487,500,493,504,586
484,523,501,498,641
490,533,503,495,639
488,531,488,492,621
492,500,490,492,530
498,468,494,489,435
503,499,501,493,394
497,510,497,495,368
494,502,496,497,370
478,482,494,497,381
484,482,492,489,413
491,443,489,485,470
491,452,489,490,538
491,490,488,484,613
490,496,493,489,638
491,496,499,494,630
492,488,503,498,586
492,504,498,499,486
490,534,495,494,413
488,494,493,489,370
491,500,490,489,366
494,505,494,491,372
493,497,491,493,386
489,485,499,496,439
489,485,490,497,502
489,489,490,494,574
492,500,486,498,637
500,539,489,496,642
502,570,493,494,622
487,443,490,487,542
483,480,496,494,441
489,494,499,489,395
490,499,494,488,365
490,485,494,491,366
492,479,496,493,375
489,468,494,490,403
487,462,488,491,464
486,472,484,494,529
490,486,491,490,610
489,513,495,492,640
487,524,493,495,632
495,490,485,496,597
500,500,491,496,497
499,489,488,493,416
487,497,494,496,381
491,509,493,494,366
494,494,490,499,376
489,543,489,501,389
488,511,486,487,433
487,479,490,482,491
488,456,497,491,562
494,483,505,499,628
493,481,487,492,638
491,488,490,495,628
493,510,497,496,561
496,529,496,493,455
503,489,500,494,400
495,510,501,496,369
488,514,503,497,368
498,510,485,497,377
501,486,489,492,402
492,469,495,492,458
486,493,499,489,521
479,481,491,489,601
487,460,488,493,639
481,476,474,492,635
486,505,491,494,609
492,497,496,493,509
490,500,500,492,422
494,481,485,492,384
491,499,485,497,365
495,503,492,494,373
496,496,506,492,384
505,483,490,493,425
509,500,499,494,488
494,477,500,493,553
472,516,492,502,628
486,516,496,506,644
500,522,498,504,638
512,550,491,498,575
502,498,480,485,463
485,444,487,485,401
487,454,489,486,367
495,463,488,485,365
490,477,489,488,371
480,499,495,491,398
485,504,493,492,451
484,512,488,491,512
486,504,488,493,590
487,485,492,494,635
486,475,491,493,633
488,474,495,494,616
495,478,495,494,522
495,473,497,493,429
487,484,490,489,391
485,519,495,494,367
487,521,494,491,369
487,519,494,491,382
487,536,496,497,418
486,502,486,495,477
490,451,486,494,544
497,470,491,495,621
489,480,492,494,640
489,508,491,494,630
484,525,489,494,582
487,516,496,496,477
490,484,494,493,409
491,466,495,488,372
492,456,489,485,363
493,478,489,484,372
494,496,495,488,393
501,503,490,492,443
498,490,492,497,503
490,492,491,498,580
485,496,493,496,636
487,494,496,497,636
486,505,494,497,624
491,511,501,496,538
496,499,493,490,437
492,476,492,487,390
495,469,496,489,369
498,522,496,496,372
493,547,486,501,381
489,526,481,498,414
484,488,480,493,468
484,440,495,485,534
492,491,497,486,612
486,503,496,489,640
487,521,494,490,632
488,492,487,494,586
490,480,492,489,488
489,496,497,491,410
489,465,492,489,370
491,456,497,493,364
490,489,499,493,372
488,509,497,493,387
488,480,507,496,438
488,491,497,495,500
485,515,490,494,571
490,511,479,494,633
495,489,485,495,639
490,476,493,494,625
497,484,494,493,547
505,472,490,491,446
498,467,484,492,398
490,509,493,497,368
485,515,486,494,370
476,505,487,496,376
483,495,492,490,408
497,508,495,493,466
513,489,500,494,528
519,500,493,491,605
495,481,482,486,637
479,499,481,493,633
481,527,501,496,602
493,508,497,492,501
491,483,492,494,419
487,487,493,493,379
479,483,495,491,364
488,469,502,492,370
489,474,497,496,382
491,463,491,495,431
490,486,482,494,491
483,502,487,490,559
479,498,492,495,628
488,493,498,491,638
483,488,499,490,628
492,492,503,488,565
496,482,485,495,458
495,501,486,496,404
487,507,491,496,369
486,510,490,494,367
489,488,495,491,376
490,482,499,488,401
489,503,490,488,453
488,481,488,488,516
492,481,488,495,597
490,498,487,496,637
488,496,492,499,635
492,499,495,499,614
496,497,493,495,517
489,522,493,495,427
492,530,488,489,385
491,473,487,485,365
498,490,490,491,371
496,496,494,493,380
494,482,496,497,425
494,499,495,497,484
489,504,490,496,550
480,509,491,491,621
485,496,491,482,637
490,487,497,483,627
490,476,494,489,571
488,498,488,491,467
486,502,492,492,404
489,482,491,495,368
490,461,490,497,365
487,485,488,495,372
487,490,484,492,398
490,491,487,487,446
489,488,496,487,508
492,482,504,488,586
494,487,494,495,634
494,489,489,493,636
489,500,488,487,616
494,485,483,491,525
497,505,491,492,433
490,491,492,494,390
486,520,494,497,365
486,488,492,497,368
485,499,494,493,379
487,508,493,490,417
489,515,496,494,476
493,507,504,494,540
496,460,501,493,618
493,468,497,494,638
487,501,491,495,632
485,532,497,494,585
498,503,492,494,481
495,463,478,489,406
483,437,482,488,369
484,476,491,489,366
496,503,494,492,373
498,502,491,496,391
490,498,495,495,443
486,514,501,496,505
487,534,494,493,578
497,484,489,495,635
506,474,489,492,637
501,473,486,491,624
477,492,484,500,541
474,495,488,496,443
503,509,489,489,394
497,478,485,490,364
488,480,495,492,367
491,475,497,490,378
503,477,500,491,409
504,483,497,491,467
498,489,489,494,534
507,509,494,495,613
504,504,499,497,641
488,506,492,492,632
481,505,492,490,591
490,505,497,495,495
486,508,489,496,413
479,473,484,489,375
479,476,489,490,365
486,507,492,491,373
487,537,494,494,385
488,522,493,492,433
490,435,488,485,492
488,447,489,490,560
483,471,485,493,631
485,497,490,493,637
491,488,488,490,627
485,497,493,492,555
489,506,496,493,451
490,510,495,492,398
489,485,491,494,368
492,489,494,498,369
489,520,495,503,378
489,503,492,496,403
487,480,494,491,459
488,481,495,491,523
491,492,488,490,603
489,474,489,494,637
486,492,486,489,634
490,490,490,493,604
493,486,494,498,508
493,484,495,493,422
495,488,500,492,383
493,526,496,488,366
488,511,492,494,372
485,532,489,493,383
484,464,484,492,424
489,464,485,491,486
489,481,488,489,555
486,492,487,488,624
492,497,490,493,637
495,511,495,495,629
493,509,495,492,570
484,511,496,493,461
493,519,503,494,406
492,528,504,495,371
492,510,487,497,366
492,483,481,493,371
500,423,481,490,399
504,462,492,493,451
502,466,493,493,513
481,479,487,494,593
492,494,500,491,638
499,502,506,493,635
495,490,493,494,616
494,485,479,494,518
486,478,484,491,427
480,485,489,493,387
492,490,503,489,365
488,513,496,491,373
490,504,491,494,379
491,505,490,495,423
490,522,488,494,480
478,500,487,490,544
476,494,488,493,619
489,503,495,492,638
490,486,498,491,631
490,485,495,495,577
491,462,484,491,473
496,496,492,492,409
496,489,494,491,370
494,470,492,490,365
487,485,489,497,374
487,489,492,495,397
494,492,488,495,447
490,504,495,494,510
495,528,495,490,584
489,464,491,486,633
490,473,494,491,637
489,512,487,495,623
490,523,490,500,535
486,497,492,499,436
485,488,495,493,392
488,473,489,493,365
491,479,493,489,367
490,497,493,487,376
488,490,494,493,410
490,489,495,491,471
489,514,498,493,537
492,530,497,497,619
492,532,490,494,640
489,481,486,492,628
488,443,488,489,586
492,466,497,487,485
493,476,494,487,411
488,495,487,495,374
487,498,491,498,366
488,520,491,497,375
490,511,492,497,388
489,494,491,494,440
490,490,497,496,502
493,500,495,494,573
496,476,485,486,630
496,461,487,483,633
485,482,482,484,621
481,483,489,492,544
494,492,497,499,446
493,496,498,498,398
490,496,493,495,369
489,495,490,498,369
486,502,490,490,378
496,497,500,493,408
505,509,497,495,466
494,500,498,495,527
481,520,491,495,608
489,505,488,498,641
488,492,499,497,636
483,493,496,492,596
491,498,501,486,499
488,492,485,483,414
488,472,487,484,375
486,449,495,488,360
490,471,487,488,370
488,495,490,490,380
485,482,491,493,430
488,485,493,493,490
498,492,489,495,560
501,504,489,495,630
492,507,492,496,639
484,516,493,495,628
482,529,494,491,559
487,500,489,492,455
488,483,491,493,401
490,485,490,491,367
490,459,489,493,367
489,479,495,491,377
494,486,497,491,401
495,482,488,492,456
488,477,482,490,518
498,494,488,490,599
493,496,488,491,636
484,487,492,495,632
482,484,493,495,607
489,489,494,494,513
492,492,494,495,422
486,486,492,491,386
491,493,491,490,366
494,500,491,492,370
492,516,489,496,384
485,510,490,496,423
487,466,493,494,484
487,487,497,495,554
487,501,493,497,625
490,512,494,495,642
493,508,491,495,629
491,488,491,491,571
488,477,490,490,467
489,488,491,489,406
493,493,490,490,368
492,496,489,491,363
486,489,489,490,374
488,478,490,492,395
490,490,491,490,449
487,489,493,493,512
489,500,491,494,589
490,499,493,494,637
489,500,494,494,636
490,501,498,492,618
488,470,489,494,524
493,485,489,492,432
493,502,495,492,390
491,494,495,492,368
489,499,492,494,368
486,493,491,495,380
487,491,488,493,419
487,517,490,493,477
489,494,487,490,542
487,482,486,485,615
488,479,486,482,636
488,483,489,490,629
488,487,492,492,581
489,493,493,495,478
490,498,494,497,410
490,480,494,496,375
493,489,494,495,364
490,483,487,488,372
488,487,488,490,389
489,491,490,491,441
490,496,492,488,504
489,490,492,490,576
490,489,489,492,634
491,492,490,493,637
494,505,491,494,624
498,510,490,496,539
496,512,489,492,439
489,500,494,491,393
486,496,491,493,365
487,475,493,491,368
491,472,489,493,377
490,490,489,495,412
486,510,491,498,469
483,516,495,498,536
487,492,493,495,614
491,478,485,490,638
487,464,485,489,629
489,480,491,487,593
489,481,491,490,490
489,491,490,493,414
487,493,490,492,378
488,484,494,492,366
492,507,496,497,374
494,515,497,493,388
495,494,489,490,433
484,483,483,491,497
489,479,483,490,564
492,487,493,492,629
492,491,493,493,639
489,494,495,494,624
487,491,491,492,552
491,477,489,493,450
492,484,489,490,398
491,487,496,493,367
488,472,494,494,366
489,501,490,493,377
486,514,490,495,404
486,489,490,489,460
489,478,491,489,522
488,484,490,491,602
488,486,490,490,639
490,487,491,492,632
489,492,491,491,601
491,490,490,493,504
489,498,493,494,418
488,497,492,494,382
489,495,494,493,367
491,500,493,494,374
488,511,494,492,386
489,513,496,493,430
489,496,494,494,489
487,480,488,493,557
487,485,492,491,626
488,494,494,494,639
488,508,490,495,628
487,498,487,495,566
493,485,486,494,460
494,471,490,489,400
490,474,489,488,369
484,479,491,489,366
488,487,490,492,374
492,493,489,491,398
488,492,489,492,454
488,488,488,491,516
489,489,490,492,595
486,488,491,491,637
489,486,492,490,635
490,491,491,493,609
489,491,491,492,517
489,492,491,492,425
490,497,491,493,387
489,495,490,492,366
487,495,492,492,370
489,488,491,491,379
488,484,489,489,420
489,485,491,489,481
489,489,492,488,549
489,494,492,489,621
490,494,493,493,637
489,499,491,494,630
490,498,495,496,575
489,506,494,496,470
490,492,494,495,407
490,494,493,492,369
489,475,490,491,365
489,488,490,490,375
488,489,489,493,396
489,490,488,492,448
488,491,487,491,508
489,489,488,491,583
487,491,491,492,635
488,492,489,491,635
490,495,492,493,620
487,497,494,492,530
489,494,492,492,433
489,492,491,493,389
489,485,487,491,364
488,486,489,492,367
489,489,489,493,378
488,486,488,493,412
488,489,490,491,474
488,491,490,492,539
488,484,488,491,615
489,490,492,492,640
490,495,491,491,632
491,503,490,489,587
493,506,493,492,482
491,500,495,491,412
492,483,496,488,373
491,486,495,491,362
489,488,497,492,371
489,488,499,490,387
488,487,496,493,438
488,489,493,494,500
488,492,491,492,574
488,491,490,493,632
488,486,484,493,635
488,488,481,490,624
487,495,486,494,542
488,493,488,491,442
489,493,491,492,395
487,497,492,492,368
487,497,490,490,367
487,484,490,494,377
489,494,489,496,407
487,503,489,494,466
488,506,490,494,529
487,476,487,492,606
487,472,489,491,637
487,487,490,489,631
488,487,493,489,591
490,491,491,489,495
490,496,491,490,416
491,495,491,491,378
492,483,490,495,364
489,487,491,494,370
490,490,491,490,384
488,488,493,494,432
487,489,492,493,493
488,490,493,491,562
488,490,491,493,630
488,493,493,494,636
488,492,497,493,626
490,492,498,493,557
491,492,500,493,454
490,492,503,492,400
490,492,502,493,366
493,494,503,490,367
492,499,511,493,377
493,502,497,492,403
492,503,489,492,457
491,494,484,493,517
489,486,478,490,601
492,494,488,491,638
490,492,491,493,631
488,491,491,494,604
488,487,492,492,508
490,494,489,491,420
488,483,487,491,381
489,487,489,490,365
488,490,490,491,372
490,490,491,492,381
491,491,498,493,425
487,490,496,493,486
488,491,494,495,553
488,490,493,496,623
487,492,493,495,640
488,492,488,493,627
489,490,488,492,573
489,493,489,493,463
491,492,489,491,404
492,492,488,492,370
492,492,489,493,367
493,492,496,492,374
494,496,502,491,396
492,494,499,492,452
493,496,505,492,514
491,484,489,493,592
490,487,491,493,638
491,490,493,494,633
488,491,491,493,618
488,491,499,493,520
489,493,502,492,431
487,492,497,494,389
487,492,488,494,368
489,492,492,493,370
486,491,486,493,379
488,491,498,491,420
488,488,495,492,479
488,492,495,490,545
489,488,495,492,618
489,494,489,493,641
489,500,489,494,629
487,496,487,494,580
487,497,492,492,477
490,493,503,492,409
491,489,510,492,371
491,494,513,491,369
490,495,513,493,374
492,496,506,494,394
492,496,497,495,445
491,497,490,492,505
491,494,488,493,578
489,483,472,490,634
491,487,483,492,637
490,489,487,492,625
490,491,490,492,537
492,492,496,493,438
492,493,487,493,392
490,493,486,492,365
491,492,492,493,367
492,493,497,495,379
497,495,509,492,413
503,498,512,495,473
505,497,515,494,537
504,498,515,493,616
500,497,522,493,642
496,494,522,493,632
491,492,505,492,589
482,492,485,493,486
480,490,486,492,413
481,490,470,493,373
481,489,480,493,365
484,490,475,491,373
486,489,483,492,383
487,492,485,492,437
487,490,496,492,499
489,492,495,492,568
488,490,483,492,632
488,490,478,491,638
489,491,481,494,626
486,491,479,492,548
488,493,485,493,446
489,493,487,492,398
489,493,493,490,369
488,491,493,492,366
490,491,488,493,378
490,493,485,492,403
490,491,491,492,463
489,491,493,493,526
489,490,492,494,606
489,492,492,493,640
489,493,494,492,633
489,491,490,491,600
490,494,492,492,503
490,494,498,492,420
491,492,501,492,381
490,494,493,493,364
489,495,483,492,372
489,493,491,492,383
488,493,489,493,431
489,493,492,493,492
490,493,493,493,561
490,496,500,494,628
490,494,505,492,638
491,492,506,493,628
492,491,492,493,562
491,491,480,491,457
489,492,479,493,401
487,491,482,492,367
488,493,491,491,367
489,494,495,491,376
489,494,497,491,402
490,493,495,492,453
488,490,490,492,518
489,494,484,490,598
489,491,484,493,637
488,493,490,493,636
488,493,492,493,611
493,493,489,493,516
490,495,492,492,424
490,492,495,491,385
490,494,490,490,366
490,493,489,492,369
490,491,490,491,380
487,489,491,493,422
489,492,492,491,482
489,491,493,492,548
487,493,494,493,623
488,492,492,492,637
489,492,484,490,629
490,494,490,494,575
489,494,493,492,467
490,494,493,492,405
490,492,491,494,367
489,493,492,494,365
491,495,491,492,375
489,494,493,492,395
491,491,492,491,448
489,494,491,491,511
490,492,490,491,588
491,493,491,493,636
488,491,490,492,635
493,495,492,491,617
496,493,492,494,526
493,494,492,493,433
492,492,492,493,390
494,494,491,493,366
488,495,492,494,368
485,493,490,491,379
490,494,489,491,415
490,493,490,491,475
490,493,491,492,540
489,492,490,493,619
490,493,491,493,639
489,492,495,492,630
489,492,494,493,585
488,494,494,493,480
487,493,491,492,409
487,494,490,492,374
487,493,492,493,363
489,493,492,493,371
488,492,492,494,389
487,491,491,493,441
489,494,492,492,502
487,492,487,492,575
489,494,489,492,634
489,494,492,491,638
490,494,491,491,624
492,493,494,494,539
490,494,492,492,440
489,494,493,492,392
489,492,493,493,364
488,492,492,494,368
487,493,491,492,377
490,493,493,492,409
490,492,491,493,467
490,493,491,491,532
490,494,489,491,612
491,493,489,493,640
490,493,490,493,634
489,496,490,495,590
489,493,491,492,494
491,495,494,492,414
489,495,493,492,379
489,495,494,492,366
490,493,490,493,368
490,494,490,492,384
488,493,492,491,433
489,494,488,492,495
489,493,490,493,564
487,491,492,491,632
491,494,493,493,638
489,491,490,494,626
489,495,494,492,555
490,496,494,493,451
490,495,494,492,400
489,493,494,494,367
491,493,493,493,368
489,494,490,494,374
489,492,486,494,400
488,493,490,494,461
489,493,490,493,523
489,492,491,492,602
488,495,493,492,640
489,493,492,492,635
491,493,491,492,605
491,493,491,493,508
490,493,493,492,421
489,494,492,493,382
488,496,492,491,367
488,495,493,492,372
488,494,493,492,384
488,495,492,492,429
488,493,490,492,487
488,493,491,493,556
488,491,490,491,627
490,494,490,492,639
490,493,490,493,628
490,493,494,492,570
489,494,491,494,461
488,492,494,493,403
488,490,491,494,368
488,495,489,494,367
488,494,491,493,377
489,494,493,492,398
492,492,494,492,455
490,492,493,492,516
490,494,488,492,595
490,495,489,493,638
489,494,489,493,634
487,495,491,490,611
488,493,493,492,522
490,496,492,493,427
489,494,492,493,388
489,494,494,494,369
489,494,491,493,368
489,496,491,492,381
487,492,492,495,422
490,495,490,491,480
488,493,491,492,547
489,493,489,492,621
488,494,491,493,638
488,492,491,491,632
491,495,491,494,578
489,495,492,494,472
489,495,492,494,409
488,494,492,493,373
491,492,490,493,366
489,490,494,494,373
488,497,488,491,394
491,495,489,492,445
489,493,490,493,507
489,493,490,491,582
488,493,490,493,633
489,494,490,493,636
488,495,493,492,621
488,495,494,493,532
490,496,493,493,435
490,495,491,492,392
490,496,492,495,365
488,495,490,492,367
490,494,491,493,377
489,493,490,494,412
488,494,491,492,473
489,494,490,493,538
489,494,490,494,614
488,494,492,492,640
489,495,492,492,632
490,496,492,492,590
489,496,491,494,485
490,496,492,493,414
489,494,492,493,375
491,495,490,492,364
490,493,491,494,372
489,494,491,494,389
490,496,491,494,438
488,494,492,492,501
489,494,492,492,570
488,495,493,493,632
489,495,491,493,638
490,494,491,494,623
491,496,490,492,545
489,495,492,493,443
489,495,491,493,395
489,494,491,493,366
490,494,490,492,369
490,496,493,493,377
488,494,489,492,407
488,494,491,492,463
488,494,491,493,527
488,495,491,492,608
488,495,490,492,638
489,494,492,493,632
490,494,492,494,597
489,495,490,493,498
490,496,491,493,416
490,494,491,494,380
489,497,491,491,365
487,495,492,493,373
490,494,490,492,385
488,495,493,492,432
489,495,492,493,492
488,494,491,493,560
488,494,490,492,629
490,495,492,493,640
490,493,490,494,625
489,494,491,495,558
490,495,492,494,456
490,496,491,492,400
489,495,493,493,369
491,494,492,492,369
490,496,491,491,376
490,496,491,491,403
490,495,490,492,457
489,494,490,493,517
489,494,490,492,600
488,494,492,494,636
489,494,491,494,632
488,494,492,495,608
488,492,493,492,513
490,495,491,493,423
489,497,491,493,386
489,496,493,492,367
489,496,491,491,371
491,496,491,492,381
488,494,493,493,424
489,494,491,494,484
489,492,490,494,551
489,493,490,495,622
489,495,491,494,639
488,495,490,493,629
490,496,494,493,575
490,495,492,494,467
490,495,492,492,406
490,496,491,492,370
491,496,491,493,367
491,494,490,493,376
489,495,490,493,395
488,495,491,492,451
489,494,491,492,511
488,493,491,494,588
488,493,491,494,637
490,494,490,494,637
490,496,491,495,616
489,493,491,492,526
490,496,492,493,430
490,495,491,493,391
491,494,493,494,367
489,493,491,494,368
490,495,491,492,380
488,493,491,494,416
488,493,491,493,476
489,493,491,493,544
490,493,489,492,619
489,495,491,494,639
488,495,490,492,632
491,494,490,492,585
492,495,492,493,481
491,495,491,493,411
490,495,492,492,371
489,494,490,493,368
491,495,491,494,373
489,495,492,493,392
488,494,492,493,444
489,493,489,492,504
489,495,490,492,578
488,493,492,495,635
491,494,491,492,636
491,493,491,493,622
491,493,490,494,540
490,495,492,493,438
490,495,491,492,395
490,494,492,495,366
488,494,493,493,369
489,495,493,492,379
489,493,489,493,408
489,495,491,493,469
489,493,490,492,535
490,494,488,491,613
491,494,490,493,639
489,493,492,494,632
489,493,490,492,593
491,494,492,495,491
491,496,492,493,415
490,495,493,493,377
490,495,494,493,366
490,496,492,492,371
490,494,492,492,387
491,496,492,493,435
489,494,490,492,497
490,495,491,493,566
489,493,491,494,631
489,495,490,492,638
489,495,493,494,626
491,495,490,493,553
490,496,493,493,449
490,495,493,493,399
491,495,491,495,367
489,494,491,492,366
490,496,493,492,378
489,492,491,494,403
489,494,492,494,462
489,494,491,493,525
489,493,492,494,605
491,493,491,492,641
490,496,492,494,634
489,495,490,492,603
492,496,491,494,505
491,496,493,493,421
491,496,492,492,384
490,494,492,496,367
492,495,491,494,373
490,496,492,493,384
489,495,494,492,430
489,494,492,493,489
490,494,491,492,558
491,494,492,495,626
490,493,490,493,639
490,494,491,494,627
488,492,491,495,566
492,497,492,493,459
490,495,492,492,403
491,494,493,494,370
489,495,492,491,367
490,495,492,492,376
490,495,491,492,402
491,494,492,493,453
491,494,491,493,517
489,494,491,494,594
489,493,491,494,638
489,495,493,494,636
489,495,493,494,613
492,494,494,493,518
490,495,492,493,427
491,495,490,492,387
492,494,490,492,367
491,494,491,493,369
491,496,492,492,379
490,493,491,492,424
490,495,491,493,482
490,493,491,493,548
489,494,492,493,622
488,495,491,494,638
489,495,491,492,630
489,494,493,496,578
492,494,491,493,471
491,495,491,492,407
490,494,491,494,370
490,492,491,492,367
491,494,492,494,375
489,494,490,493,395
489,495,492,492,448
489,495,492,493,509
489,495,491,492,585
489,494,492,494,635
491,494,491,492,638
490,495,492,494,619
489,494,492,495,530
490,495,492,494,435
490,494,491,493,392
491,497,493,492,368
490,494,492,494,370
492,495,490,493,379
492,495,490,492,413
490,493,491,492,475
490,494,491,493,538
489,492,491,492,619
491,493,492,493,641
490,495,492,493,632
491,495,494,493,588
490,496,492,493,484
491,495,491,493,412
491,495,491,494,374
489,494,489,493,363
491,493,491,494,371
489,494,492,495,387
489,492,490,492,441
491,494,491,492,502
490,494,490,494,576
490,495,491,492,635
491,495,490,492,637
491,494,489,493,625
489,494,494,493,543
491,495,494,493,444
490,494,491,494,395
491,494,492,495,366
489,495,493,494,368
490,493,491,494,377
491,496,492,491,406
489,493,491,493,468
490,494,491,492,530
491,494,490,492,609
491,493,491,494,640
490,493,491,492,634
491,494,493,495,594
492,495,491,493,497
491,495,492,493,416
490,495,493,492,380
490,495,494,492,364
490,493,489,492,371
491,495,491,494,385
489,493,488,493,432
491,494,488,493,494
491,493,494,494,562
489,494,493,492,632
489,494,495,492,638
490,494,491,492,629
491,497,491,492,559
491,496,492,493,454
490,495,492,494,400
491,494,491,493,367
492,495,493,492,368
490,494,492,494,375
490,494,492,494,401
489,494,493,493,458
489,493,492,493,521
490,493,491,491,603
490,495,492,494,638
489,494,490,493,633
491,492,490,493,605
491,494,491,494,510
491,495,493,493,424
490,494,491,493,385
491,494,490,495,366
490,495,493,492,371
490,495,493,491,382
490,494,492,494,425
490,493,492,492,487
490,494,493,493,554
491,492,490,493,624
490,493,491,494,638
489,494,492,495,629
491,494,490,493,572
490,496,493,494,464
491,495,493,493,405
491,495,492,492,371
491,497,491,493,366
492,494,491,493,374
491,495,492,492,398
490,493,489,493,452
490,493,489,493,514
489,493,491,494,591
489,494,493,494,638
489,494,492,494,635
490,492,494,491,618
491,493,495,495,522
491,495,493,493,429
491,495,491,492,388
491,493,491,493,366
490,495,492,492,368
489,493,492,492,380
491,494,493,494,419
490,494,492,493,478
490,494,492,492,545
490,495,491,495,618
489,494,490,492,640
489,495,493,493,631
490,493,489,494,581
491,494,491,494,477
491,495,492,494,410
490,494,492,493,375
493,495,493,493,367
490,493,493,494,373
492,495,491,491,395
491,495,490,492,444
490,494,491,492,506
489,493,492,492,579
490,493,491,493,636
491,494,492,494,637
489,494,493,493,623
489,494,494,494,536
490,495,492,492,438
490,495,492,492,392
489,493,492,495,368
491,494,489,493,368
491,493,490,493,376
490,493,490,493,412
490,494,492,493,469
490,494,491,492,535
491,493,493,494,615
489,494,492,492,641
491,496,492,492,633
492,495,492,492,592
489,494,493,494,489
492,496,493,493,414
491,495,492,494,374
491,493,491,494,364
490,494,493,495,372
489,494,491,493,388
492,494,492,493,438
490,493,491,493,500
490,494,491,492,571
491,494,490,492,633
491,494,491,493,639
490,495,493,494,624
491,493,493,492,551
491,494,492,494,447
490,494,491,493,397
490,494,493,494,367
489,493,491,494,367
491,495,493,491,375
489,492,491,491,407
491,494,491,492,464
491,494,491,493,524
490,493,490,493,605
490,493,492,492,641
491,493,492,494,632
491,494,490,492,599
490,495,494,494,502
491,495,492,493,418
490,495,493,492,381
490,492,489,491,366
491,495,493,494,371
489,492,490,493,382
491,492,490,493,429
490,493,491,492,490
490,493,491,491,560
489,492,490,494,629
490,494,491,494,640
490,494,493,492,629
491,494,494,493,564
490,495,493,494,457
491,493,491,492,401
491,493,490,495,366
491,496,489,492,366
492,492,488,492,374
491,494,493,493,399
490,493,493,493,456
490,492,493,493,516
489,494,490,492,598
491,493,492,493,639
490,494,492,491,635
491,495,491,492,613
491,493,493,495,515
492,495,492,493,424
489,494,493,493,385
490,493,490,493,365
490,492,490,493,369
489,493,492,493,382
492,494,493,493,424
489,493,490,492,483
490,493,492,493,551
490,495,492,491,623
490,495,491,492,638
489,493,492,494,630
492,493,490,494,575
489,494,492,493,469
491,494,491,492,406
491,493,491,494,368
491,492,492,494,365
489,494,490,492,375
490,494,492,493,396
491,492,491,492,450
490,495,491,493,511
490,494,491,491,587
491,495,490,495,636
489,494,492,493,634
491,495,492,492,622
490,493,491,496,528
491,495,492,494,433
490,494,494,493,392
491,493,490,493,368
490,494,492,494,368
489,493,491,493,381
492,495,489,492,416
492,493,492,492,475
490,491,493,493,541
490,493,489,493,616
490,496,490,492,640
489,493,492,494,631
490,494,493,494,585
490,494,495,493,481
490,494,493,493,412
490,494,491,492,376
491,493,491,494,365
492,493,491,492,372
491,492,491,493,388
491,492,492,494,440
490,491,491,493,504
490,491,493,492,576
491,495,494,493,636
491,494,493,492,638
491,496,491,492,624
491,496,493,495,542
490,494,493,493,442
491,493,493,494,394
490,493,491,494,366
491,494,492,494,367
490,494,493,494,378
491,492,490,494,409
489,494,490,492,467
490,493,492,492,533
490,494,489,491,612
491,495,490,493,639
491,493,491,493,632
490,494,492,493,591
492,493,492,493,495
490,494,492,493,416
490,494,492,494,378
490,493,493,495,366
489,494,491,494,372
490,494,491,491,387
489,492,492,494,436
490,493,491,494,496
491,493,490,493,563
491,492,491,494,633
491,494,491,494,638
489,493,490,493,626
492,495,495,494,557
491,495,493,493,452
491,495,493,493,400
491,493,493,495,368
493,493,490,493,367
491,495,493,494,375
490,492,491,495,402
490,492,491,493,459
490,493,491,493,521
489,493,490,492,603
491,494,492,492,640
490,493,492,495,637
492,493,490,492,607
493,495,492,492,508
491,494,492,493,421
489,493,492,493,383
491,493,493,492,366
491,493,493,494,372
489,493,492,493,383
489,493,493,493,427
490,492,491,493,489
490,494,490,492,554
489,492,492,492,628
491,493,491,494,639
491,493,491,494,627
490,492,491,492,572
491,495,492,494,462
491,494,491,492,404
490,494,493,493,371
490,494,492,492,367
492,495,491,492,375
492,494,491,492,399
489,493,491,492,452
492,494,492,492,515
489,493,491,495,593
489,491,492,493,638
489,494,493,493,636
490,493,491,494,615
490,496,493,492,520
490,494,492,493,429
491,493,491,493,390
492,494,490,491,367
491,493,491,492,371
490,494,491,494,379
489,495,491,492,420
489,493,492,494,480
491,493,492,492,547
490,495,492,492,620
489,493,493,494,641
492,493,490,493,630
490,494,490,494,579
491,493,493,494,475
491,494,492,493,408
491,493,492,494,371
489,495,491,493,366
491,495,492,492,373
491,494,492,492,397
491,494,490,492,447
490,494,491,492,507
491,493,491,492,582
489,494,490,494,634
490,494,491,492,637
489,493,493,493,622
490,494,493,493,533
491,494,493,492,435
490,493,491,493,394
491,495,491,494,365
489,492,491,493,369
491,493,491,493,378
491,492,491,493,411
490,493,492,493,473
490,492,492,493,536
491,492,492,491,615
489,494,494,492,641
491,494,490,492,632
492,493,491,491,589
492,494,493,494,487
491,495,491,492,412
492,495,492,492,376
490,492,491,495,365
490,494,492,494,372
490,494,493,493,387
491,492,491,493,439
490,493,492,492,499
490,493,491,492,572
491,493,491,492,633
491,493,491,493,636
491,492,492,492,627
490,492,491,495,546
492,495,493,492,444
490,493,492,493,397
490,494,493,493,367
490,494,492,491,365
489,492,492,492,378
492,494,491,494,404
489,493,489,493,465
490,493,490,493,527
490,492,491,493,605
490,492,494,494,639
491,493,492,493,635
490,494,494,492,597
492,493,494,493,501
491,494,492,493,419
491,494,491,492,381
493,495,494,495,366
490,492,491,494,370
491,495,492,492,382
489,492,492,494,431
490,492,491,493,492
490,493,492,493,559
491,492,490,493,631
491,494,491,493,638
489,494,491,493,628
492,494,491,492,562
492,494,492,492,457
491,494,493,493,402
490,492,492,494,369
491,495,492,494,366
489,493,493,493,376
490,494,493,492,401
490,494,492,492,455
489,493,492,494,518
489,493,490,491,599
489,493,494,493,638
490,492,492,494,634
490,492,492,494,607
490,492,493,494,514
491,494,493,493,425
490,493,491,492,384
491,495,494,493,367
491,494,492,492,371
492,495,490,492,381
493,493,494,492,425
490,492,491,492,483
490,494,493,493,551
489,492,492,494,623
489,493,493,493,640
491,494,493,494,628
490,492,494,492,577
491,493,492,493,466
491,493,492,492,406
491,493,490,492,370
492,493,490,493,364
491,491,491,493,375
491,494,492,494,395
489,493,491,491,450
491,493,492,493,512
489,492,492,492,588
490,492,492,492,636
491,494,493,494,636
492,493,490,492,618
490,494,495,494,524
491,494,493,493,433
491,493,492,494,389
490,493,493,491,368
492,494,494,493,371
490,493,491,493,377
491,495,492,491,417
491,493,492,492,477
491,493,491,492,540
490,493,493,493,617
491,491,492,492,641
491,493,493,494,630
489,494,492,495,584
490,493,493,493,479
491,494,492,493,410
490,493,492,493,373
490,495,492,491,363
489,493,493,492,373
491,492,491,492,390
492,492,491,492,441
491,493,492,492,505
490,493,492,494,576
489,493,491,492,633
490,493,493,492,639
491,494,492,492,625
491,495,492,491,540
490,493,494,493,441
491,494,492,492,393
491,495,492,493,365
491,493,492,494,367
490,493,493,494,377
490,493,491,492,409
490,493,492,493,468
490,493,492,492,533
490,494,492,492,613
491,494,491,492,640
491,493,491,492,630
491,492,491,492,593
490,495,492,493,492
491,494,493,492,414
490,493,492,493,377
489,492,493,493,365
490,494,493,492,371
490,492,492,493,387
491,494,490,493,434
490,493,492,493,497
491,494,492,493,565
491,491,490,493,629
490,492,492,492,638
491,493,494,494,627
493,494,491,492,552
491,495,494,494,451
491,494,494,492,400
491,495,491,491,365
490,493,493,493,367
491,493,493,492,377
491,492,492,493,402
489,492,491,493,461
490,492,491,493,523
489,492,492,493,603
492,493,491,494,641
491,494,492,495,632
490,493,492,491,605
492,496,492,492,507
492,494,492,493,420
492,492,493,492,383
490,493,491,493,365
491,495,491,491,370
489,493,493,493,383
488,492,493,493,429
490,492,493,493,489
491,493,491,492,558
491,493,492,494,625
489,493,491,493,639
491,492,491,494,628
490,492,491,494,567
490,495,493,493,462
491,493,493,494,404
492,493,491,492,369
489,494,494,493,368
491,494,492,492,377
492,494,490,491,399
492,494,492,493,453
489,493,491,492,516
490,494,491,492,593
489,491,492,495,637
489,492,493,493,636
490,494,493,493,613
492,493,492,493,520
491,494,492,493,426
491,494,493,492,389
492,494,492,491,368
492,493,490,493,369
492,494,494,492,381
490,491,492,494,423
492,494,492,493,480
490,492,492,494,549
489,493,493,493,621
490,494,493,493,638
490,492,491,492,632
492,493,493,495,578
493,494,493,493,473
491,494,492,493,408
491,492,491,495,370
490,492,492,494,367
492,494,491,494,375
490,494,491,492,393
491,494,493,492,449
490,493,492,493,510
491,493,491,491,583
491,493,493,495,635
491,492,491,494,638
491,494,492,494,619
490,492,493,496,531
490,493,492,493,436
490,493,492,492,392
491,493,494,493,369
491,492,492,494,368
491,495,491,492,378
491,494,489,492,414
491,492,491,492,472
489,493,492,493,537
489,491,491,491,617
491,494,493,493,640
489,494,493,493,633
490,494,494,493,589
490,495,493,493,485
491,494,493,493,412
490,494,492,492,373
490,492,492,493,365
492,492,491,493,373
491,492,491,493,387
491,492,491,491,440
490,493,491,493,501
490,493,491,491,572
489,492,492,494,633
489,493,492,492,638
490,494,493,492,625
492,492,492,494,546
491,495,493,493,443
491,493,492,492,396
491,494,492,491,369
492,493,490,493,367
492,492,493,491,377
490,491,490,494,405
490,494,492,492,463
490,493,492,493,527
489,492,492,494,608
489,493,492,492,640
491,495,492,494,631
488,492,490,492,599
493,492,493,494,497
491,494,493,494,417
491,493,491,493,379
492,493,489,492,363
491,495,491,492,371
490,492,492,492,384
493,494,491,493,432
489,492,494,493,493
490,493,493,492,562
490,494,491,493,626
490,494,491,492,640
489,492,493,493,625
492,493,491,492,558
492,493,496,492,455
491,493,491,492,400
490,495,492,494,367
490,492,491,491,368
492,493,493,493,375
490,494,495,493,402
489,493,492,493,457
490,493,492,492,518
490,492,492,494,602
491,494,491,493,638
490,494,492,494,633
491,491,492,494,606
491,492,492,494,511
491,494,493,492,423
491,493,493,494,385
493,495,492,492,365
491,494,494,493,372
491,494,493,492,382
490,494,492,491,423
490,493,492,492,486
490,493,490,493,552
489,493,490,492,624
491,492,490,494,639
491,491,492,494,628
491,495,494,491,574
490,493,492,493,466
491,493,492,493,404
490,493,493,494,368
489,492,492,494,368
490,494,493,492,376
490,494,491,494,395
490,494,492,491,452
490,492,492,492,513
491,493,491,492,590
492,492,491,492,637
491,491,491,493,636
491,494,492,495,616
490,492,491,492,525
491,494,493,494,430
491,493,493,494,391
490,493,494,494,367
490,492,491,493,368
491,494,492,492,380
489,491,491,490,418
491,493,492,492,478
490,492,491,492,544
491,492,490,492,618
489,493,492,494,640
490,494,491,492,632
489,493,492,495,582
489,493,494,494,479
490,493,492,493,411
490,493,493,492,372
491,492,491,492,367
491,494,493,494,373
490,494,491,492,393
492,492,491,493,444
491,493,492,493,506
491,494,492,492,579
489,491,491,495,636
492,493,491,492,638
490,495,493,491,625
490,495,494,492,539
492,494,492,494,440
491,493,493,493,394
492,494,494,493,367
492,493,492,494,366
490,492,493,494,378
490,492,493,494,410
492,493,491,492,468
490,493,492,492,534
491,491,492,491,614
491,495,491,492,641
491,493,490,493,633
493,492,490,492,591
493,495,494,493,492
492,494,492,492,415
491,494,492,493,375
490,492,492,494,366
489,493,493,493,374
490,494,492,493,383
490,491,493,492,438
491,492,491,493,498
491,494,491,492,568
491,492,491,492,631
491,492,493,494,637
492,495,491,492,625
489,493,493,492,552
492,494,494,493,448
491,494,494,493,399
491,495,493,492,369
491,495,493,494,366
489,494,492,494,375
491,494,494,493,402
491,493,492,493,461
491,493,492,493,524
490,492,492,494,605
490,492,492,492,639
491,492,493,493,636
491,492,493,494,600
492,496,492,493,504
491,494,491,494,420
491,492,492,492,383
490,493,497,494,364
492,492,491,492,373
490,495,491,494,381
489,492,492,494,430
490,493,492,493,491
490,493,492,493,557
491,494,493,492,630
490,492,492,493,640
492,493,491,493,628
492,494,492,493,567
492,493,492,493,460
491,494,492,494,402
490,493,491,492,371
492,493,493,493,366
491,495,494,493,375
490,495,491,492,401
491,494,492,492,454
490,493,492,493,517
490,492,490,493,596
490,493,491,493,636
490,492,493,494,634
489,492,492,494,612
490,493,491,492,518
491,493,493,493,426
491,493,491,492,387
491,495,493,492,367
490,495,491,492,371
492,494,491,492,380
489,493,493,493,420
491,492,492,493,483
490,493,491,493,548
489,492,492,494,621
489,492,492,493,641
490,493,491,494,628
491,495,493,491,576
490,493,493,492,471
491,494,492,492,407
491,494,492,493,370
492,492,492,493,365
490,493,491,492,374
492,493,493,495,395
492,492,490,492,447
490,492,492,493,509
490,493,492,491,586
491,494,491,492,635
490,493,493,493,636
491,492,493,492,623
490,492,491,494,527
490,492,492,493,434
491,493,491,493,392
490,494,491,492,367
490,494,494,492,368
490,492,492,491,379
491,495,492,491,415
491,493,492,492,475
491,493,491,493,538
490,493,491,492,615
491,494,492,492,641
490,493,493,493,631
490,493,494,495,586
490,494,493,494,484
491,494,493,493,411
491,492,492,492,376
492,494,491,494,365
490,493,492,493,371
491,492,492,494,387
491,491,491,494,439
490,493,492,492,501
489,492,493,493,574
492,492,490,492,635
491,494,492,491,638
491,494,491,492,625
492,494,491,495,543
490,493,492,492,442
491,493,493,492,396
490,492,492,493,364
490,493,492,494,367
489,492,493,493,378
491,492,490,492,407
490,494,493,493,466
490,492,492,492,530
492,493,490,492,609
492,493,491,494,640
491,492,491,494,632
490,494,492,491,596
490,493,494,494,498
492,494,491,493,415
490,493,493,493,380
490,494,494,492,366
491,494,492,494,370
490,493,491,493,384
492,493,493,492,433
491,493,491,492,493
491,492,492,493,562
489,491,491,495,628
491,493,491,492,640
491,495,493,494,626
491,492,492,492,558
491,494,494,492,454
490,494,491,492,400
492,492,493,493,368
489,492,492,493,365
491,494,491,492,375
490,492,493,494,400
490,492,493,493,458
490,492,492,493,520
490,494,492,493,600
490,492,492,492,640
491,493,492,493,635
492,492,491,493,604
492,492,492,494,510
491,493,492,493,422
491,494,492,492,384
489,493,493,492,366
492,492,493,492,371
491,495,493,492,383
491,494,492,492,427
491,494,491,493,485
491,493,491,493,552
490,494,493,492,624
491,492,492,493,638
490,493,493,494,629
489,492,494,494,572
492,493,492,493,463
491,494,492,493,405
490,494,491,491,370
491,495,491,492,366
492,492,491,493,374
491,492,490,492,396
491,495,493,492,450
490,492,492,493,514
491,492,492,493,590
489,492,494,493,638
490,493,492,492,637
491,494,493,494,614
490,495,492,493,522
491,493,493,493,429
492,493,492,493,387
490,492,492,494,365
490,492,493,495,370
492,493,491,493,380
490,493,490,493,417
491,493,492,492,478
490,493,493,492,545
491,494,491,492,621
492,493,492,492,640
491,492,491,494,632
492,494,493,494,580
491,493,493,493,476
491,494,492,494,409
490,492,493,493,374
490,493,490,492,364
490,494,492,491,374
489,492,493,494,394
492,493,491,492,444
491,493,492,493,506
491,491,491,493,581
490,494,492,494,634
489,493,491,492,637
492,494,493,491,623
490,495,494,492,536
491,494,493,493,440
491,493,492,494,392
492,493,492,492,367
490,494,494,494,367
490,492,492,493,377
490,492,493,494,410
490,492,492,492,471
491,493,493,493,535
490,491,491,493,614
490,494,489,491,640
492,494,491,492,632
492,493,490,492,591
493,493,492,493,489
491,493,493,492,413
491,492,492,492,378
492,491,491,494,364
490,493,493,493,372
490,493,493,493,388
490,491,491,493,435
491,493,492,493,499
490,492,493,492,570
492,492,491,492,632
491,492,491,494,637
490,492,492,492,627
492,495,494,495,548
491,494,493,493,448
491,493,493,493,397
491,494,494,491,368
490,494,493,492,368
490,493,492,493,375
492,493,491,493,405
490,493,490,492,462
491,492,491,492,523
490,491,492,494,604
490,491,492,494,639
490,493,491,492,632
491,494,493,493,598
492,492,492,491,502
491,494,493,492,419
491,493,492,492,383
492,494,490,495,365
490,494,491,493,370
491,494,492,491,384
490,491,491,494,428
490,492,492,493,491
490,492,492,493,559
492,492,490,492,628
491,494,493,494,639
489,492,490,492,628
493,494,491,492,563
493,493,492,493,458
492,493,493,492,403
491,493,492,494,366
493,495,491,493,367
491,494,494,493,375
491,494,493,491,400
490,494,492,492,456
491,492,491,493,516
490,492,491,492,597
492,492,493,492,639
491,491,491,494,632
490,492,493,494,609
490,492,493,494,517
492,494,492,493,424
490,493,493,493,386
491,492,493,491,367
491,494,491,491,370
492,493,491,492,381
493,493,494,493,423
490,492,491,492,482
490,493,492,492,549
490,491,491,494,620
489,493,493,493,640
490,494,493,492,629
491,492,490,492,578
492,495,493,494,469
491,493,492,492,407
492,493,491,492,369
493,493,492,493,364
490,492,492,494,374
493,494,491,491,394
489,492,493,492,449
491,492,492,492,510
490,493,492,491,587
490,494,492,492,636
492,492,493,492,636
490,492,491,493,619
491,494,493,492,527
492,493,492,492,432
491,493,492,493,390
489,492,492,495,369
492,492,490,492,369
490,494,492,493,377
490,495,491,491,416
491,493,490,492,474
490,492,490,493,539
491,493,493,492,617
491,492,492,493,640
492,493,490,494,631
490,493,493,494,585
491,494,494,493,482
491,493,493,493,412
491,494,491,494,372
490,495,492,492,366
491,494,493,493,373
492,492,492,493,388
491,491,491,493,440
490,492,492,493,504
491,493,491,493,574
489,492,490,492,634
491,493,492,492,639
492,494,491,491,625
492,495,492,492,543
492,493,492,494,441
491,493,492,492,394
491,494,492,493,366
491,492,491,494,366
489,493,492,493,378
490,492,493,492,408
492,492,491,492,466
490,492,492,493,530
491,493,490,491,611
492,493,490,492,638
491,492,491,494,631
490,491,492,494,596
492,496,492,494,494
491,493,493,492,416
492,493,493,492,379
491,494,494,492,365
491,494,492,492,372
492,492,492,493,383
493,493,490,492,433
490,494,491,492,495
491,492,491,492,562
490,492,491,494,628
490,492,493,492,639
492,492,493,492,627
490,492,491,494,554
492,494,492,492,452
491,494,493,492,399
491,494,491,492,369
489,493,494,493,365
491,492,491,492,376
491,494,491,495,401
490,492,492,493,459
490,493,492,493,521
490,493,493,493,603
490,491,490,493,637
491,494,491,492,634
490,493,493,492,605
493,493,491,493,507
491,493,493,493,421
491,493,492,492,386
492,495,492,495,365
490,493,491,493,370
491,495,493,492,383
490,495,492,491,427
490,494,492,492,486
490,492,492,493,554
492,491,492,493,625
490,493,490,494,638
490,493,492,494,628
489,492,493,495,569
490,493,491,492,464
492,493,492,492,403
491,492,492,493,371
491,495,492,491,367
492,494,490,491,374
492,493,491,492,398
492,491,491,492,452
490,493,492,492,512
491,492,492,492,594
490,493,492,493,638
490,494,492,492,636
491,494,492,491,617
491,492,492,494,521
492,495,493,493,429
490,492,491,493,388
491,493,491,492,365
490,493,493,494,369
490,492,491,492,381
492,493,494,494,419
491,492,492,492,481
491,493,491,491,547
491,494,491,491,621
491,493,491,492,641
490,493,492,493,629
491,492,493,492,582
491,492,492,493,474
491,493,492,493,407
490,493,493,494,372
489,492,493,493,366
491,491,491,493,374
491,494,492,494,392
489,492,491,491,446
491,493,492,492,507
491,492,492,493,580
491,491,493,492,636
492,493,493,494,636
492,493,491,494,623
490,494,494,493,534
492,494,494,493,437
491,494,493,493,392
491,492,492,491,368
492,494,494,493,369
491,491,492,494,376
491,492,492,494,410
489,492,492,493,470
490,492,491,492,536
490,493,493,492,613
491,492,492,492,642
491,493,490,492,632
492,493,490,492,589
493,494,492,493,488
492,493,492,492,413
491,493,492,493,373
491,495,493,493,365
490,493,492,493,372
490,494,493,493,386
490,493,493,492,437
491,492,491,492,500
491,493,492,494,569
489,492,490,492,633
491,492,490,493,636
490,492,492,494,624
489,495,492,492,550
491,493,493,493,446
491,493,494,493,398
491,494,492,492,368
491,494,491,492,367
492,495,491,494,377
491,493,490,492,404
492,493,492,493,464
490,493,491,493,526
490,492,491,494,605
490,492,493,493,639
490,494,493,492,632
491,491,491,492,600
491,495,493,494,500
491,494,491,492,418
492,493,492,492,381
492,493,491,492,364
491,493,491,492,373
490,491,491,494,384
491,492,491,494,431
490,493,493,492,492
490,493,492,492,559
490,493,493,494,626
490,492,489,492,638
492,494,493,493,628
491,492,490,494,561
492,493,492,493,456
492,494,492,493,401
492,493,491,492,368
490,493,493,493,365
491,492,493,492,376
492,494,492,491,401
492,493,491,491,455
491,493,492,492,517
491,492,492,492,597
492,492,490,493,638
491,494,492,494,633
490,493,493,494,607
490,493,494,493,512
491,493,493,493,423
491,492,492,492,385
492,492,491,494,364
492,493,490,493,368
492,492,491,493,378
492,492,491,493,420
491,493,492,493,482
491,493,491,492,549
491,492,493,494,622
490,493,492,492,638
491,494,492,491,629
492,494,493,495,573
490,494,492,492,467
491,493,493,493,404
491,492,491,494,367
491,491,492,494,364
490,493,493,495,373
491,493,493,492,395
492,492,493,491,449
490,492,492,493,509
491,492,492,491,588
492,492,491,492,634
491,493,490,494,634
491,494,492,491,616
491,492,491,492,527
491,494,492,493,432
491,492,493,493,390
491,493,493,493,366
491,493,492,493,368
490,494,491,491,379
490,492,493,494,417
491,492,491,492,476
491,492,491,492,539
491,492,491,493,620
491,493,490,494,640
490,493,490,494,630
491,494,494,493,586
492,494,492,493,481
492,493,493,492,411
491,494,493,492,374
490,493,494,493,363
492,493,492,492,374
491,496,493,494,389
490,492,493,493,441
491,492,492,493,502
490,493,491,493,575
491,494,493,492,634
490,492,493,494,638
492,493,491,493,624
493,493,492,492,540
492,493,492,492,441
491,494,493,493,394
490,492,492,491,369
491,492,493,493,368
490,492,493,492,378
490,493,493,492,408
489,491,491,493,467
491,492,491,492,530
490,492,492,492,612
492,492,491,494,639
492,492,492,494,631
491,492,492,494,591
490,492,492,492,496
492,493,492,493,415
492,493,491,493,380
490,494,493,492,367
492,495,492,492,372
492,494,492,493,385
489,492,492,492,434
491,492,493,492,495
489,492,492,493,564
490,491,491,493,628
490,491,493,493,638
489,491,492,493,625
491,495,492,492,551
491,493,493,492,452
490,493,491,492,400
492,493,491,491,369
492,492,491,492,368
490,494,491,493,375
490,494,493,491,404
489,492,492,493,461
490,492,490,493,521
490,493,493,492,603
490,494,494,492,638
490,492,492,492,634
492,493,493,494,603
490,493,491,493,507
492,494,491,492,421
492,493,492,493,383
490,494,492,492,368
490,494,493,493,371
491,492,492,492,384
490,494,492,492,429
491,493,492,492,487
491,493,491,493,554
489,490,490,492,625
492,495,493,492,639
490,492,492,494,628
489,491,492,494,568
490,493,493,493,462
491,493,492,492,404
491,493,493,493,367
491,491,493,491,368
492,493,490,492,377
492,493,488,492,399
493,493,490,492,452
491,492,492,492,515
491,492,492,493,594
492,494,492,493,637
490,493,493,492,635
491,494,492,491,615
490,495,494,494,519
491,493,492,492,428
491,493,493,493,388
492,493,491,492,367
491,492,491,494,369
491,492,492,494,380
492,494,491,492,421
490,492,492,491,480
490,492,493,492,547
490,494,491,492,621
491,493,490,491,638
492,493,493,493,629
490,491,490,493,577
491,495,493,492,472
491,493,492,493,407
491,492,492,494,371
490,492,492,493,366
490,494,493,494,374
491,491,491,492,396
491,490,491,494,445
491,493,492,493,508
492,493,490,492,580
491,493,491,493,632
491,493,492,492,635
490,493,492,492,620
492,493,494,494,533
491,493,493,493,436
490,494,492,492,393
491,495,493,495,366
490,494,490,493,369
490,494,493,493,377
492,491,491,493,411
490,492,491,493,470
490,493,491,493,535
490,492,490,493,614
490,493,490,493,636
490,494,491,492,631
491,493,491,492,589
493,495,489,492,486
492,494,493,492,413
490,493,493,492,374
492,492,490,491,365
491,494,492,494,373
489,492,492,494,387
489,493,493,492,437
490,493,491,493,499
491,493,492,492,570
489,492,493,494,632
491,493,491,494,635
491,491,491,493,622
491,492,491,494,548
491,494,492,494,448
491,492,491,492,397
491,493,495,493,369
490,494,493,491,370
492,495,492,492,378
492,493,492,494,405
492,492,491,492,463
490,492,492,492,525
490,490,491,494,605
490,491,490,494,637
490,493,492,493,632
490,494,491,492,597
493,495,491,492,501
491,493,491,493,419
