Sensor0,Sensor1,Sensor2,Sensor3,Sensor4

491,493,492,494,402
490,493,493,494,368
489,493,493,7492,492
492,492,367,9,491
492,491,494,571,491
493,492,493,466,492
493,492,492,404,491
493,493,493,368,492
492,492,492,367,492
495,492,491,374,492
494,491,492,397,492
494,492,494,451,490
494,491,492,513,490
493,492,492,591,491
491,491,493,637,490
493,493,493,636,490
493,493,494,619,494
493,490,493,523,491
494,492,493,429,491
494,492,492,390,492
495,491,491,367,492
493,491,493,368,492
493,492,493,381,491
492,490,494,418,492
494,492,494,479,491
492,491,493,545,490
493,492,494,620,490
494,492,492,642,491
494,492,494,631,490
494,492,492,584,490
493,493,494,478,492
493,491,493,408,492
493,491,494,370,491
492,491,494,367,492
493,490,494,372,490
493,491,493,392,493
494,493,493,445,491
493,491,493,506,491
494,492,492,581,492
492,492,495,636,493
493,491,493,638,491
494,493,495,623,491
492,491,495,536,491
493,491,493,437,491
492,492,493,394,492
493,493,494,366,491
493,491,494,367,491
494,491,492,378,491
495,491,491,411,492
493,491,492,470,490
492,491,493,537,490
493,492,493,613,491
492,491,493,643,491
492,492,494,634,490
493,493,494,591,490
494,494,494,490,491
494,492,493,414,490
494,492,492,373,489
492,492,493,366,492
492,490,494,371,492
493,491,494,384,491
492,492,493,439,491
493,490,493,499,491
494,491,493,571,490
493,493,494,635,492
494,492,493,640,492
495,491,492,628,490
492,492,495,551,493
494,492,494,445,491
493,491,493,397,491
492,491,493,366,492
492,491,494,365,490
492,492,494,375,490
493,489,492,405,490
494,492,493,464,491
493,492,493,527,491
494,492,492,610,491
495,492,492,641,491
493,491,494,636,491
494,490,492,599,492
495,493,493,503,491
493,492,493,418,491
493,491,493,380,490
492,492,495,365,492
492,491,494,372,491
494,491,494,381,490
491,491,493,431,491
493,491,493,493,491
493,490,492,559,492
492,493,493,630,491
492,491,494,639,492
494,491,492,629,490
493,493,495,564,491
494,492,493,457,491
494,492,492,401,491
494,492,494,366,491
492,490,492,365,493
494,493,493,375,491
492,491,493,398,491
492,491,493,455,492
493,491,494,517,491
493,490,493,600,490
493,493,493,640,491
492,492,493,640,492
494,490,492,613,492
496,492,492,516,491
494,492,493,424,490
493,491,493,385,491
494,494,493,365,491
492,491,494,369,491
492,492,493,379,489
492,492,494,423,491
492,491,494,484,491
493,490,493,550,490
494,492,492,626,491
493,491,492,642,492
493,490,493,631,492
493,490,493,576,491
494,493,493,469,491
494,492,492,406,491
494,492,494,368,489
492,493,494,366,490
494,493,493,373,490
494,491,494,394,490
494,490,492,449,490
492,491,493,513,491
492,491,493,588,492
492,490,494,636,491
492,492,495,639,492
493,491,494,621,490
492,490,493,529,492
493,493,493,433,490
493,492,493,392,491
495,492,492,367,491
492,492,495,369,492
493,490,493,378,490
493,493,493,414,491
492,491,492,475,490
492,490,493,540,490
492,492,494,617,490
493,491,493,642,492
494,492,492,634,491
492,491,495,590,492
494,491,493,482,492
494,491,492,411,491
493,491,493,374,489
493,493,494,363,490
492,491,492,373,491
493,492,494,388,489
492,492,493,441,490
493,492,493,502,490
492,491,494,575,491
494,491,492,635,489
493,492,493,639,492
492,490,494,625,493
492,490,494,540,490
493,491,493,443,491
494,492,494,395,490
493,490,492,367,489
493,493,492,368,491
494,493,492,378,491
495,491,492,408,492
494,491,493,467,491
493,492,493,531,491
492,493,493,613,490
492,492,495,641,490
492,492,495,633,490
494,493,495,594,489
493,491,493,495,490
493,491,493,414,491
493,492,492,379,492
495,492,493,365,493
493,490,493,370,492
492,491,493,386,490
494,490,494,433,491
494,491,493,495,490
492,492,494,568,489
493,493,494,632,491
494,492,492,640,490
492,492,495,629,492
495,491,495,554,491
494,492,493,452,491
493,491,493,398,491
492,491,494,365,491
492,492,494,365,489
493,490,493,376,491
493,493,492,400,491
492,491,493,462,491
493,492,493,524,492
493,490,492,605,492
494,491,494,641,491
494,492,495,635,491
495,492,492,607,490
492,493,495,508,491
493,492,493,421,490
492,492,493,383,492
492,490,493,367,491
494,491,495,369,490
493,491,493,383,493
494,490,493,428,492
493,491,492,487,491
492,492,492,557,491
491,491,494,626,491
493,491,492,640,490
493,493,494,632,491
493,494,493,571,491
495,492,493,462,491
493,492,494,403,490
493,491,492,369,492
493,493,493,365,491
492,491,494,373,491
492,491,495,395,490
493,491,494,452,491
493,491,493,515,490
493,492,493,594,491
492,493,493,641,491
493,491,492,638,492
494,490,492,617,493
495,494,494,521,490
494,491,493,428,491
494,492,492,386,490
492,491,495,365,490
493,492,493,370,490
493,493,493,379,492
493,490,493,422,491
493,491,493,480,491
493,492,493,550,492
493,490,493,623,493
492,490,494,641,491
492,492,494,631,491
494,492,492,580,491
493,493,493,475,492
494,492,494,408,491
493,493,492,372,490
494,493,492,365,492
494,493,495,372,489
493,490,491,394,489
493,493,493,445,491
492,491,493,509,491
492,491,494,582,490
492,491,494,638,492
493,491,493,640,490
493,491,494,622,492
495,493,492,535,492
494,492,493,437,492
494,491,492,392,492
493,491,495,366,492
492,491,493,368,491
494,492,494,375,490
491,492,495,412,490
493,491,494,472,491
493,492,493,537,490
494,491,494,615,492
495,492,492,643,491
493,493,494,634,492
492,490,493,591,493
493,491,493,487,492
494,492,492,414,490
494,491,495,374,490
491,491,493,365,492
493,493,493,374,490
494,492,492,389,491
495,492,492,439,491
492,491,493,500,491
493,490,493,572,490
493,493,492,634,491
492,491,495,638,490
492,491,494,626,490
493,492,492,548,492
494,491,494,446,491
493,491,492,395,490
495,493,492,368,491
494,491,492,368,492
494,491,492,375,492
493,490,492,405,490
494,492,493,464,491
493,491,492,527,491
492,491,495,609,490
492,492,494,641,491
494,492,492,635,492
492,492,494,598,491
495,491,493,498,492
493,492,493,417,492
493,491,492,380,493
493,490,492,363,492
492,492,492,372,491
495,492,494,381,490
495,490,492,431,490
493,492,494,494,490
493,491,494,563,491
494,492,493,631,491
493,493,495,642,492
494,490,494,629,489
493,490,493,560,492
494,492,493,456,491
493,491,492,400,492
493,492,494,366,491
495,491,493,367,490
493,493,493,374,492
493,490,493,402,491
493,491,493,457,491
492,491,492,520,491
493,490,494,599,489
492,490,493,640,491
494,492,492,637,490
492,492,495,608,490
492,493,494,513,491
493,492,493,422,491
493,491,493,387,491
494,493,493,365,490
492,491,492,370,492
493,491,493,382,492
493,490,493,424,492
493,493,493,485,491
492,491,494,552,491
494,491,492,624,490
494,492,494,641,491
494,493,493,632,491
494,493,492,575,491
495,493,494,467,491
494,492,492,406,492
493,492,494,366,493
493,491,493,365,491
492,491,494,372,491
493,491,494,394,492
494,491,492,450,490
492,492,493,513,491
493,492,493,591,490
493,493,493,639,491
493,491,491,637,492
494,493,494,618,490
493,490,493,526,491
493,492,493,430,491
493,492,494,389,491
492,491,495,365,490
492,492,493,369,492
493,491,493,380,491
494,490,493,415,491
494,492,492,478,490
493,491,493,545,491
493,489,492,621,492
493,490,493,640,491
494,492,493,633,490
492,491,492,587,493
495,493,494,478,491
493,491,493,410,490
493,493,493,373,489
494,491,494,363,490
494,491,492,374,490
494,493,495,391,493
493,491,494,444,492
493,492,493,505,492
493,491,495,580,491
495,492,496,637,491
494,491,494,639,493
495,493,493,626,491
495,494,493,541,492
495,493,494,440,492
493,492,494,392,492
494,491,493,366,490
494,493,494,365,491
492,492,494,376,490
491,491,495,408,491
493,491,493,468,491
494,491,493,534,492
493,492,493,615,493
492,492,494,643,492
495,492,492,635,493
494,491,492,595,494
495,492,493,491,491
494,492,493,415,492
492,492,492,377,492
492,491,494,363,490
493,492,495,371,490
494,493,494,385,490
494,491,493,435,491
493,493,494,499,492
493,492,492,570,492
495,492,493,635,493
494,491,493,640,493
493,490,493,628,490
495,491,494,551,492
494,492,493,449,491
493,492,494,397,491
493,493,495,367,490
493,493,493,368,491
494,492,492,373,491
492,492,492,405,492
494,492,494,460,491
493,491,492,524,491
492,490,493,606,492
492,490,495,640,491
495,492,492,636,490
493,493,496,604,493
494,491,493,504,491
493,492,493,420,490
494,492,492,384,492
495,492,495,364,490
494,491,493,371,492
494,493,493,382,492
492,491,494,428,490
492,491,493,491,491
493,491,494,558,492
493,490,491,628,490
493,492,494,641,491
492,491,491,631,493
495,493,491,569,493
495,493,494,462,492
494,492,493,404,492
494,494,494,368,493
492,491,494,367,492
495,492,495,373,490
493,493,496,398,490
493,493,495,455,491
493,492,493,516,491
493,493,494,599,492
492,491,495,640,492
495,492,493,637,493
494,492,494,616,494
494,491,493,519,492
494,493,493,426,491
492,492,492,389,492
495,491,495,364,490
493,493,494,370,490
493,493,493,381,490
494,490,494,419,491
494,492,493,483,490
492,491,494,550,492
493,490,492,623,493
492,492,494,641,491
492,492,495,631,491
493,492,492,581,493
495,494,494,472,492
494,492,493,407,491
495,494,493,371,490
496,493,493,367,491
494,491,492,374,490
493,492,495,394,493
492,491,493,447,491
493,492,493,509,492
493,492,494,584,490
491,492,496,638,490
494,491,493,637,492
494,493,493,624,492
492,491,495,532,492
495,494,493,434,491
495,492,493,393,492
494,491,492,366,491
494,494,493,368,492
493,493,493,380,491
492,492,495,413,490
492,492,493,473,490
492,492,494,541,490
492,492,494,617,492
492,491,493,643,491
494,492,495,634,490
493,491,492,589,493
494,492,493,485,492
493,492,492,412,491
493,493,492,375,491
492,491,494,363,492
494,491,492,371,490
494,493,493,388,489
494,493,493,440,490
493,492,493,501,492
493,492,493,576,492
494,493,495,636,491
493,491,494,638,491
492,492,495,625,492
493,492,496,544,491
495,494,493,444,491
493,492,493,396,492
493,490,493,366,490
494,493,492,368,491
495,492,492,377,491
494,491,492,408,492
494,492,494,464,491
493,491,493,529,490
493,492,493,609,491
493,492,495,640,491
493,493,495,635,490
493,493,495,598,493
494,491,494,497,491
493,492,493,417,492
494,491,492,379,491
496,492,492,365,492
494,492,494,372,493
494,493,493,383,492
492,491,494,434,491
493,492,494,495,491
493,492,494,563,490
492,493,495,631,490
493,492,494,639,491
492,492,491,629,491
492,492,496,558,492
494,492,493,453,492
494,492,492,400,491
493,491,493,368,492
492,491,494,367,491
494,492,494,374,489
493,491,492,402,492
493,493,493,458,490
493,492,494,521,490
494,493,493,604,491
492,492,494,639,492
493,491,493,637,490
494,493,493,606,493
493,492,494,509,492
494,493,494,422,491
491,492,492,385,493
495,493,495,365,490
493,491,494,369,491
494,493,492,382,490
495,493,492,426,491
494,493,492,486,490
493,491,493,553,491
493,491,494,626,490
494,491,494,639,491
493,492,494,628,489
492,493,495,571,490
493,493,494,466,490
494,491,492,403,491
494,493,492,367,491
491,492,491,366,492
494,491,492,374,492
493,491,492,397,492
492,490,493,452,490
493,492,493,513,490
493,491,492,595,489
492,492,493,638,490
494,493,492,638,491
495,494,492,620,491
492,492,495,524,492
495,493,494,430,491
493,491,492,388,492
493,490,492,365,491
492,492,494,368,489
492,491,492,380,492
492,492,494,418,491
493,492,493,480,491
493,492,492,546,491
494,492,492,622,491
494,492,492,642,492
493,490,494,632,490
494,491,493,582,492
494,493,493,477,492
493,491,492,407,490
493,492,495,370,490
492,493,495,366,493
493,490,493,373,490
494,493,495,390,490
491,491,492,445,491
494,491,492,506,491
493,491,492,580,491
492,493,493,637,491
493,492,494,636,492
494,491,492,623,490
492,493,494,536,491
494,493,493,438,490
493,493,493,393,491
492,491,492,367,491
494,492,494,368,489
494,490,493,377,492
494,490,492,409,492
493,492,493,470,491
493,491,493,535,492
494,490,492,613,490
493,494,494,643,492
493,492,492,635,492
495,492,492,592,491
495,492,493,490,491
493,492,494,412,490
493,491,492,375,490
493,494,493,363,491
492,492,494,370,490
492,493,494,384,489
492,492,494,438,492
493,491,493,499,489
493,491,493,570,490
493,491,492,635,492
494,490,491,639,491
493,490,492,627,492
493,493,493,551,491
493,491,492,447,490
493,492,493,396,490
492,491,494,366,489
493,492,493,367,489
493,492,493,377,490
493,490,493,402,490
494,491,492,463,490
492,491,493,527,491
492,489,491,606,491
493,491,493,640,490
492,492,494,637,492
494,491,495,599,490
492,492,493,503,491
492,491,492,418,490
493,491,491,381,490
494,493,492,365,491
492,491,493,369,492
493,490,492,382,489
493,493,493,429,491
492,490,492,491,491
493,491,494,558,489
492,491,492,630,492
492,493,493,641,490
492,491,494,628,492
494,492,491,565,491
494,491,492,457,491
493,492,492,401,490
493,490,492,367,490
493,492,492,364,490
492,492,492,375,491
492,491,494,398,489
492,492,493,454,490
493,492,493,516,490
491,490,493,597,490
494,492,491,639,490
493,492,492,636,492
492,490,492,611,492
493,491,493,514,491
493,491,493,426,490
493,491,493,384,489
494,491,491,366,490
493,492,492,370,491
494,492,492,380,490
494,492,492,423,490
492,491,493,483,491
493,491,493,550,490
492,490,493,623,491
492,491,494,640,490
492,492,493,629,489
492,493,495,577,489
493,491,492,470,491
493,492,492,405,490
492,491,492,370,491
495,491,491,365,492
493,491,492,373,491
493,490,493,395,490
493,490,492,446,490
493,492,492,511,490
492,490,493,586,489
492,492,494,637,489
493,492,492,638,490
492,491,494,622,491
495,492,494,527,490
493,492,493,433,492
494,491,491,390,492
493,490,492,365,491
492,492,491,370,491
492,491,493,377,492
494,490,492,415,490
492,491,493,475,490
493,492,492,541,490
494,492,492,619,490
494,491,494,640,490
493,490,493,631,491
494,494,494,587,492
493,491,493,481,491
494,491,493,409,490
493,492,495,373,492
494,490,492,364,490
494,492,493,370,490
491,491,492,392,491
494,490,492,441,491
494,492,493,503,491
493,492,494,576,490
493,490,493,633,491
494,493,492,638,490
493,492,494,625,490
492,493,495,541,490
493,492,494,442,490
493,490,492,394,490
494,491,493,364,490
493,491,492,369,492
494,490,492,376,492
493,490,491,407,491
492,491,492,467,490
492,492,492,529,490
492,491,492,613,491
494,492,494,641,490
493,492,492,634,490
494,493,492,595,490
495,491,494,494,491
494,491,492,414,490
493,493,494,377,492
492,490,492,363,492
491,491,493,369,490
492,492,494,386,492
494,490,494,433,490
493,491,493,496,491
493,492,493,568,491
494,491,492,632,492
494,491,492,639,492
493,493,494,628,492
493,490,492,556,491
494,492,493,451,491
493,491,493,398,490
492,492,494,365,490
493,492,494,367,490
493,490,493,376,492
494,492,492,403,490
492,491,494,462,490
493,491,492,524,492
494,490,492,604,492
493,491,493,642,490
494,492,494,634,490
492,491,491,607,491
492,492,494,507,491
493,491,493,420,491
493,492,493,384,490
493,490,493,364,491
494,491,491,368,490
493,492,493,382,493
493,489,492,426,491
492,490,492,487,490
492,491,492,557,490
493,490,494,625,490
493,491,492,641,490
493,493,493,631,491
494,493,493,570,492
495,493,493,462,491
494,492,493,403,490
492,492,491,368,493
494,493,494,365,491
492,491,494,372,491
492,491,494,394,490
492,492,493,451,491
493,491,493,515,490
493,492,493,594,492
493,491,492,640,491
494,491,492,637,492
494,490,491,616,492
495,491,495,521,491
493,491,492,427,492
493,492,493,387,491
492,490,493,364,491
492,491,494,368,490
493,492,493,378,493
493,490,492,420,490
493,492,492,480,490
492,491,493,548,491
493,490,492,623,491
493,490,492,640,492
493,490,493,630,491
494,493,494,582,492
493,491,493,474,490
494,492,493,408,490
493,491,494,370,490
492,492,493,365,490
494,493,493,372,490
492,492,491,394,491
492,492,494,444,491
494,491,493,508,492
493,490,492,581,492
492,490,493,634,491
494,491,492,637,489
493,492,492,623,492
494,493,494,533,490
493,492,493,435,490
493,492,492,392,490
495,491,494,364,490
494,490,492,368,490
493,493,494,377,492
493,490,492,412,492
493,491,492,471,491
493,490,493,534,490
491,491,492,618,491
494,492,493,642,490
492,491,494,632,491
494,493,492,591,491
495,492,492,487,491
494,492,492,412,491
492,492,494,376,493
494,490,493,363,490
494,491,494,371,491
491,491,494,385,490
492,491,494,436,489
492,491,493,502,491
492,491,492,572,491
492,490,493,635,491
494,491,492,640,492
494,490,492,626,494
495,491,492,548,491
494,493,492,446,491
493,492,492,395,491
492,492,494,365,490
492,492,494,366,489
493,492,493,376,490
493,494,492,405,491
491,491,493,464,491
493,492,493,526,490
493,491,492,610,492
493,490,493,640,491
492,491,493,633,490
492,492,492,601,491
492,491,493,499,491
494,492,492,416,490
493,492,493,380,490
493,493,493,365,491
496,492,492,369,490
493,492,492,384,492
495,493,493,430,490
492,491,493,493,491
493,491,493,560,490
494,490,493,627,490
496,491,492,641,490
496,492,493,627,491
495,491,493,562,491
496,494,493,457,491
493,492,492,401,492
492,491,492,368,492
492,493,494,367,490
491,491,493,372,491
494,493,492,398,489
493,491,494,457,491
495,491,494,518,491
494,493,494,601,492
494,490,493,641,492
497,492,494,635,490
496,491,492,612,493
496,491,493,513,492
494,492,492,423,492
490,492,492,386,491
490,489,493,365,491
493,491,494,369,489
493,493,493,381,489
494,493,492,424,490
496,493,492,484,490
495,492,492,553,491
494,491,493,622,491
493,491,493,640,491
492,490,493,629,491
491,490,493,573,491
490,492,493,468,491
492,491,493,405,490
495,491,492,368,492
497,493,492,367,491
500,492,491,374,491
502,491,491,396,491
498,492,494,448,491
493,491,492,511,490
491,492,493,588,490
489,491,494,637,490
495,491,493,636,490
498,493,494,620,492
500,494,494,527,491
502,492,493,431,491
501,492,493,391,491
498,491,492,368,492
484,490,492,366,490
479,493,492,378,492
489,490,492,418,491
493,492,494,476,490
492,492,493,543,490
494,492,493,619,490
497,492,492,642,491
499,493,495,632,492
502,491,492,583,490
501,494,494,481,492
501,493,493,411,492
499,492,493,372,492
500,492,492,366,491
497,493,495,372,490
491,491,493,391,490
493,493,493,443,490
497,491,493,505,490
507,493,492,579,489
505,492,495,636,492
497,490,493,638,490
497,492,494,624,491
503,491,495,540,492
506,492,493,441,491
497,492,493,394,491
494,493,495,366,493
492,492,494,368,491
493,493,493,378,491
496,493,493,411,492
499,492,493,468,491
489,492,495,533,490
495,491,495,612,492
484,492,494,642,490
487,492,495,635,490
504,493,496,594,490
509,493,494,493,491
507,492,493,416,491
498,490,492,375,490
479,491,492,365,492
494,491,493,372,492
503,492,494,384,492
508,495,495,437,490
514,495,496,500,492
510,495,494,569,489
499,497,496,633,491
503,496,496,642,492
518,496,494,628,491
523,496,496,558,494
533,497,497,452,492
529,494,493,398,491
492,489,492,365,491
480,487,492,364,490
478,490,493,373,491
479,489,491,403,490
485,490,492,460,491
479,491,492,524,491
478,490,491,606,492
479,489,492,639,491
488,492,493,636,491
499,491,495,601,491
509,494,495,504,492
511,494,497,420,492
504,495,498,384,492
504,496,498,365,492
507,494,496,374,492
519,495,497,383,488
532,493,495,432,491
539,493,493,492,492
526,490,493,557,491
499,491,493,629,490
486,491,494,641,493
492,491,494,630,490
495,493,495,567,490
458,491,493,458,489
455,492,493,402,489
477,493,495,367,491
490,495,493,367,491
497,494,494,373,491
501,492,493,399,492
488,491,493,453,493
489,493,493,517,492
489,494,495,597,491
485,493,495,638,491
493,495,495,640,492
499,494,495,619,494
518,495,496,521,493
509,493,494,427,495
483,493,493,387,499
490,495,491,363,499
498,493,492,369,496
494,490,493,378,484
491,493,493,419,485
502,493,494,483,490
521,493,495,548,494
521,495,495,625,494
507,495,496,642,493
506,495,495,631,495
494,494,496,583,496
499,495,493,472,495
478,491,492,407,489
496,489,496,371,487
496,487,495,367,493
506,488,495,375,490
511,493,497,393,491
504,495,493,447,494
474,495,493,510,493
480,491,493,584,491
480,491,494,636,488
480,493,492,638,488
487,494,494,624,490
497,493,493,530,490
487,494,493,435,491
494,492,493,393,493
499,491,493,368,490
503,494,496,370,492
504,492,494,380,491
501,491,496,413,489
492,492,495,474,490
492,491,493,539,489
472,491,492,615,490
482,492,493,642,491
496,491,492,632,490
499,493,493,591,493
509,493,494,487,492
517,495,494,413,491
511,494,494,376,490
495,491,495,364,490
490,491,495,372,489
497,495,497,390,489
500,495,498,442,491
493,492,497,502,489
496,492,497,578,491
511,494,497,638,491
526,494,496,641,492
520,494,494,627,491
504,492,494,546,491
480,493,491,445,492
485,496,496,397,493
505,497,496,369,489
506,498,495,370,491
498,495,494,379,492
504,491,494,409,495
501,491,493,465,494
476,491,491,529,495
473,489,490,610,491
476,491,495,642,488
497,494,496,638,493
509,495,498,600,502
516,495,499,502,503
500,496,498,418,502
474,493,494,381,491
488,489,494,367,484
496,490,493,371,489
473,492,490,385,488
473,490,491,431,489
489,491,491,495,489
503,494,495,566,489
510,495,498,635,491
526,498,499,642,490
521,496,497,632,491
508,494,497,561,491
494,491,493,454,490
487,491,492,400,491
488,491,490,366,492
500,493,491,365,496
490,495,492,376,496
487,500,494,400,497
486,498,495,460,496
490,490,495,522,488
515,491,495,606,489
543,494,495,642,492
495,491,492,634,496
486,493,492,606,494
478,499,499,511,489
479,499,499,425,490
508,499,500,386,492
511,492,498,370,491
549,494,500,374,490
521,485,491,380,489
457,484,491,425,488
470,490,492,487,492
475,497,492,554,490
487,497,494,629,491
500,492,492,641,490
489,493,492,632,489
496,495,492,575,491
486,493,493,465,490
481,493,494,403,488
473,493,491,368,490
483,496,492,363,490
498,495,494,374,490
503,492,493,395,491
494,491,495,451,492
504,493,497,515,489
513,493,499,593,490
522,496,503,644,491
518,493,502,643,495
500,490,499,622,498
462,495,497,528,495
494,492,498,434,499
510,492,493,390,497
500,495,489,366,492
493,496,491,371,486
489,497,492,377,489
486,497,493,420,493
497,497,495,480,497
532,497,495,548,499
526,495,498,624,501
513,494,499,643,487
487,490,499,635,485
505,492,496,583,489
499,496,493,480,487
528,498,498,412,492
510,492,495,374,496
470,488,491,366,498
491,488,495,372,491
487,489,495,392,490
483,494,495,444,488
484,496,495,506,485
489,494,493,580,487
466,494,487,635,492
483,497,491,640,491
500,495,496,625,492
530,496,498,539,490
504,492,496,441,495
517,495,497,397,500
533,502,501,372,499
538,498,499,373,493
534,493,501,379,491
524,495,500,412,493
478,496,496,471,489
487,495,489,533,498
438,493,484,613,501
468,496,489,641,493
490,495,495,635,489
500,497,497,594,492
476,489,499,493,494
482,496,499,415,490
492,493,493,376,485
509,490,489,366,484
512,497,496,375,489
540,497,498,390,492
519,497,499,440,493
511,494,503,505,490
540,488,505,573,496
472,492,498,639,505
519,495,496,644,502
532,494,491,630,502
480,492,486,552,502
460,492,488,448,499
466,487,489,396,500
489,496,490,367,493
493,495,492,366,494
480,494,495,376,489
500,499,500,405,489
538,501,504,468,492
546,507,500,528,493
496,499,495,605,483
460,492,493,641,483
489,492,492,636,489
481,483,490,602,488
491,491,496,503,491
509,497,499,422,492
525,497,496,384,497
512,495,488,366,498
508,497,494,374,496
528,497,497,382,487
477,486,492,427,483
478,490,495,490,484
472,496,496,560,486
478,492,498,629,494
500,488,496,644,496
518,493,496,633,493
541,492,496,565,491
458,491,493,459,489
475,496,492,402,488
504,503,499,369,493
513,502,496,370,489
520,499,490,374,488
475,488,487,398,488
462,488,490,455,496
488,493,492,519,497
499,494,494,596,489
502,494,498,641,496
525,492,499,638,492
504,497,501,612,496
476,494,499,519,488
501,491,499,430,487
543,496,501,393,488
594,499,498,370,489
499,495,495,373,495
482,494,493,382,494
458,490,491,422,486
476,492,488,481,487
467,490,484,549,486
469,492,487,620,489
479,497,490,639,492
490,493,491,631,493
501,495,496,579,489
504,496,496,468,489
472,490,498,408,494
507,494,499,372,496
544,500,503,371,495
583,507,504,380,490
563,499,494,396,488
444,488,489,444,486
439,486,491,510,487
490,490,488,586,489
469,491,490,638,494
486,491,492,638,496
511,494,497,620,500
506,496,496,531,506
486,506,501,436,504
485,495,496,391,490
491,481,488,364,490
489,496,485,369,502
501,498,492,379,489
496,492,498,415,488
536,496,503,479,487
552,492,497,543,488
513,496,493,620,493
443,490,484,638,489
449,496,491,631,485
514,498,498,592,491
526,498,505,486,493
561,500,505,417,490
515,494,494,375,483
469,487,484,360,486
435,491,488,371,486
474,492,492,392,490
493,498,497,444,490
515,504,501,509,488
541,499,498,580,489
539,490,492,637,498
476,488,483,636,493
440,486,485,623,484
478,491,490,541,484
502,495,496,445,494
520,494,496,395,487
482,493,498,366,492
477,494,492,367,494
488,493,495,376,491
490,489,498,408,489
493,493,498,469,489
521,500,498,536,487
551,500,499,617,490
504,496,489,641,488
463,493,490,635,489
483,487,492,597,493
487,490,494,496,497
521,495,494,416,492
494,494,494,378,485
492,493,494,362,488
489,491,495,370,488
480,492,497,384,491
485,490,491,433,490
503,496,486,495,491
492,497,493,567,492
516,500,496,633,496
500,495,498,640,497
458,490,497,627,492
475,489,489,554,487
492,493,489,451,483
514,494,491,398,490
521,492,496,365,498
480,491,493,367,494
487,495,494,374,485
514,501,491,403,486
502,496,492,459,490
520,501,499,525,491
564,502,504,610,491
567,491,498,640,486
442,484,489,631,491
421,486,485,605,500
469,495,491,506,490
481,493,494,419,477
512,495,493,385,487
508,497,490,363,488
474,496,489,369,487
470,487,493,379,491
478,486,493,425,491
503,493,498,488,491
512,496,505,561,492
527,495,500,627,488
504,493,499,644,488
517,500,494,634,490
476,494,485,570,489
484,495,490,462,489
468,488,488,403,487
505,493,491,369,491
519,497,494,367,491
518,498,500,374,489
506,495,501,396,487
482,488,498,454,494
493,487,496,518,493
508,495,488,594,488
500,491,488,640,488
504,497,491,637,499
509,498,492,618,503
480,492,489,521,506
475,493,493,426,488
491,490,498,388,489
488,487,503,366,484
487,493,498,370,482
489,491,496,381,486
494,490,493,420,494
495,494,483,478,494
468,493,483,546,498
499,493,490,621,505
510,494,497,642,503
508,500,497,631,500
479,497,492,583,496
483,494,496,475,492
498,498,499,409,490
492,495,499,372,484
504,496,496,368,485
517,503,489,374,505
507,501,488,395,505
505,496,489,443,495
474,492,488,506,490
465,488,493,577,484
472,489,501,637,488
512,490,499,640,486
510,492,494,624,489
518,497,492,536,490
495,498,497,438,488
522,497,495,393,484
460,489,493,366,491
497,485,497,369,496
497,489,492,379,493
460,492,494,410,484
479,484,492,471,486
518,491,488,538,489
520,493,487,614,494
482,492,487,639,488
483,494,490,630,481
467,494,491,588,485
493,495,495,487,486
491,493,493,412,488
471,496,494,377,488
508,495,498,367,491
510,497,495,374,488
495,492,492,386,487
478,491,492,437,487
486,490,491,499,488
482,491,490,571,491
510,500,497,635,490
532,501,498,640,487
523,497,497,626,488
492,487,497,547,490
487,494,496,447,496
507,494,499,399,502
481,492,488,365,489
453,491,486,366,491
481,492,489,375,482
496,494,490,405,486
496,496,495,463,489
518,497,498,529,490
526,503,499,610,492
532,507,500,643,489
495,489,488,632,490
466,486,484,597,495
469,486,486,497,493
475,488,497,416,483
500,491,495,381,488
505,495,493,364,490
465,490,493,369,488
496,494,490,380,486
499,493,490,431,488
493,490,492,492,487
485,489,491,559,485
485,492,493,629,489
482,491,494,639,490
498,491,493,629,492
494,496,495,563,497
519,497,491,457,496
516,497,488,399,494
485,494,492,364,499
458,488,492,366,497
484,496,496,374,484
508,488,491,399,476
478,488,493,455,482
491,495,492,518,488
500,497,495,602,487
521,493,500,642,488
524,493,496,639,487
516,491,493,608,490
452,489,488,509,489
457,492,491,422,487
487,503,490,385,488
480,501,489,364,489
465,485,490,370,494
510,487,492,382,497
519,495,494,424,498
503,492,492,484,489
480,486,488,548,483
469,491,488,624,485
493,493,493,639,488
515,492,495,631,487
514,494,494,573,489
491,495,495,469,500
491,498,495,405,505
479,499,494,366,488
466,496,493,364,484
485,485,495,372,496
502,492,495,397,512
513,501,493,453,510
498,490,494,511,495
498,490,495,591,482
504,490,498,639,484
484,492,494,639,498
475,493,495,620,493
508,499,494,529,483
519,505,491,432,482
520,501,494,391,488
518,494,488,364,480
471,487,483,363,477
444,484,486,376,483
466,490,489,412,485
473,488,491,476,488
483,493,494,543,491
481,497,495,621,493
493,494,494,640,490
493,490,492,634,488
505,491,495,584,489
508,495,495,480,489
509,496,495,410,487
502,495,494,373,487
505,493,495,363,486
478,493,497,375,488
481,500,498,391,486
500,502,489,444,490
508,496,491,505,492
504,490,492,576,490
505,487,489,637,487
493,486,491,636,489
473,491,490,624,487
478,494,492,538,490
472,492,492,438,489
496,496,493,393,489
493,493,491,368,490
503,496,493,367,491
496,491,494,376,488
500,489,496,408,486
506,492,500,470,489
515,493,502,535,492
467,483,490,611,489
456,488,487,641,490
495,495,489,636,492
507,493,488,594,495
482,489,488,491,495
472,489,491,413,490
504,491,489,374,484
495,494,490,362,488
498,491,493,368,488
465,488,491,381,486
480,492,496,434,487
504,492,497,498,486
497,494,500,568,492
506,494,497,636,494
514,495,494,640,499
521,504,493,628,499
504,500,490,552,498
472,498,490,448,499
459,493,490,397,491
489,496,494,368,480
524,491,491,365,476
483,494,492,373,487
455,490,496,401,491
474,498,494,461,490
513,509,496,527,492
532,504,500,609,495
535,493,498,642,495
500,485,490,636,495
458,487,485,601,492
453,485,489,502,488
465,492,489,419,490
484,487,490,381,488
502,485,489,362,479
489,486,490,368,485
495,491,492,381,488
503,493,494,427,487
508,494,492,489,488
491,496,496,556,486
486,487,494,628,489
506,489,494,642,492
497,492,495,630,491
485,488,490,567,489
468,490,491,460,487
502,491,493,401,488
486,490,492,368,491
469,487,495,364,493
486,489,492,375,497
511,497,490,399,495
507,494,493,453,487
479,494,494,515,490
481,497,497,598,491
500,497,496,641,486
517,499,494,636,477
506,484,491,612,488
485,492,492,516,490
462,492,489,425,488
471,492,487,386,490
499,493,492,366,489
488,496,493,371,489
491,490,490,379,488
463,486,488,417,487
476,490,490,481,489
505,490,490,548,487
507,488,492,620,488
481,489,494,640,488
497,491,497,632,488
507,497,499,582,492
527,495,498,475,491
499,491,493,405,490
473,489,492,371,489
476,485,489,365,489
474,491,486,370,488
483,497,489,395,490
491,492,492,445,489
503,492,492,509,488
512,499,496,588,489
525,499,495,639,489
503,493,490,636,490
485,496,490,622,495
455,494,492,529,493
487,493,491,435,493
503,488,490,389,483
484,487,491,363,488
483,493,494,370,489
509,492,493,377,490
497,489,493,415,486
504,495,496,475,487
503,492,494,539,488
479,488,488,615,488
461,488,491,640,487
483,488,492,631,490
480,492,492,585,491
483,492,493,485,492
506,494,493,412,490
523,497,494,375,490
506,495,496,366,487
489,490,494,370,488
497,494,492,390,490
477,495,491,439,494
468,493,493,500,495
481,493,490,573,491
498,490,491,634,482
491,488,490,635,484
472,489,489,624,485
484,491,494,544,487
501,491,494,444,489
517,490,494,397,493
512,491,494,363,492
488,489,490,365,491
486,490,489,373,490
475,489,491,403,493
496,493,495,467,490
521,489,497,531,485
521,488,495,611,487
511,491,492,641,488
455,492,492,635,491
499,495,493,598,490
496,491,493,496,489
472,490,490,413,487
464,491,488,374,489
475,491,489,361,488
489,492,493,370,488
525,496,496,387,493
541,502,501,436,492
530,497,497,494,488
437,486,488,563,488
454,484,487,631,491
486,486,492,639,487
493,490,492,626,487
477,490,490,559,491
486,496,489,451,492
480,493,491,398,490
491,493,494,367,490
522,492,494,367,489
545,492,493,375,485
515,494,490,396,488
465,493,491,456,491
465,491,491,521,492
494,489,491,599,491
491,493,490,640,491
483,495,493,634,487
465,486,491,605,488
486,488,491,510,490
489,484,491,420,493
487,490,490,383,492
502,493,494,366,488
496,499,494,370,489
516,497,497,380,495
505,491,497,426,497
501,490,492,486,497
474,490,487,552,488
482,487,491,624,484
495,487,494,640,482
501,484,491,630,487
506,494,492,574,492
496,499,490,464,490
472,495,494,403,491
496,493,495,368,491
484,488,493,364,487
471,488,494,372,486
482,488,492,395,486
494,489,492,449,488
503,491,493,514,491
501,495,491,589,492
468,491,488,637,491
486,489,492,636,484
505,488,495,617,488
507,492,496,525,487
484,491,493,430,488
480,488,491,386,488
475,493,493,366,489
491,495,489,370,491
493,493,489,376,488
490,493,489,418,490
487,496,493,477,491
492,497,493,543,491
503,492,496,621,488
518,492,496,642,487
516,494,495,631,488
474,487,493,584,489
503,489,494,477,489
502,486,491,409,486
483,485,490,371,488
470,492,491,364,493
480,496,492,372,491
486,492,490,389,491
497,490,488,440,488
475,488,490,503,486
484,489,493,579,485
495,492,496,636,488
497,491,496,640,490
509,492,496,622,490
492,491,492,538,495
504,493,493,440,495
505,492,491,393,490
491,491,488,365,486
493,489,490,367,490
487,486,489,373,486
469,492,492,409,484
497,489,493,470,488
494,492,492,533,490
489,487,493,611,489
483,488,490,640,489
480,493,489,631,486
479,491,492,588,486
482,492,490,489,489
486,493,491,412,491
490,493,493,376,491
487,489,495,362,493
500,491,495,373,489
512,488,495,389,485
518,486,492,437,487
511,492,489,497,487
480,492,487,570,489
473,490,490,628,491
461,494,492,638,490
486,496,493,627,488
489,495,492,546,489
492,490,493,448,488
505,489,496,396,489
506,491,494,368,491
504,492,493,367,489
499,488,492,374,489
487,490,492,404,489
481,490,491,461,489
476,490,490,524,490
482,491,492,607,489
485,491,492,642,490
497,490,494,635,490
492,490,496,599,489
492,490,492,502,488
501,492,491,417,491
498,493,490,378,489
476,490,492,363,487
488,492,492,370,489
497,492,492,384,486
499,490,492,428,488
497,492,491,490,489
479,491,490,559,491
479,490,490,627,489
482,493,492,637,490
491,494,491,630,492
500,495,495,562,489
501,494,494,457,489
495,494,493,402,489
493,494,491,367,488
490,490,493,363,489
489,488,492,373,485
485,488,489,397,488
485,488,491,455,488
490,489,491,516,488
490,487,489,598,489
488,490,491,637,488
489,489,491,633,489
493,492,491,611,489
497,493,493,516,490
500,492,494,424,490
498,492,496,386,490
508,490,498,367,488
501,489,493,366,487
486,488,491,378,487
474,489,491,420,488
484,490,490,483,489
499,491,493,551,489
495,488,492,623,488
481,489,490,640,489
468,487,489,630,490
480,490,490,578,491
492,491,493,467,488
492,491,491,406,488
489,492,490,367,488
486,490,491,362,487
491,491,492,372,488
497,490,493,393,490
493,487,491,447,487
490,490,491,510,489
490,491,491,587,489
482,491,491,637,490
483,490,492,636,491
484,492,490,618,488
490,491,492,528,489
493,492,492,430,489
497,490,494,389,488
496,489,495,364,487
493,490,494,368,489
499,489,491,379,487
501,489,491,413,487
494,490,490,473,488
488,492,492,541,489
492,490,492,618,490
496,490,491,639,488
495,493,491,630,487
488,489,490,587,489
487,489,493,479,489
488,490,493,409,488
484,490,493,372,487
488,489,492,362,489
489,491,489,373,488
485,490,491,389,490
492,490,490,440,489
496,490,492,502,489
496,489,489,574,487
491,493,489,632,488
485,492,488,636,490
483,492,491,622,487
492,492,493,540,488
489,492,493,440,489
494,491,492,391,489
496,491,492,363,488
488,490,492,366,490
484,489,491,374,490
484,489,491,406,490
488,489,491,466,489
496,491,492,530,488
498,491,494,610,489
494,490,491,639,488
481,493,492,633,488
489,494,492,595,489
491,494,492,492,491
490,492,491,414,489
490,491,491,375,488
492,491,490,361,490
489,490,491,369,488
490,489,493,382,488
492,489,492,433,489
489,489,493,496,490
489,489,492,565,489
489,492,491,631,490
491,492,491,639,491
491,491,493,625,489
492,492,492,555,491
492,491,493,450,491
491,491,492,396,490
489,491,494,365,489
491,492,493,366,488
492,492,492,374,491
491,488,492,402,487
487,487,492,458,488
487,488,492,522,488
490,488,491,604,489
492,489,492,640,490
491,492,491,634,490
490,490,493,605,491
492,491,492,504,492
492,491,492,419,491
490,492,492,382,490
491,492,489,364,492
491,495,491,370,489
486,494,493,378,491
489,494,490,426,492
488,494,491,486,494
491,493,491,556,494
495,494,492,623,495
490,491,491,640,493
492,492,492,627,488
491,491,493,566,486
495,491,493,461,484
495,494,493,403,483
500,493,492,365,485
497,486,490,363,485
492,488,490,371,487
480,487,491,396,488
485,487,491,452,488
489,489,489,512,488
490,491,491,592,488
497,493,490,638,493
492,496,490,636,498
492,495,488,616,503
497,495,490,521,513
494,496,491,427,520
495,496,492,386,522
491,494,489,365,524
492,495,492,368,522
490,495,496,379,512
491,496,494,420,501
495,497,493,477,496
494,494,492,545,489
488,492,493,619,482
487,490,493,640,481
489,491,492,631,478
491,493,494,577,475
490,490,492,473,477
489,489,493,406,477
493,489,492,368,479
492,486,493,363,480
492,492,493,372,483
488,493,491,391,483
490,496,492,446,488
494,496,492,507,484
494,494,491,584,485
491,493,491,637,486
489,494,492,636,486
492,493,494,621,487
499,492,491,531,488
495,490,492,433,489
488,490,493,391,489
491,494,493,367,491
493,495,492,368,492
493,501,493,377,492
492,503,490,413,491
492,503,492,472,490
492,501,491,537,491
498,503,492,615,487
495,489,493,639,486
492,483,491,634,486
492,484,493,586,483
492,489,493,486,485
491,488,493,412,487
492,487,491,373,489
495,490,491,365,487
494,487,494,372,489
495,486,491,387,489
490,487,491,437,488
492,495,492,499,487
494,501,492,570,488
494,511,491,636,490
496,515,493,639,489
494,512,492,627,489
496,495,492,548,490
495,497,492,444,490
495,488,492,394,488
493,479,491,365,490
490,479,491,362,486
488,486,492,374,486
489,488,492,403,487
490,491,490,463,488
493,493,492,527,489
492,493,491,609,488
495,491,491,640,490
494,476,492,635,491
492,482,491,597,489
493,488,493,498,490
492,489,492,417,488
492,491,492,376,487
491,492,493,363,487
493,492,493,371,489
492,490,492,380,489
494,490,491,430,488
492,491,491,493,489
493,492,491,561,490
492,491,490,629,489
492,489,491,640,489
495,490,494,626,488
495,489,491,563,489
493,489,493,453,489
494,493,492,400,488
495,496,492,367,488
495,496,491,364,488
493,501,491,373,490
492,496,492,399,488
493,490,492,455,490
494,491,492,517,489
492,484,493,598,489
495,489,491,639,489
494,497,491,636,489
492,495,490,609,489
496,497,491,511,489
496,483,493,424,490
495,487,492,384,489
495,482,491,363,489
495,489,491,370,489
493,490,492,378,488
493,491,492,422,489
493,490,492,484,490
493,486,491,551,488
495,493,493,623,488
494,490,491,640,490
493,490,492,629,490
493,490,492,573,490
494,491,493,467,490
495,491,491,404,489
494,494,494,369,491
496,494,492,364,489
496,497,491,373,490
495,494,491,396,489
495,494,493,447,489
494,493,492,511,489
493,484,492,589,489
491,490,493,636,488
492,496,493,636,487
493,495,493,618,491
495,482,492,525,489
495,486,493,431,491
496,489,491,389,491
497,491,490,366,491
495,489,492,367,491
493,492,491,378,489
493,489,493,414,489
495,485,492,476,490
494,486,492,542,489
494,491,493,618,488
496,490,492,641,491
496,486,494,631,489
494,489,491,585,492
496,492,493,478,491
496,489,492,408,489
495,492,493,369,489
494,491,493,363,490
494,490,491,371,489
493,489,492,390,491
494,490,491,442,489
496,493,491,504,489
497,494,492,579,490
499,503,494,636,489
499,502,493,637,490
498,490,491,623,490
488,490,493,537,490
493,488,492,439,490
492,491,492,393,491
492,489,491,366,489
495,490,493,365,489
495,486,491,376,490
494,492,491,408,490
493,491,492,469,488
494,489,493,532,489
497,490,491,611,488
494,490,492,642,490
496,488,492,634,489
498,491,492,593,489
495,491,493,493,490
493,491,492,412,489
494,490,492,376,488
494,494,492,362,489
492,497,493,369,489
494,496,493,383,488
493,492,494,436,491
495,494,492,497,489
492,483,492,567,490
495,480,491,634,492
496,487,492,640,491
496,489,493,628,490
497,494,492,554,490
496,493,493,448,490
497,492,493,397,489
495,494,493,365,488
497,496,493,367,489
496,499,492,377,489
495,481,493,400,489
495,489,492,462,489
495,491,493,525,490
495,486,491,605,490
494,485,493,640,489
493,486,494,637,491
496,485,495,601,488
495,489,493,506,491
495,494,492,419,490
496,495,491,382,490
496,490,492,366,491
494,488,493,369,491
495,489,492,383,488
496,493,493,427,490
496,488,493,489,490
494,486,493,557,489
493,487,492,628,491
493,491,491,641,490
493,498,494,629,491
496,492,491,568,491
496,494,492,460,490
496,494,492,402,490
494,492,492,368,489
495,490,493,363,488
494,483,492,375,490
494,490,494,398,488
494,492,493,453,488
493,490,493,516,489
494,489,493,594,490
496,488,492,640,489
493,488,493,636,490
495,489,493,613,490
495,490,494,518,490
496,491,493,428,489
495,494,493,386,488
495,491,492,366,490
496,492,491,370,490
496,491,491,379,490
497,490,492,421,489
495,489,493,481,489
495,495,492,549,489
494,484,494,621,489
493,489,493,640,488
495,491,494,632,489
495,490,494,580,489
495,494,493,471,490
496,496,493,406,490
495,490,492,370,492
496,489,493,363,490
494,490,493,372,490
494,489,491,395,490
496,491,494,445,489
495,492,493,510,489
495,491,493,586,489
496,492,493,637,490
496,492,493,638,488
495,492,494,621,492
496,489,494,530,490
496,491,493,433,491
496,491,493,389,490
495,491,494,365,489
494,489,492,368,491
495,492,493,377,491
495,490,493,415,489
495,490,492,473,489
495,490,492,538,490
496,490,492,617,490
495,490,493,641,490
496,491,494,629,489
495,493,493,589,489
495,494,494,482,490
496,491,494,410,490
495,491,493,374,491
494,488,493,364,490
497,490,495,371,489
495,490,493,388,492
495,490,493,438,490
495,491,493,501,490
495,491,492,574,490
494,492,495,633,490
495,491,494,639,491
496,491,492,625,489
497,492,493,543,490
496,493,494,441,491
496,491,493,393,491
496,492,495,364,488
494,490,494,365,490
494,491,494,374,489
495,490,495,404,489
494,492,493,464,490
494,490,492,528,489
495,492,493,609,490
493,489,492,641,490
495,489,493,633,490
495,489,493,596,492
495,492,493,496,490
495,491,493,415,489
496,493,492,377,489
492,490,495,364,489
496,492,493,371,489
496,492,493,382,490
493,490,491,433,490
495,491,493,496,489
495,490,492,563,491
493,490,493,629,489
494,492,495,637,489
496,490,492,628,489
494,493,495,558,492
495,491,494,452,490
495,492,493,399,490
496,492,492,367,489
496,491,493,366,491
495,491,493,374,489
495,490,493,398,489
495,491,493,457,490
495,491,493,518,489
494,492,494,600,489
494,493,494,639,491
494,491,492,636,491
497,492,495,604,489
496,491,493,510,492
496,492,493,421,491
495,492,494,384,490
496,493,492,367,490
494,494,494,371,491
496,490,494,382,489
495,492,493,426,489
495,491,493,486,489
495,491,494,554,489
493,489,492,627,491
495,492,494,641,490
493,490,494,629,489
493,490,495,570,489
496,491,494,465,490
495,491,495,406,491
495,490,493,369,488
495,490,494,366,490
495,491,492,376,491
496,490,492,399,491
495,489,493,452,491
494,489,493,514,490
494,491,494,594,490
496,492,494,638,490
496,491,494,637,490
496,491,493,617,489
496,495,495,522,491
495,493,493,429,490
494,491,494,388,492
495,490,492,367,491
494,491,494,368,490
494,492,494,378,491
496,491,492,418,489
494,491,493,479,489
494,491,493,546,489
495,491,492,621,489
496,491,492,641,491
495,491,492,632,491
495,492,494,581,492
495,491,493,475,490
495,492,493,409,490
495,491,494,371,490
493,491,494,366,489
495,492,493,375,491
494,491,492,394,489
493,491,494,445,490
495,490,493,507,490
495,490,492,580,490
494,490,493,635,491
495,492,492,635,489
494,492,492,625,491
496,494,494,536,491
496,492,494,438,491
495,493,493,394,490
496,491,494,366,490
496,490,492,368,489
495,492,494,378,492
494,489,493,410,490
494,491,493,470,490
495,491,494,534,489
493,492,492,616,492
495,493,494,642,490
494,491,494,632,492
496,492,492,592,492
497,492,493,489,491
495,491,493,415,490
494,492,493,375,491
494,490,493,366,490
495,492,494,372,490
494,492,494,386,489
494,494,493,437,489
493,491,492,499,490
495,491,492,570,489
493,492,494,634,491
494,490,493,638,491
494,490,494,625,491
493,491,494,552,492
496,492,494,448,491
494,492,493,397,492
494,493,494,368,489
495,492,491,368,490
496,492,492,376,491
496,491,491,406,489
494,492,493,463,491
495,491,494,526,490
495,491,495,606,491
494,492,494,639,490
495,493,494,636,490
495,490,493,599,492
496,492,493,502,491
495,492,494,420,491
495,490,492,381,492
496,491,491,365,491
494,491,494,373,490
496,492,494,381,490
493,491,492,432,490
493,491,493,493,490
493,490,492,560,489
494,493,493,629,490
493,491,494,640,491
495,490,492,630,489
494,493,493,563,491
495,492,493,458,491
495,492,492,401,490
494,492,495,367,490
493,490,492,368,491
495,493,493,375,490
493,490,494,403,491
495,491,492,457,490
494,491,493,518,490
494,490,492,600,489
494,492,494,638,490
494,491,492,638,491
494,492,495,610,490
494,493,494,516,491
495,494,493,426,490
494,492,493,386,491
496,492,491,365,489
493,493,493,372,492
494,490,493,380,492
493,490,493,422,490
493,492,493,485,490
495,491,493,551,489
495,491,492,626,489
495,493,493,644,491
496,492,492,632,492
496,492,492,578,491
496,492,494,469,491
494,491,492,405,491
494,493,492,370,490
493,491,493,364,490
494,492,494,373,490
494,493,494,395,489
493,490,493,448,490
494,492,492,512,491
493,491,492,591,491
495,491,492,637,492
494,491,493,636,491
494,491,492,622,490
496,491,494,527,491
496,494,493,433,490
494,492,493,390,490
494,493,493,366,490
495,493,492,370,490
493,492,494,380,492
496,492,495,415,489
494,491,493,477,491
494,491,493,541,491
493,491,494,616,490
494,493,495,643,490
494,491,493,633,490
495,494,493,586,491
494,492,493,482,491
495,491,492,411,491
495,490,493,375,492
496,490,494,365,490
495,490,493,371,491
495,495,492,393,490
492,492,494,441,490
493,491,492,502,490
493,492,493,577,491
493,490,493,637,491
495,492,494,637,489
493,491,492,626,493
495,491,492,541,492
495,492,493,442,491
495,493,492,396,491
493,491,494,364,491
495,491,493,368,490
494,493,493,378,490
494,493,492,408,490
494,492,492,468,490
493,492,494,531,490
493,490,492,613,492
494,493,493,643,491
493,492,495,633,490
494,492,495,593,490
494,493,494,495,492
495,492,494,415,491
495,492,494,376,491
493,492,492,366,492
495,490,492,372,492
494,491,492,384,492
493,493,493,435,490
494,491,493,496,490
495,492,492,566,490
493,493,495,632,491
494,493,493,640,491
495,493,492,627,490
493,491,492,557,492
496,492,494,450,491
495,491,493,399,492
494,490,492,367,493
494,492,494,364,491
493,493,494,375,492
495,492,492,401,490
493,493,492,462,491
494,492,493,524,491
494,492,492,605,490
495,493,492,641,491
495,493,494,636,490
494,490,492,603,490
495,494,494,506,492
494,492,493,419,492
494,491,494,382,490
494,491,495,365,492
493,492,492,371,491
496,493,494,379,490
496,492,492,429,492
494,491,492,488,491
495,492,493,556,492
495,494,494,629,491
493,491,494,641,492
495,492,495,631,490
494,494,495,568,491
495,493,494,461,491
495,493,493,403,491
495,492,494,367,491
496,491,491,365,490
494,493,494,375,491
493,491,493,397,492
494,491,493,452,491
494,491,493,517,490
494,491,494,595,490
493,491,493,639,491
495,492,493,639,491
495,491,492,616,491
496,494,492,520,491
494,492,493,428,492
495,491,492,386,490
495,494,494,365,490
492,492,494,369,490
494,492,494,378,489
493,493,492,420,491
493,492,493,481,491
494,491,493,546,491
494,491,492,624,492
494,490,492,640,492
493,491,493,630,491
493,491,493,583,491
495,492,494,472,492
495,493,492,408,491
494,493,494,370,490
493,492,492,364,491
495,493,492,373,491
493,492,495,391,493
495,490,492,445,490
493,491,493,509,492
493,491,493,583,492
493,491,494,636,490
494,493,493,639,492
494,492,493,623,490
494,491,494,531,491
495,493,494,436,491
494,492,492,393,492
496,492,491,367,490
494,493,493,367,492
493,491,492,378,490
496,491,495,412,490
493,492,493,473,491
493,491,494,537,490
493,493,494,616,489
493,491,494,642,492
495,491,492,632,490
494,492,492,591,493
494,491,493,487,493
495,492,492,412,492
494,491,492,377,491
496,491,494,363,490
495,490,493,372,490
494,492,493,389,490
495,492,491,439,491
495,493,493,501,491
494,493,494,574,493
494,491,494,634,491
495,492,494,639,490
493,492,494,626,491
493,492,495,546,491
494,493,493,446,491
494,492,493,396,492
493,491,493,368,490
495,491,492,368,492
495,490,492,376,492
494,490,491,405,492
493,493,493,464,491
493,492,492,526,490
495,493,491,611,490
493,492,494,641,490
494,493,492,635,490
495,494,493,598,492
494,492,494,499,492
495,492,493,415,490
493,491,493,380,493
494,490,492,364,492
493,492,494,369,491
493,492,492,385,492
492,492,494,431,491
494,492,492,495,491
493,493,493,563,490
494,492,492,631,491
495,491,492,638,490
493,493,493,628,492
494,494,493,560,491
494,492,493,455,492
494,492,493,400,491
493,492,495,365,490
493,493,493,367,491
493,491,493,376,491
495,493,494,398,490
493,491,493,459,491
494,492,492,520,492
493,490,492,600,492
493,494,493,642,492
493,493,494,634,493
494,491,492,607,490
493,494,494,512,491
494,492,493,422,490
494,493,492,384,490
493,491,492,367,492
495,493,493,369,490
493,491,493,381,493
493,490,493,423,491
493,491,492,485,491
494,492,493,554,489
492,492,494,626,493
493,490,492,642,491
495,492,492,631,492
495,492,492,575,493
496,493,493,466,491
494,492,494,405,490
493,491,493,367,490
495,493,492,364,489
493,492,494,373,490
493,493,494,395,490
494,493,493,450,491
493,491,492,513,491
494,491,494,589,490
494,491,492,639,492
493,491,493,636,492
493,491,494,617,492
496,493,492,527,491
494,492,493,431,492
495,492,493,389,490
494,494,493,367,491
495,492,491,369,491
495,491,494,377,490
492,490,491,418,492
493,492,493,477,491
493,491,493,543,491
492,491,494,619,491
493,493,494,641,491
494,494,494,632,492
492,490,493,585,491
495,492,493,477,491
494,493,492,411,492
494,491,492,373,493
495,491,493,364,492
495,493,493,374,491
492,492,494,393,492
495,492,494,443,491
493,492,493,505,490
493,492,492,579,490
494,494,493,635,490
492,491,491,639,493
494,493,493,624,493
493,491,493,537,492
494,491,492,439,492
494,490,493,392,492
495,490,492,366,490
493,492,493,367,492
493,493,492,379,491
495,495,492,412,491
494,493,492,470,491
494,492,492,532,492
493,493,493,614,493
493,492,493,641,492
495,492,495,633,490
493,493,495,591,491
493,493,493,490,491
494,492,493,414,492
493,492,492,378,491
492,491,494,362,493
493,491,493,372,493
492,491,492,385,493
492,491,493,434,491
493,492,493,500,490
492,491,492,569,492
494,493,494,632,491
493,493,492,640,491
494,492,491,627,491
496,492,495,550,491
495,493,492,448,491
493,492,493,395,491
492,491,493,366,492
492,492,494,365,490
492,492,493,375,490
493,493,492,404,492
493,493,493,462,491
493,492,493,524,491
493,491,492,608,492
495,491,493,640,492
494,491,493,632,491
495,493,493,599,491
493,493,492,503,491
495,493,493,418,491
493,492,493,381,490
493,493,494,365,490
495,492,494,369,490
494,491,491,383,490
492,493,494,429,491
493,491,492,490,492
493,491,493,558,492
492,491,494,630,492
494,492,494,641,490
493,490,493,628,492
494,495,493,566,491
494,492,493,459,491
494,492,492,402,491
494,491,492,369,490
492,492,493,365,492
492,490,492,375,491
494,491,494,397,490
492,491,493,455,491
493,490,493,515,490
493,491,493,597,491
493,494,491,640,490
493,492,494,636,492
493,491,492,614,493
494,491,492,516,492
494,492,493,426,491
494,492,493,386,491
493,492,492,367,492
493,494,494,371,490
493,492,492,381,490
494,494,492,422,491
493,492,493,482,492
494,492,493,548,490
492,493,492,623,492
493,492,494,640,491
492,492,495,630,490
493,491,494,576,490
494,492,493,473,491
493,492,493,406,492
493,491,494,371,490
494,492,492,366,492
493,492,491,374,493
494,492,491,394,490
494,493,493,447,491
494,492,492,509,490
493,492,494,586,490
491,492,494,638,490
493,492,492,637,491
492,492,494,619,491
495,493,491,528,491
494,493,493,434,492
494,492,492,391,492
492,491,492,366,491
492,492,492,369,491
494,492,494,378,489
494,490,491,414,490
494,493,494,475,490
491,493,493,541,491
494,492,492,619,492
496,492,492,641,491
495,493,494,632,492
492,494,491,587,491
493,492,493,483,491
494,490,493,410,491
494,492,494,373,490
494,491,493,364,491
494,492,492,371,491
492,493,491,391,493
495,491,492,441,492
494,492,492,502,493
493,491,493,575,491
494,491,494,633,492
494,491,491,638,491
493,493,493,626,492
493,494,494,543,491
494,493,493,442,491
493,492,493,394,492
494,492,495,364,489
493,491,493,366,491
492,491,493,375,491
491,490,493,406,490
493,491,493,466,490
492,492,492,530,490
492,492,493,611,491
492,492,492,642,491
494,491,492,635,492
494,490,491,597,493
495,492,494,495,491
493,492,492,416,492
494,492,491,378,490
492,492,494,364,490
493,493,493,372,491
494,492,493,385,492
492,491,493,435,491
494,492,493,495,491
493,492,492,565,492
492,491,493,632,492
493,490,494,638,491
493,492,492,629,492
492,493,495,556,493
494,492,492,450,491
493,492,493,399,491
494,493,493,368,491
494,492,491,367,492
495,492,494,374,490
493,489,492,401,493
494,493,492,459,491
492,491,493,521,491
492,491,494,602,491
492,492,493,639,492
492,491,494,637,492
494,492,493,603,491
492,492,493,509,492
495,492,493,422,492
494,491,492,383,493
494,493,493,366,491
492,491,494,370,492
494,491,491,380,489
492,494,493,426,490
493,492,493,488,491
494,493,492,554,490
492,492,492,629,492
493,492,493,640,490
493,491,494,628,491
492,491,494,568,492
493,492,492,463,492
494,491,493,403,492
493,492,492,369,490
493,492,492,364,490
492,493,492,375,491
494,491,491,400,492
494,491,492,452,492
494,492,493,514,491
492,491,493,592,491
495,493,492,637,490
493,493,494,638,491
493,493,493,616,490
494,494,492,520,492
493,492,492,430,491
494,491,493,386,491
494,491,492,367,492
492,491,493,369,492
492,490,493,378,491
495,492,492,420,490
492,492,493,481,491
493,491,493,546,490
493,492,492,622,491
494,491,492,642,492
493,491,492,631,493
493,494,494,581,491
493,491,493,475,491
493,492,493,407,492
493,492,495,370,491
492,492,494,365,491
493,492,493,371,491
492,492,492,395,491
494,491,493,444,491
494,492,493,508,492
493,491,492,582,493
493,491,493,635,491
495,492,492,639,490
492,493,494,624,493
494,491,494,533,492
494,493,493,436,491
493,493,492,393,492
495,492,494,364,490
493,491,493,368,492
493,493,493,378,492
492,490,493,410,491
492,491,493,471,491
493,491,493,535,490
492,492,494,615,492
493,491,493,643,492
494,491,494,631,491
495,492,492,592,493
495,491,493,488,493
494,492,492,412,492
494,493,492,376,492
492,490,494,365,492
494,491,493,370,490
493,493,493,387,490
493,492,493,437,491
493,492,493,500,491
492,491,492,573,493
492,492,495,632,492
493,492,493,638,491
492,492,494,625,492
492,491,494,547,493
495,493,492,447,491
493,492,492,396,492
493,493,492,367,490
494,493,491,368,492
494,491,492,377,493
494,490,491,405,492
493,492,493,463,492
493,490,493,527,491
494,491,494,607,491
492,494,494,641,491
493,494,493,636,492
495,493,493,597,492
492,493,492,501,492
494,492,492,416,492
494,492,492,380,492
493,491,492,364,492
492,491,493,369,491
495,492,492,381,490
492,492,492,432,492
493,492,492,492,490
493,492,493,562,490
493,492,492,630,492
494,492,494,639,490
493,490,493,628,491
493,494,493,559,492
494,492,493,455,491
493,492,493,401,491
493,492,494,366,490
492,493,492,366,492
492,493,492,376,491
492,490,493,397,491
494,492,492,457,491
493,492,492,520,492
493,490,492,599,490
494,493,492,639,490
492,492,492,637,493
494,493,494,609,490
493,494,494,514,492
494,492,492,424,491
494,492,493,384,490
495,492,491,367,491
493,492,493,369,492
492,491,493,380,492
492,491,494,424,491
493,490,493,484,490
494,491,494,551,489
492,490,492,625,493
494,492,492,642,491
494,491,492,632,492
494,491,491,578,493
494,492,492,468,491
494,493,493,405,492
493,491,491,369,490
495,492,494,364,490
493,493,494,374,490
493,493,494,395,490
494,491,493,448,491
493,492,493,513,491
492,491,494,590,492
494,491,492,637,492
492,491,493,636,491
492,492,494,620,492
495,493,495,526,491
493,492,493,432,492
493,492,492,390,490
494,494,493,367,491
494,492,491,369,492
493,493,493,378,493
494,490,492,417,491
493,492,492,476,491
493,492,493,541,490
492,492,495,618,491
493,493,494,641,491
494,491,494,631,491
494,494,492,586,492
493,491,493,479,491
494,492,492,411,492
493,491,492,373,494
493,490,492,365,491
494,492,494,371,490
492,491,491,392,492
492,493,493,442,490
492,491,493,504,491
493,491,492,578,490
492,490,494,634,492
494,491,492,638,491
494,492,493,623,492
493,490,493,538,492
493,492,493,441,492
493,492,492,393,492
495,493,495,365,490
493,491,493,367,491
495,493,492,377,491
495,492,492,410,492
494,491,493,469,491
494,492,492,531,491
493,493,493,613,492
492,492,492,641,492
493,493,494,633,490
493,493,495,592,490
493,493,493,492,491
493,492,492,414,490
493,492,492,376,491
492,491,492,365,492
493,491,493,372,492
493,490,492,385,492
492,490,491,435,491
494,491,493,498,490
493,490,491,568,490
492,493,493,632,490
494,492,492,640,492
494,491,491,628,490
492,492,494,554,492
494,492,494,449,491
493,491,492,396,491
493,492,494,365,491
493,491,494,367,490
493,492,493,376,490
493,491,492,402,490
493,493,492,461,491
493,491,492,524,491
494,491,492,606,492
493,491,493,640,492
493,491,491,635,492
494,493,495,601,491
495,492,492,506,491
494,492,493,418,491
493,493,492,383,491
494,493,492,366,490
493,492,494,371,492
493,491,493,383,490
493,490,492,427,491
493,492,493,489,491
493,492,493,557,491
492,491,493,628,492
494,494,494,641,492
492,491,494,630,492
495,493,492,567,492
494,493,493,461,491
493,492,492,402,492
493,491,493,367,490
493,492,493,365,491
494,492,491,375,490
493,492,495,397,489
492,492,493,453,490
493,491,493,515,491
492,491,493,598,491
494,492,494,638,490
493,491,492,635,492
492,491,493,613,492
492,492,494,518,492
493,493,492,427,491
492,492,494,387,493
494,490,492,366,491
494,493,492,370,491
494,492,492,380,491
494,491,491,420,490
493,492,492,481,491
493,492,493,549,491
491,491,494,620,491
493,493,494,640,490
493,493,494,632,491
493,493,493,578,493
493,492,493,472,491
494,493,493,406,491
492,491,492,370,492
495,491,493,365,493
492,491,493,373,492
492,493,491,394,491
492,492,493,446,491
493,491,492,508,490
493,492,493,584,489
492,493,494,637,491
493,491,492,635,490
493,493,492,622,493
494,494,494,530,491
493,492,492,433,492
493,493,493,390,491
492,492,494,365,490
494,490,492,368,490
493,493,493,378,492
491,490,491,415,491
494,492,492,474,491
493,492,492,539,492
493,490,492,617,493
492,492,492,641,491
492,492,494,631,492
494,491,491,585,490
493,494,494,484,491
493,492,493,412,491
493,492,492,372,491
492,491,492,366,492
494,492,493,372,491
492,491,492,388,492
492,492,493,439,491
492,492,493,502,492
493,491,492,574,490
492,493,495,635,492
492,491,492,640,492
495,492,492,627,492
495,492,492,545,492
494,492,493,442,491
493,491,492,394,492
494,493,492,367,492
492,492,494,365,490
493,492,493,376,490
493,493,494,407,490
493,492,493,464,491
493,491,493,529,491
494,491,494,608,491
494,491,492,640,491
492,491,493,633,491
491,492,493,595,492
496,492,492,498,491
493,492,493,418,492
493,491,493,379,491
494,494,493,365,491
494,492,492,372,492
494,491,493,381,490
492,491,492,432,492
492,492,493,495,492
493,491,493,562,490
492,493,495,630,491
493,493,494,640,493
492,490,493,629,490
494,494,494,556,491
493,492,492,453,492
494,492,492,400,492
494,491,492,369,493
492,491,492,365,492
495,493,491,375,490
492,491,494,403,492
494,490,493,457,490
493,492,493,520,490
493,492,492,603,490
494,492,494,637,490
493,491,492,635,492
493,493,493,606,493
493,491,493,509,492
493,493,493,421,491
493,491,494,384,493
495,491,491,364,490
493,493,493,370,492
492,492,492,382,491
495,492,491,426,491
493,491,492,487,491
493,491,493,553,490
492,490,492,624,490
494,492,492,639,490
493,492,493,629,490
492,493,494,571,491
494,493,493,465,492
493,492,492,403,491
493,492,491,370,491
491,492,494,365,493
493,490,492,372,491
492,491,492,396,491
492,491,493,451,491
494,491,492,513,490
493,492,492,594,493
493,493,492,639,491
494,492,492,638,492
495,491,491,618,492
494,492,494,521,491
494,492,493,429,491
492,492,492,386,492
492,491,493,364,491
492,493,494,368,490
492,493,493,379,493
493,489,493,419,490
493,491,493,479,491
493,492,492,545,492
494,490,491,621,492
492,490,493,640,491
491,490,493,630,492
495,493,492,580,491
492,492,492,477,492
494,492,493,407,491
494,493,493,371,490
493,493,492,366,491
494,491,494,371,491
493,491,491,393,490
492,492,493,444,492
493,490,493,505,491
492,491,494,579,490
491,491,494,636,493
493,491,493,638,491
494,492,493,622,492
494,493,492,535,492
494,493,492,436,491
494,492,492,393,492
492,492,494,364,493
493,491,492,368,492
493,492,493,375,491
492,491,494,409,490
492,492,493,470,491
492,491,493,534,491
493,490,492,613,492
493,492,492,642,491
492,492,494,633,493
493,490,491,591,493
493,492,493,489,493
493,492,492,413,491
494,492,493,374,490
491,491,492,366,493
493,493,492,371,491
494,492,492,386,490
494,492,492,437,491
492,491,492,499,491
494,491,492,569,490
492,493,492,632,491
492,492,493,637,491
492,493,495,626,491
492,493,491,551,494
494,493,494,447,492
494,492,493,398,492
494,492,491,367,491
494,491,491,366,492
494,491,492,376,492
493,490,492,404,490
493,492,492,463,492
493,491,493,527,491
492,491,494,605,490
492,492,493,641,491
494,493,493,636,492
492,491,493,598,491
495,493,492,501,492
493,491,492,418,492
494,491,492,380,493
494,491,492,364,492
492,491,491,371,492
494,492,493,380,490
494,491,492,431,491
492,491,492,491,491
492,492,492,560,490
493,492,493,629,491
492,491,493,640,493
493,490,493,629,491
492,491,492,561,493
494,492,492,456,492
493,492,493,400,491
492,492,494,367,491
494,490,492,365,491
493,493,493,373,492
492,490,491,401,492
494,491,492,456,491
493,491,493,518,491
492,489,493,598,490
494,490,494,638,491
494,492,492,637,491
493,494,494,609,490
493,494,494,515,492
492,493,493,425,493
493,491,493,386,491
495,493,494,365,490
492,490,492,370,492
493,491,492,379,493
493,491,493,422,491
492,492,492,484,491
492,491,493,549,491
493,491,492,624,491
493,492,492,641,491
494,493,492,631,492
494,493,492,578,492
494,493,493,467,492
494,492,491,406,492
493,493,493,369,493
492,491,492,362,490
492,492,494,373,489
493,492,495,394,493
493,490,492,447,490
492,492,492,510,492
492,490,491,589,492
494,492,491,637,492
493,491,493,637,492
492,493,492,620,491
492,491,494,526,492
494,493,493,432,492
493,492,493,389,490
493,493,494,366,491
493,493,492,367,491
492,491,491,379,492
495,492,494,414,490
493,491,492,476,491
492,491,492,540,491
492,491,493,617,491
492,492,494,641,492
494,491,492,632,490
494,494,492,586,493
493,492,492,481,491
494,492,492,411,491
494,492,492,375,492
494,492,493,364,491
492,491,492,371,491
493,493,491,388,491
492,491,493,440,491
492,492,492,503,490
492,493,493,577,492
492,490,493,636,491
494,492,494,637,490
493,490,491,625,493
495,491,491,540,492
494,493,492,443,492
493,492,492,394,492
492,491,493,368,491
494,491,494,367,491
493,493,493,376,491
493,493,492,408,490
493,492,493,467,491
493,491,493,529,491
494,490,492,612,490
492,493,493,640,492
493,492,493,632,491
492,492,494,592,491
492,492,494,495,492
494,492,492,414,491
493,491,493,377,493
494,493,492,365,492
494,492,491,371,492
494,491,493,386,493
492,493,493,433,492
493,491,492,496,490
493,492,493,565,490
491,491,494,629,490
493,493,493,638,490
494,493,493,627,492
492,494,492,555,492
493,492,494,451,492
494,491,491,398,492
493,490,491,367,493
492,491,493,365,491
492,491,493,376,492
494,491,494,400,489
492,491,492,462,491
492,491,493,521,490
493,492,491,605,490
494,493,492,641,492
493,492,493,634,492
492,490,492,604,490
494,493,493,505,492
493,491,492,418,491
494,493,494,382,490
492,493,491,365,492
492,493,491,371,491
492,492,493,380,491
495,491,491,427,492
494,492,492,487,490
493,492,493,556,490
493,493,492,625,492
492,492,492,642,492
494,493,494,629,490
493,493,493,567,491
494,493,493,460,491
493,493,492,404,491
492,492,493,366,492
496,491,492,365,490
493,494,492,372,492
493,491,492,395,490
492,491,493,452,490
492,491,492,516,491
493,493,493,594,490
492,491,493,638,491
494,491,491,637,492
494,491,491,615,492
495,491,492,520,491
493,492,493,426,492
493,491,493,387,491
495,491,494,364,490
493,492,493,368,490
493,493,493,379,489
493,490,493,419,491
493,492,492,480,491
492,491,493,549,492
493,490,492,622,493
493,491,493,639,492
492,492,494,630,490
492,491,492,582,492
494,493,493,472,491
494,492,492,409,491
493,492,492,369,490
494,493,492,365,492
495,492,492,373,490
493,492,494,392,493
493,491,493,446,490
493,491,492,507,492
492,491,493,581,490
492,491,494,635,490
493,491,493,637,492
494,493,491,623,491
492,492,494,533,492
494,492,493,435,491
494,492,492,391,492
494,491,491,366,491
493,493,493,366,490
492,492,492,378,491
491,492,494,411,490
492,491,493,471,491
493,492,493,536,491
493,493,492,616,491
491,491,493,641,492
494,490,494,632,490
493,490,492,588,493
493,492,492,484,492
494,492,493,411,491
492,492,491,376,492
492,492,493,363,492
492,491,493,373,491
494,492,491,388,491
495,491,491,438,491
494,492,493,500,491
492,492,492,570,492
492,493,493,634,491
493,492,493,637,491
493,493,494,624,490
493,493,494,545,491
494,492,491,445,492
494,492,492,393,491
492,492,491,369,492
494,490,492,366,492
493,490,492,374,492
492,490,492,403,491
492,491,492,465,491
493,491,493,527,491
493,490,492,609,490
492,492,492,641,491
494,491,491,634,492
494,491,491,595,491
492,493,492,498,492
494,493,493,416,490
493,491,493,377,492
492,490,492,362,490
493,491,493,369,490
493,490,492,384,490
493,493,492,430,491
492,491,493,495,491
493,492,491,563,492
494,492,491,630,493
494,492,493,640,492
494,492,494,626,491
495,493,491,560,491
493,492,493,454,492
492,491,493,399,491
493,494,493,367,489
493,493,492,365,491
492,492,491,374,492
494,492,495,400,489
493,490,491,458,492
493,491,491,519,491
492,491,493,599,491
494,492,491,640,490
493,493,493,635,492
492,491,492,608,491
494,494,492,511,492
494,493,492,423,491
494,492,493,384,490
492,490,491,364,492
493,493,492,371,491
492,491,493,379,491
491,491,493,423,490
492,492,493,486,491
493,491,492,553,490
493,492,492,623,491
492,492,492,642,492
493,490,492,630,493
493,491,492,573,493
493,492,492,466,491
493,492,492,405,491
493,492,494,369,492
495,491,494,366,491
494,492,492,373,490
494,493,492,396,491
494,492,494,449,491
492,491,492,511,491
493,493,494,590,492
492,490,493,637,492
492,492,494,634,491
493,493,495,616,492
494,491,492,524,491
493,492,492,429,492
493,492,492,390,491
495,492,491,367,492
495,491,492,368,492
493,493,493,379,491
492,490,492,415,491
494,492,492,478,491
492,491,493,543,490
492,492,494,618,490
493,493,493,641,490
494,492,494,631,491
492,492,491,585,493
493,493,494,477,492
494,491,492,409,492
493,491,492,370,493
493,491,493,363,492
493,491,491,372,490
493,493,491,391,492
492,493,492,444,491
493,491,493,505,490
494,492,491,580,491
494,492,495,636,490
493,491,493,636,491
494,493,492,623,492
492,491,494,535,491
493,492,493,438,491
493,492,493,393,492
493,491,493,367,491
494,491,493,366,490
494,491,492,378,491
494,490,491,411,492
493,491,492,468,491
493,491,492,533,490
493,491,491,612,491
492,492,492,641,492
493,493,493,635,491
494,492,493,591,490
495,493,493,490,491
493,492,493,413,492
494,491,492,376,490
492,493,494,365,492
492,491,493,370,492
492,491,493,383,490
492,491,494,437,491
494,491,492,499,491
493,491,492,568,492
493,493,492,635,491
494,491,491,639,492
494,491,492,627,493
493,494,494,552,492
493,492,492,447,491
494,493,493,397,491
492,492,494,365,490
492,492,493,366,490
494,494,493,376,490
494,490,493,403,491
494,491,492,462,491
493,492,494,527,492
492,490,492,607,493
493,490,494,640,491
493,492,495,637,492
494,491,495,600,490
493,492,492,503,492
493,492,493,418,491
493,492,492,382,491
495,493,491,364,492
492,493,494,370,492
493,490,492,382,489
493,493,493,428,491
492,491,492,490,491
492,491,493,557,490
492,492,492,629,492
492,493,492,641,491
492,491,494,626,492
495,492,492,566,492
494,492,492,458,492
494,491,491,400,492
493,491,493,368,490
493,492,494,364,490
493,492,492,374,492
492,492,494,398,489
493,493,493,454,491
493,492,493,516,491
492,492,493,596,492
494,491,492,638,491
494,494,494,636,492
492,491,493,610,492
492,491,493,515,491
493,492,493,426,491
493,492,493,386,491
493,490,492,366,490
494,493,492,371,492
494,490,491,380,492
495,491,491,421,490
492,492,493,482,491
492,491,492,549,490
493,491,494,622,491
492,491,494,640,490
493,493,493,630,490
493,494,494,576,490
493,492,493,471,491
493,491,492,403,490
492,492,492,370,493
494,491,492,364,493
492,490,492,371,492
492,490,492,396,491
494,491,493,446,491
494,491,493,510,490
492,491,493,588,490
493,492,493,637,491
495,492,491,637,490
492,494,494,622,493
494,491,494,527,491
494,492,493,433,491
492,491,493,389,491
492,491,493,364,490
492,491,492,369,492
493,492,492,379,492
492,490,493,415,490
493,492,493,476,491
493,492,492,541,492
493,491,491,618,493
493,491,494,642,491
494,492,495,631,491
495,493,492,588,490
493,493,493,482,491
493,492,493,411,491
494,493,492,373,492
492,490,493,365,492
494,491,494,371,490
493,491,492,390,493
492,490,492,440,492
492,491,492,501,491
492,492,492,576,491
491,491,494,633,493
493,491,492,639,490
493,493,493,626,490
494,494,492,543,492
494,493,492,440,491
492,492,492,394,492
493,493,494,364,490
492,491,493,366,491
491,492,493,375,491
491,491,494,405,490
492,492,493,466,491
493,492,492,532,491
493,491,493,609,491
492,492,493,644,492
493,491,492,635,493
493,490,492,594,493
493,494,493,496,491
493,492,493,414,491
494,492,492,376,490
491,492,494,365,490
494,493,492,371,491
494,493,492,382,491
491,491,491,435,491
493,491,492,494,491
493,491,492,566,492
492,489,492,631,491
492,491,493,637,490
494,492,491,629,490
492,492,495,555,493
494,492,494,451,491
493,493,493,400,491
494,493,491,368,491
494,491,491,365,492
494,492,494,375,490
493,490,492,400,491
494,492,492,459,491
492,491,493,521,490
491,491,493,602,490
492,493,492,640,492
492,491,493,637,492
494,492,493,602,491
495,492,492,508,492
494,492,492,422,492
493,491,492,382,492
494,494,493,366,491
492,492,493,370,492
493,491,493,380,489
492,493,493,427,490
493,492,492,487,491
493,492,493,554,491
491,492,492,629,492
493,493,493,640,492
493,491,493,629,492
492,492,493,569,492
493,492,492,462,492
493,492,493,404,491
494,491,494,367,490
492,491,492,364,491
494,493,492,376,491
494,491,490,399,492
494,491,491,451,491
492,492,493,514,491
492,490,492,594,490
494,493,493,637,490
493,492,493,635,490
493,493,493,614,490
493,494,492,520,492
494,493,493,428,491
493,492,492,386,492
495,492,491,367,492
493,490,492,368,493
493,491,493,377,490
495,494,492,418,490
492,491,491,479,491
494,492,493,546,490
492,493,493,621,490
494,492,492,642,492
495,492,491,631,493
492,492,495,579,493
494,492,492,472,491
494,492,492,407,491
492,491,493,369,492
492,491,493,363,490
493,492,491,373,492
493,492,494,393,490
492,491,492,444,490
493,492,492,508,490
493,491,491,584,492
493,491,491,635,490
493,493,493,637,491
491,490,491,623,491
495,491,494,531,491
493,492,493,437,491
493,491,493,391,491
493,491,492,366,492
493,491,492,369,491
491,492,493,377,492
494,491,491,412,492
492,491,492,472,491
492,491,492,535,491
491,491,491,616,491
494,492,494,640,490
493,491,492,632,491
494,494,493,590,491
494,493,492,486,492
494,492,492,412,492
493,493,494,376,493
494,490,492,363,491
494,491,493,370,491
492,492,494,385,491
492,492,494,437,491
492,492,492,500,492
493,492,493,572,492
492,490,493,635,492
495,492,492,639,493
494,491,492,626,493
494,491,492,546,491
493,493,492,445,492
493,492,492,395,491
493,492,494,364,491
492,492,494,367,490
493,492,493,376,490
494,493,493,404,491
492,491,493,465,490
493,492,493,526,490
492,490,491,610,492
493,491,492,641,491
492,491,494,632,491
492,492,491,600,492
492,492,494,499,492
495,492,493,416,490
493,493,493,381,491
494,493,492,364,491
494,491,491,368,490
493,493,492,384,493
493,492,493,430,491
492,491,493,493,491
492,492,494,561,490
491,491,494,628,491
493,492,493,640,491
495,493,492,627,491
492,491,491,562,492
494,493,493,456,491
493,491,492,401,492
493,490,491,367,492
494,493,493,366,491
492,491,493,373,492
494,492,491,398,489
492,493,493,456,491
492,491,492,518,491
493,492,492,598,491
491,491,492,641,492
494,492,493,634,490
493,490,492,608,493
492,491,493,512,492
494,492,492,422,491
494,492,492,385,490
492,492,494,365,492
492,490,492,370,490
494,493,492,381,490
494,492,491,425,491
493,491,493,484,490
492,491,492,552,492
493,492,492,624,491
491,491,493,639,490
492,492,494,630,490
492,493,494,572,491
493,493,493,466,491
493,491,492,405,491
495,491,494,365,491
495,491,492,366,492
492,490,492,373,492
492,490,491,394,492
494,492,492,450,491
492,491,493,512,491
493,491,493,590,489
492,494,494,640,491
494,492,492,638,492
494,492,494,616,490
492,491,492,526,492
493,492,492,429,492
493,491,492,388,491
492,491,493,365,491
492,492,493,368,492
494,491,492,378,490
492,493,491,416,491
492,492,492,477,490
493,492,492,544,491
493,491,491,621,492
493,490,492,640,492
494,493,492,633,491
491,490,493,585,492
495,492,493,477,491
493,492,493,409,491
493,493,493,372,490
493,494,493,362,490
492,492,491,374,492
493,492,494,389,493
493,490,492,443,491
493,491,493,505,491
492,491,493,577,491
494,492,492,636,490
493,493,492,638,492
493,493,492,625,490
494,494,492,539,491
494,492,492,439,491
494,492,493,392,490
493,491,491,368,490
493,493,493,365,491
492,492,493,376,490
491,491,494,409,490
492,491,493,468,491
493,492,492,533,491
492,492,492,615,490
492,491,493,640,492
493,491,492,635,492
493,491,492,594,493
494,491,492,491,491
493,492,492,414,491
492,491,492,377,492
495,492,494,363,490
493,493,493,372,490
493,492,492,386,490
494,491,493,433,490
493,492,492,499,491
492,491,492,568,492
492,491,492,632,491
491,491,494,638,490
491,492,494,627,493
495,491,495,550,490
493,492,492,449,491
493,492,492,396,491
494,492,492,367,491
494,491,491,367,492
493,490,491,373,490
493,493,493,402,492
492,491,492,461,490
493,492,493,523,490
492,492,494,605,490
492,492,493,640,491
494,491,494,633,491
494,493,492,604,491
492,492,494,502,492
494,492,492,419,491
493,491,492,381,493
493,490,491,364,491
494,492,494,369,490
492,491,491,383,492
492,493,493,428,490
492,492,493,490,490
492,492,492,558,491
491,491,493,625,492
493,491,492,641,490
493,492,493,627,491
492,491,493,564,492
493,492,492,459,492
493,491,492,402,491
493,491,492,368,493
492,493,493,367,492
492,491,493,374,491
494,492,491,400,492
493,491,492,455,491
493,491,492,514,490
493,493,493,596,492
491,493,492,640,492
493,493,493,634,490
493,493,494,611,490
492,493,493,517,492
494,492,492,425,491
493,492,492,385,491
492,490,491,366,492
494,491,492,368,492
492,491,493,379,493
492,490,491,422,491
493,491,493,482,490
493,491,492,551,490
492,491,493,621,490
493,492,493,642,491
494,491,492,632,492
494,493,491,575,491
493,493,492,472,492
493,492,493,405,490
493,491,492,368,492
492,491,493,364,490
492,492,493,372,490
493,491,491,395,489
493,493,492,448,492
492,491,492,510,490
493,491,491,588,491
494,491,491,637,492
492,490,492,637,490
494,491,494,619,491
495,493,492,530,491
493,492,492,433,491
493,492,493,390,490
492,493,494,366,492
492,491,493,369,491
494,493,493,377,490
491,491,491,414,492
493,492,492,475,491
493,491,492,539,492
491,490,492,615,492
495,492,492,642,490
493,493,494,633,493
493,490,494,586,490
494,493,493,483,491
493,492,492,412,491
494,491,493,371,491
492,491,492,365,492
493,492,493,372,492
493,490,493,387,491
491,491,493,440,490
492,491,492,501,491
493,490,491,575,489
492,493,491,635,491
492,492,491,639,492
494,492,491,626,492
495,491,491,544,493
494,492,493,441,491
493,492,492,394,491
494,493,492,363,491
492,492,493,365,490
492,493,493,376,490
492,493,494,407,490
493,493,492,466,491
493,492,492,530,491
491,492,493,609,492
495,492,492,641,492
493,491,493,633,492
492,490,492,594,492
495,493,492,495,491
493,492,492,416,492
493,492,493,377,490
492,494,494,364,490
494,492,491,372,491
494,491,493,381,490
495,490,492,433,490
492,491,492,495,491
493,490,492,563,491
491,491,493,630,490
491,492,493,640,492
494,491,493,627,490
492,490,491,555,492
494,493,493,451,490
493,493,492,399,491
494,492,491,369,492
494,490,491,365,490
493,493,492,373,491
492,491,491,402,491
494,491,493,457,491
492,492,493,521,490
492,492,494,602,489
493,490,493,639,491
494,492,492,637,490
492,492,494,606,493
495,492,492,508,492
495,493,493,421,492
493,491,492,383,490
494,494,493,363,490
492,491,491,371,492
493,492,493,380,489
492,494,492,427,490
493,493,493,487,491
492,491,492,553,491
494,492,492,626,490
493,493,493,640,492
492,491,493,628,491
492,491,494,569,491
492,492,493,464,491
493,492,492,404,491
493,493,494,367,493
493,491,492,366,491
494,493,492,374,491
494,491,491,399,492
494,491,492,450,490
492,492,492,513,491
491,492,491,594,490
491,490,493,637,490
492,493,494,636,489
493,493,493,616,490
493,491,492,520,490
493,493,493,429,491
492,492,492,389,492
495,491,491,366,492
493,490,492,369,492
492,490,492,379,490
494,490,494,417,490
493,491,492,480,491
492,492,493,545,490
493,493,494,621,490
494,493,493,643,492
495,491,492,630,490
493,492,491,583,493
494,493,493,474,491
494,491,492,407,491
492,492,493,370,491
492,491,494,364,490
494,490,491,373,490
493,493,494,393,492
492,491,492,445,490
493,492,492,507,490
493,491,491,583,491
493,491,494,635,490
493,491,492,637,491
494,492,492,624,491
493,491,494,532,490
493,492,493,437,491
493,492,493,393,492
493,491,491,366,490
493,493,493,366,490
491,491,491,377,492
495,491,491,411,491
493,491,492,472,490
492,491,491,535,491
494,493,491,615,491
491,492,494,642,492
493,490,493,633,490
494,494,494,589,491
494,494,493,488,491
494,492,492,411,491
