Sensor0,Sensor1,Sensor2,Sensor3,Sensor4

6,493,254,9,496
494,166,494,757,493
493,866,496,684,496
492,411,495,102,495
492,208,495,896,495
494,878,493,254,9
496,494,166,494,757
493,493,866,496,684
496,492,411,495,102
495,492,208,495,896
495,494,878,493,254
4,496,494,166,494
757,493,493,866,496
684,496,492,411,495
102,495,492,208,495
896,495,494,878,493
254,496,493,217,495
106,495,493,377,494
913,495,493,772,497
125,497,495,173,495
482,495,494,756,495
895,495,493,508,493
126,495,492,162,495
890,495,494,885,493
417,496,493,297,495
107,495,492,297,494
904,494,496,853,494
126,497,493,200,494
111,495,495,588,495
915,495,493,617,497
111,496,493,174,495
844,495,494,886,493
629,495,495,386,496
123,495,495,236,494
893,495,493,879,494
233,494,494,218,496
99,496,494,633,493
903,494,493,579,494
105,495,496,158,495
902,497,494,875,493
538,495,491,352,494
103,495,492,252,493
893,495,496,875,494
176,495,496,205,496
99,495,492,699,495
913,495,494,525,494
101,495,494,166,496
899,494,492,878,495
467,495,496,322,493
107,496,495,271,494
914,495,496,859,495
148,495,495,187,492
90,496,497,748,494
876,494,494,490,497
105,496,494,165,494
903,495,498,880,494
390,499,493,277,495
106,499,495,297,495
909,500,481,846,494
128,497,504,185,496
146,505,492,602,495
922,491,493,601,494
118,501,490,154,494
848,490,499,882,494
589,504,478,369,497
106,499,488,234,494
896,507,494,876,494
211,500,495,197,493
102,501,487,414,492
913,495,492,735,494
116,493,495,173,491
588,493,493,790,493
812,497,486,483,496
128,494,496,174,493
901,491,500,883,493
356,494,499,271,493
101,493,492,324,492
911,492,490,821,494
126,491,494,190,493
255,492,477,653,493
911,492,490,569,493
104,484,488,162,491
896,493,495,880,492
526,488,495,346,494
107,493,494,250,495
910,494,494,869,494
159,493,493,191,495
89,494,493,700,493
923,495,493,522,493
108,495,496,155,494
908,494,493,872,495
462,497,493,302,495
101,497,496,268,497
897,496,496,845,493
122,499,494,189,494
98,497,496,768,495
856,499,496,493,494
104,500,497,166,495
900,499,497,874,495
405,500,496,288,495
102,498,497,294,493
913,499,498,844,496
125,498,497,193,494
128,499,498,589,494
922,498,498,609,495
107,498,497,170,495
871,496,497,883,493
594,496,495,383,494
92,498,497,340,496
912,496,497,829,495
125,498,498,196,495
274,497,497,673,493
916,497,495,563,497
124,496,498,165,495
904,495,496,884,494
521,496,497,342,496
109,495,497,262,493
911,495,497,863,495
146,496,493,199,494
98,494,494,720,494
921,496,494,517,494
119,494,494,156,495
898,495,496,877,494
453,494,496,302,497
108,495,495,278,496
910,495,495,851,494
136,495,495,191,495
95,495,495,775,494
848,495,494,483,494
118,494,494,167,495
894,496,495,868,494
379,495,495,270,494
95,495,493,451,494
908,495,493,700,494
119,496,494,167,496
652,495,492,810,494
771,494,496,451,497
123,496,497,181,497
888,494,496,883,495
298,498,489,247,494
101,503,498,331,495
924,493,494,808,496
128,486,498,187,493
323,495,510,691,496
910,492,499,544,498
99,502,501,228,493
898,499,493,894,495
254,492,489,239,493
114,489,495,372,494
902,494,452,776,495
118,497,503,175,492
466,498,483,738,495
905,492,496,512,493
120,497,495,180,493
906,486,495,885,493
439,497,494,315,497
111,493,474,296,493
916,501,491,859,493
136,490,506,206,493
92,498,496,767,495
842,495,503,485,495
127,500,489,165,494
892,500,508,876,492
385,496,488,275,496
101,496,493,306,491
898,496,492,829,494
112,498,489,192,493
175,494,491,614,493
916,494,490,596,495
126,493,492,161,494
888,495,493,878,490
575,496,492,371,494
100,495,492,247,493
899,496,492,871,494
214,498,495,216,494
94,498,496,655,493
914,497,494,552,493
124,500,496,173,493
903,500,495,894,493
519,500,498,356,495
115,499,498,276,495
906,499,496,878,494
176,501,497,210,497
99,498,497,714,494
918,501,496,524,497
125,498,498,153,495
898,496,495,878,495
474,499,496,316,497
99,496,497,387,493
912,497,495,759,496
125,497,496,180,494
500,497,496,764,496
887,495,497,511,494
118,496,496,164,496
899,495,496,882,494
420,495,495,295,494
99,495,498,418,493
913,495,494,726,495
115,495,495,171,494
595,496,495,781,494
810,496,496,472,494
133,495,496,169,495
910,496,495,875,493
362,495,494,253,496
100,495,495,323,494
910,496,495,828,495
130,495,495,187,496
256,495,495,650,496
901,494,495,568,495
128,495,494,162,494
890,494,495,881,495
529,496,494,358,496
103,495,495,260,495
900,495,494,876,497
187,496,494,208,496
94,495,495,703,495
925,495,494,539,495
123,494,495,173,495
896,496,495,876,496
467,497,495,324,496
115,494,495,278,495
915,495,496,871,493
132,494,495,205,494
95,495,493,743,495
889,494,491,501,497
125,497,495,161,496
898,498,507,878,494
397,497,510,283,495
94,495,480,433,494
925,492,513,709,497
127,494,498,164,496
625,497,500,791,492
799,498,486,459,495
121,500,482,173,494
903,488,490,876,493
326,494,517,247,493
103,495,479,308,494
914,492,489,803,492
114,499,485,170,492
300,494,484,665,490
927,491,490,552,493
121,498,485,156,492
882,497,486,884,493
518,499,486,336,492
103,494,504,258,493
905,493,476,867,492
167,491,501,195,494
93,493,496,724,491
913,496,492,517,494
107,494,498,165,494
900,494,485,870,494
454,493,491,302,493
100,494,492,280,495
895,493,491,857,492
127,495,495,202,493
100,495,493,563,492
923,497,495,641,493
117,497,497,164,492
805,497,493,881,492
633,497,496,393,493
116,498,497,228,494
903,498,495,877,493
242,500,497,238,495
106,499,495,408,493
906,500,494,757,494
111,502,497,174,496
528,498,496,761,495
853,498,496,492,495
118,498,497,173,495
892,498,495,880,494
394,499,495,283,496
95,498,497,448,494
911,496,497,727,494
128,496,496,178,496
631,497,496,809,495
783,496,495,466,494
110,496,496,192,494
897,494,495,891,495
317,495,496,266,496
101,494,495,330,494
915,495,496,819,495
122,494,497,188,494
281,496,494,665,495
919,497,496,568,497
109,495,497,158,495
888,497,497,889,493
521,495,494,338,496
94,496,495,361,496
900,495,495,790,495
110,494,495,191,494
408,495,494,732,495
915,495,495,538,495
117,494,495,186,495
908,494,494,891,495
460,494,494,331,495
101,496,494,299,493
913,495,493,863,495
144,496,497,206,497
99,494,494,787,494
839,494,494,498,495
100,494,494,182,494
903,494,494,905,493
378,494,493,301,495
106,496,492,323,496
902,494,493,863,494
132,494,494,208,495
155,495,494,616,495
925,494,494,609,494
113,494,492,164,494
863,494,493,888,494
590,495,493,382,493
105,494,496,234,494
910,495,496,855,495
214,497,506,182,494
101,504,484,388,495
908,495,495,679,495
127,500,494,103,495
619,497,500,726,494
825,483,498,397,494
122,494,489,120,493
904,488,490,805,496
355,497,479,174,496
105,490,482,248,494
909,495,499,737,495
122,497,484,103,492
253,504,487,563,494
903,492,494,485,493
122,495,515,91,494
901,496,493,822,494
272,500,487,210,493
96,503,500,517,490
925,499,493,617,496
119,493,496,171,492
780,493,492,887,494
639,499,490,424,492
110,495,482,255,494
896,493,491,906,494
233,495,496,265,493
103,492,491,444,494
902,499,493,786,494
116,494,493,215,492
531,493,492,789,496
867,494,493,526,494
133,495,493,197,493
893,495,494,894,495
406,497,495,298,493
103,498,494,309,496
914,498,496,844,493
119,500,496,203,496
138,499,495,609,494
924,499,496,614,494
126,498,496,163,495
862,499,496,862,493
579,499,496,363,496
107,499,496,223,496
886,498,496,868,495
192,497,496,197,496
99,497,495,640,495
910,498,493,565,494
121,497,494,165,494
889,496,496,876,493
528,496,495,353,495
93,497,496,356,496
913,495,497,803,494
132,495,497,190,497
403,495,495,725,496
910,494,495,534,496
112,496,498,179,496
891,497,496,884,493
450,495,497,319,497
96,496,494,404,495
922,495,496,773,495
127,494,495,187,495
540,496,496,769,494
861,497,496,507,494
101,493,493,185,494
887,494,495,889,494
389,495,494,295,495
115,495,492,307,495
915,495,496,856,494
122,494,494,196,496
144,493,494,603,495
922,494,494,623,494
111,495,494,166,495
841,495,494,891,493
590,494,495,384,495
119,494,494,244,495
913,493,496,893,493
194,495,495,226,494
93,493,493,641,496
905,493,494,573,494
113,494,494,162,495
890,494,494,886,494
520,494,495,346,495
104,494,494,260,494
905,494,494,872,494
163,494,494,198,493
96,495,495,709,496
907,496,494,522,496
117,493,493,162,494
902,493,496,886,494
456,495,492,312,495
99,493,492,384,494
901,494,494,762,497
125,501,504,164,496
524,499,496,766,495
878,493,510,491,494
100,496,493,159,495
902,502,502,887,494
397,496,490,292,494
96,493,463,448,493
909,500,480,730,494
122,489,489,170,493
646,504,468,813,493
788,492,491,466,496
111,505,490,181,493
909,490,494,876,492
322,500,492,256,494
106,490,496,338,494
901,501,488,818,493
128,486,490,193,494
296,492,495,685,494
902,493,486,555,490
105,489,492,162,491
903,497,491,886,494
507,495,486,341,494
109,490,516,261,493
916,495,491,874,495
175,494,491,196,494
93,494,493,718,494
916,493,491,514,494
115,495,492,163,493
897,495,492,877,493
439,497,493,294,494
101,496,492,279,492
918,496,495,847,495
141,498,494,183,495
106,499,498,558,495
921,499,496,631,495
127,500,495,165,493
802,499,496,881,493
624,499,496,392,494
111,497,495,227,495
889,496,491,881,493
218,498,496,205,493
96,498,494,619,493
922,498,495,573,496
108,495,496,156,493
882,497,496,874,494
549,495,497,358,495
105,496,498,253,496
890,495,495,888,495
164,497,497,213,494
100,496,495,472,494
919,496,494,720,494
116,497,498,181,496
667,496,495,831,495
758,497,496,461,497
112,494,496,201,496
907,494,496,891,494
309,496,495,264,496
102,496,495,349,494
921,495,495,831,495
116,496,497,208,494
337,495,495,708,495
918,494,494,564,493
113,494,494,177,494
893,495,494,881,496
495,495,497,342,496
114,493,494,281,496
895,494,493,870,495
131,496,494,207,493
99,494,495,737,494
919,495,494,513,495
119,495,495,166,494
903,495,493,878,495
445,495,496,307,496
112,494,494,280,494
899,494,493,848,494
124,495,494,195,493
102,494,491,548,496
920,496,493,643,493
121,495,492,170,495
781,493,492,875,496
670,495,494,404,496
110,494,495,221,496
908,493,493,880,494
235,495,493,226,495
94,495,496,589,494
905,493,488,606,494
124,495,493,162,495
856,497,494,879,495
596,502,496,379,495
118,491,488,236,495
899,495,462,874,496
197,504,475,215,494
99,501,488,643,495
920,494,507,550,496
123,490,483,162,494
897,499,495,868,490
510,501,495,319,494
112,494,482,249,496
904,494,505,849,496
160,497,483,180,497
97,492,482,721,493
907,498,486,519,496
113,491,476,163,497
883,500,505,890,496
434,500,486,314,493
109,494,497,277,493
899,490,488,847,496
140,499,492,184,494
104,493,501,537,495
915,493,497,637,494
117,494,493,155,494
783,494,492,862,494
662,495,494,397,496
102,494,494,214,495
910,493,491,876,495
226,496,494,222,494
105,494,494,386,493
906,495,493,776,495
125,497,495,184,493
458,498,494,745,493
899,499,495,514,493
123,499,495,180,494
892,500,496,879,495
421,501,495,298,495
98,499,496,420,494
922,498,495,740,494
114,500,498,176,493
599,499,495,784,494
838,498,496,472,496
123,498,496,154,496
903,497,496,867,496
385,498,496,263,497
107,496,495,318,492
918,497,495,839,494
132,496,497,197,496
208,496,497,635,495
926,495,495,592,494
107,498,497,167,494
890,496,495,884,494
561,497,496,366,496
116,497,495,246,495
896,495,496,879,495
188,496,496,209,497
100,496,498,439,494
898,496,495,721,494
127,494,496,179,494
613,495,494,797,493
810,495,495,476,496
108,495,497,180,494
888,494,496,887,493
371,495,495,271,493
109,494,493,314,493
911,496,495,839,494
117,496,495,188,497
193,496,492,628,493
927,494,493,595,495
128,496,494,164,495
872,494,493,877,496
562,494,493,373,495
122,496,495,247,496
908,494,496,877,495
177,495,494,216,494
96,496,492,672,496
908,494,494,548,494
103,495,494,175,495
899,495,493,881,493
496,497,492,341,494
97,493,494,371,495
919,494,494,780,495
130,495,494,185,496
418,494,495,740,496
913,497,493,521,494
120,494,495,173,494
893,496,492,878,495
456,496,492,317,495
107,494,490,285,495
906,497,492,856,496
143,502,488,196,498
93,494,495,767,492
860,488,516,475,496
111,502,514,164,495
893,490,497,864,489
391,484,487,273,491
99,491,474,421,491
912,496,518,704,494
117,489,492,155,493
650,495,475,777,491
779,493,489,444,494
123,497,499,152,493
902,488,482,862,493
335,493,507,247,492
103,491,494,319,491
916,500,488,817,493
118,488,500,186,490
284,494,490,670,496
905,493,496,566,496
125,492,507,172,494
888,492,502,883,493
511,491,495,344,493
98,494,493,359,495
922,490,492,787,494
117,495,493,183,493
444,493,492,741,494
918,493,494,525,490
105,495,493,175,493
893,496,493,881,494
441,498,494,307,494
108,498,494,282,493
910,498,493,849,494
122,500,496,202,494
94,498,497,779,495
845,500,497,490,495
113,499,495,173,494
890,499,498,883,493
375,497,496,275,496
115,499,497,300,495
914,497,496,817,494
122,498,497,170,496
203,496,495,619,494
921,499,496,580,494
122,496,497,168,495
871,498,496,884,493
545,496,497,365,495
115,496,497,262,494
909,495,497,888,494
166,495,496,214,497
98,496,496,696,491
917,495,494,543,496
120,495,496,165,495
904,495,494,877,496
481,496,497,325,496
95,493,495,376,494
926,494,495,778,493
127,494,496,181,496
450,494,495,734,496
899,496,495,514,496
109,495,494,170,494
883,496,494,878,497
442,494,495,306,495
106,494,496,291,496
906,494,494,859,494
140,494,496,201,495
101,494,496,555,495
918,494,495,643,493
131,494,496,173,496
780,495,493,867,494
638,496,494,398,493
98,494,493,315,494
911,494,495,831,496
118,495,496,198,496
196,495,493,618,495
902,495,494,595,497
117,495,495,166,495
862,497,495,873,494
561,496,495,366,494
103,495,496,253,494
910,494,492,875,495
208,496,495,217,496
96,495,494,670,493
912,493,494,556,494
111,494,492,161,495
885,495,497,878,493
502,494,494,337,494
96,498,497,362,493
909,498,494,786,495
115,495,490,179,495
428,494,489,740,494
910,503,487,518,493
102,504,487,173,495
895,504,477,868,493
436,492,482,306,496
106,492,493,267,492
913,500,482,843,494
129,500,489,186,494
95,493,478,757,495
846,501,499,465,494
108,492,479,157,493
892,499,489,870,493
386,493,489,273,495
96,493,489,448,492
913,495,504,701,494
115,504,488,162,493
679,493,482,816,493
771,495,488,457,492
122,499,488,189,495
896,495,487,881,492
313,494,509,249,494
101,497,492,327,494
901,494,493,816,494
138,493,490,181,496
298,494,492,673,494
912,493,492,558,494
120,493,492,166,494
902,495,493,887,495
491,495,492,343,497
106,495,491,274,495
898,495,496,861,494
166,496,495,203,494
99,496,495,731,494
904,498,496,518,496
100,498,495,185,493
906,498,497,892,494
442,500,496,320,496
110,498,496,301,492
895,500,493,856,493
116,498,495,206,493
103,498,496,547,493
908,498,494,630,495
123,498,497,151,494
786,497,497,863,495
656,497,496,390,494
97,498,495,312,493
901,497,494,835,494
115,498,496,206,494
175,496,496,624,493
913,496,495,602,497
124,496,497,159,495
852,497,495,867,495
563,497,498,351,495
120,495,495,215,494
906,496,497,838,496
186,495,496,175,496
98,495,496,608,495
918,495,494,498,494
106,494,496,102,493
897,493,494,812,496
501,494,496,287,495
104,494,494,215,495
902,494,495,828,496
175,495,494,151,493
92,493,494,672,494
907,495,493,457,494
105,494,495,82,494
904,494,495,782,495
199,496,495,103,494
104,494,494,334,493
914,494,493,638,495
129,494,493,77,494
885,494,494,785,493
519,495,493,224,497
107,495,492,148,493
895,495,496,752,494
184,496,492,71,496
335,495,493,580,494
907,497,495,399,496
105,496,494,64,494
907,494,494,763,494
243,496,493,106,495
101,495,492,310,496
917,495,493,668,494
113,497,495,78,494
865,496,494,802,496
566,495,496,286,493
117,494,494,170,495
909,494,495,798,494
206,495,494,103,494
96,495,496,600,494
904,496,491,485,494
120,494,494,91,495
902,495,491,814,496
249,497,507,148,494
110,494,499,307,495
899,497,491,694,496
116,498,503,76,491
836,497,485,788,494
600,499,467,288,493
112,493,484,166,496
896,496,496,795,497
199,489,495,116,495
96,504,485,572,495
906,485,492,452,491
119,496,507,86,493
901,495,488,819,495
261,492,494,176,494
97,493,486,510,494
906,497,492,574,495
124,490,496,116,494
806,501,473,824,492
620,484,486,339,496
99,494,508,278,495
909,495,490,785,493
130,490,501,164,498
224,495,485,624,496
922,496,488,564,495
131,498,492,144,495
892,497,489,866,495
542,495,502,347,496
109,493,488,269,493
907,496,487,892,495
180,495,492,235,496
100,494,494,509,494
926,496,493,732,496
120,496,495,215,494
677,496,493,872,493
743,497,494,471,496
114,498,495,217,495
891,497,495,900,495
319,500,496,282,495
108,500,497,366,495
904,500,497,829,495
121,498,498,202,493
344,498,497,702,495
916,499,495,546,494
115,498,495,163,494
889,498,496,876,493
491,497,495,330,495
104,496,495,280,496
915,496,496,886,494
159,496,496,228,494
96,496,497,771,495
904,495,496,543,495
106,495,496,211,494
909,494,496,926,495
424,496,495,333,494
107,493,494,333,496
897,494,495,886,495
127,494,496,230,495
95,495,495,814,494
816,494,495,495,496
114,494,495,200,496
902,496,494,887,495
353,495,495,278,496
106,494,494,327,493
917,495,495,847,495
133,494,495,202,496
216,495,493,650,495
912,496,494,601,495
121,495,496,175,494
894,494,494,905,494
550,494,495,381,496
116,495,496,280,496
915,494,497,909,495
194,493,495,229,496
102,495,493,503,493
915,496,493,737,495
111,494,497,207,494
674,494,493,854,494
766,494,495,477,497
121,494,495,216,495
912,494,492,909,495
298,494,493,276,494
97,494,493,552,494
910,494,492,670,494
120,496,496,189,494
768,493,494,895,492
670,495,493,435,496
100,493,493,245,495
913,495,494,895,495
253,494,492,259,495
98,494,495,617,494
928,495,492,617,496
129,495,496,176,495
879,493,493,896,494
593,495,494,389,496
118,494,495,260,493
894,493,492,897,495
205,495,493,232,495
95,495,492,666,495
914,496,493,573,495
104,495,493,182,495
896,494,492,895,493
517,494,493,360,495
102,494,492,280,494
915,495,492,886,494
173,496,494,211,497
101,495,492,504,495
913,495,493,702,496
119,496,492,187,495
679,495,494,854,494
732,496,493,459,495
107,496,494,218,494
900,496,492,908,496
280,496,500,272,496
93,496,492,558,494
923,496,493,656,495
120,500,489,190,495
800,495,493,895,496
656,495,471,415,495
120,503,487,232,491
888,500,490,902,493
246,502,486,238,495
106,493,498,409,493
925,496,484,784,495
124,494,481,197,494
515,491,477,787,494
876,497,506,514,495
107,495,501,177,493
894,487,489,893,492
429,489,483,308,492
100,493,494,299,495
916,489,483,863,493
124,494,505,77,499
594,496,496,721,495
824,498,492,419,498
125,506,510,125,495
905,497,493,841,496
384,490,493,238,494
99,496,488,432,493
924,493,494,669,493
125,491,490,150,495
669,498,498,809,495
747,491,498,445,495
115,494,489,199,491
886,494,491,890,494
309,493,494,272,493
111,494,492,359,493
926,494,491,825,491
127,493,494,206,495
364,493,493,725,493
906,495,495,557,495
114,496,493,197,493
888,499,495,894,494
465,496,497,340,493
99,499,496,413,494
897,499,495,774,494
125,498,496,190,494
519,497,495,789,494
858,499,496,505,494
102,497,495,182,494
891,498,496,881,495
398,497,496,290,493
112,496,497,310,495
912,496,496,856,495
118,496,497,215,493
159,496,496,622,493
914,495,491,628,493
121,497,495,190,495
857,494,497,901,493
615,494,496,407,493
115,495,495,253,494
904,493,496,896,495
213,494,496,228,494
97,494,495,656,495
923,494,495,577,496
104,495,498,162,495
897,495,494,882,495
533,496,495,350,494
106,494,493,264,493
899,495,495,869,494
178,494,495,199,495
94,493,494,733,493
909,494,495,522,496
116,494,493,172,495
903,495,493,884,494
449,494,494,322,496
106,494,494,298,495
914,495,492,877,494
141,495,496,222,497
96,495,493,794,494
855,494,494,514,496
111,494,493,196,494
903,497,494,897,493
376,495,494,305,495
102,495,494,330,493
912,495,493,851,494
129,495,492,212,494
187,493,493,630,494
929,495,492,610,496
127,496,496,179,495
853,495,493,888,494
580,496,494,372,495
112,494,495,248,494
908,493,493,879,496
183,495,493,201,493
95,494,493,663,496
910,496,494,559,496
109,495,495,160,495
900,494,494,886,495
523,493,495,352,494
97,496,496,360,495
905,494,494,806,494
127,494,493,192,493
382,495,493,725,495
910,495,492,542,497
108,494,495,180,494
907,493,493,889,496
437,495,494,324,496
108,494,493,303,495
909,494,495,868,494
144,494,494,212,496
106,495,494,560,495
926,495,493,646,495
110,495,494,179,496
784,494,493,891,495
651,496,496,409,494
116,495,492,232,495
902,495,490,889,495
237,496,493,235,496
100,495,494,410,495
895,495,493,786,494
114,494,496,200,495
514,495,490,788,493
869,499,498,519,494
105,501,501,197,496
897,499,479,893,496
404,501,497,298,493
106,499,492,314,493
894,493,491,844,494
132,496,496,196,493
142,490,478,608,493
924,498,487,613,492
109,498,487,169,492
870,492,487,880,493
595,495,487,373,494
115,495,476,242,489
911,496,488,881,493
218,496,479,215,495
96,495,499,669,492
922,494,488,569,494
110,495,487,180,494
900,495,489,887,493
517,496,493,350,495
97,495,490,358,492
926,495,491,801,495
123,498,491,186,495
384,496,493,722,495
906,498,493,526,494
113,496,493,160,493
895,496,492,886,494
448,498,494,313,492
110,496,496,285,493
907,498,496,872,494
132,497,494,214,494
101,497,496,559,493
920,498,494,675,494
116,497,496,193,495
757,497,495,891,494
666,496,498,430,495
108,497,494,247,494
894,498,496,894,494
235,496,495,261,496
109,498,497,406,494
897,496,496,791,494
112,494,496,212,496
463,492,495,772,496
898,498,496,527,496
115,495,496,175,495
896,493,495,882,493
415,496,495,303,495
98,494,494,426,494
923,494,495,736,493
111,494,496,165,493
566,495,495,774,495
842,495,494,472,493
104,495,495,161,494
903,496,495,878,494
373,496,496,265,494
103,495,496,309,496
901,495,495,840,494
130,494,495,203,496
195,495,496,631,493
927,496,493,610,495
113,495,496,182,496
885,495,494,907,494
562,494,495,393,495
106,495,493,273,495
907,495,495,896,494
187,497,493,235,494
104,494,493,462,496
916,494,494,740,495
118,497,495,193,495
643,494,494,814,494
789,497,493,475,495
125,495,495,190,494
902,495,494,893,496
332,495,493,260,496
98,495,493,513,494
924,494,493,671,495
135,494,493,175,495
727,493,494,856,495
705,495,495,431,497
106,495,493,219,494
908,495,494,881,495
257,496,494,242,497
102,495,494,368,493
916,496,494,796,494
121,495,493,192,496
401,495,493,735,494
919,497,494,534,496
118,495,492,184,495
886,496,493,895,495
451,495,494,328,496
116,494,494,290,493
903,495,492,862,493
132,496,494,205,495
100,495,494,547,496
930,496,493,647,494
121,495,494,166,495
799,495,492,872,496
652,496,495,399,496
117,495,498,227,495
900,496,496,884,496
239,495,497,230,497
102,494,498,396,494
904,499,490,778,496
131,496,479,187,497
507,493,480,781,494
897,495,497,524,494
109,494,489,184,494
898,488,490,905,493
408,495,492,318,490
113,493,493,317,495
914,493,494,855,493
117,494,489,207,494
123,493,488,596,493
925,497,487,617,496
128,495,494,179,495
820,493,492,888,493
611,494,491,389,495
121,493,491,239,494
901,495,491,880,495
206,495,493,224,495
96,495,491,643,493
917,497,493,563,495
132,495,493,152,495
890,495,494,864,492
519,495,494,331,496
102,496,496,252,494
910,496,495,866,495
162,497,495,198,495
101,497,493,495,493
916,497,494,697,494
125,498,494,186,493
704,496,494,850,494
738,498,494,452,494
111,496,496,213,495
907,497,495,893,495
295,496,495,267,494
112,495,494,357,494
905,495,495,828,494
125,495,495,210,494
319,496,496,689,494
913,496,494,559,495
110,495,494,183,495
892,497,494,895,494
487,496,495,341,494
100,495,493,275,495
898,496,492,869,494
157,495,495,205,495
95,495,495,745,496
918,494,495,520,496
120,495,494,173,495
892,496,492,887,493
421,496,494,317,495
104,495,495,302,495
917,494,494,861,495
141,497,494,201,497
100,495,496,577,493
923,494,493,640,493
118,495,494,179,494
812,495,494,881,495
635,496,496,400,495
118,495,495,240,495
889,495,495,883,494
237,496,493,233,495
111,494,495,409,495
901,494,494,765,495
129,494,494,181,496
556,493,495,785,496
854,494,494,501,495
124,495,493,176,495
887,496,493,890,494
386,495,494,295,495
103,497,495,322,494
912,495,493,848,495
109,497,494,202,493
187,496,493,632,496
919,495,495,614,494
121,496,495,183,496
863,493,494,892,494
590,497,493,387,496
104,496,495,248,495
895,494,495,885,494
201,497,493,218,495
102,495,494,432,496
907,496,494,744,493
127,496,493,179,496
602,494,493,801,494
806,495,492,479,495
117,494,495,178,495
890,495,493,882,493
365,497,492,271,494
96,496,495,477,495
923,495,493,692,494
109,495,494,173,494
664,495,492,832,494
742,495,492,450,492
114,496,494,191,494
900,496,493,880,494
296,496,492,258,495
104,495,493,339,496
908,495,495,820,495
131,495,495,186,494
320,496,494,694,493
919,494,493,548,495
105,496,496,169,495
890,494,495,894,493
481,495,493,345,496
95,497,495,388,494
905,495,494,793,494
108,494,493,190,493
471,495,492,767,493
919,494,494,529,496
117,494,492,183,494
894,496,493,886,495
437,497,494,318,493
115,494,493,296,494
896,496,493,858,494
134,494,494,197,495
97,496,494,776,496
825,497,493,479,495
121,496,493,176,494
902,494,493,877,494
374,495,494,275,494
98,495,491,453,495
919,495,493,697,494
119,495,493,170,496
650,496,493,801,496
769,498,492,457,495
111,495,492,187,494
905,495,494,886,494
313,496,494,260,493
101,494,492,341,494
915,495,494,822,495
129,496,493,203,496
296,494,492,687,493
907,497,492,566,493
107,496,492,179,494
902,494,492,891,494
499,497,493,351,494
111,495,494,277,492
895,495,494,881,493
163,496,493,206,496
104,496,493,503,494
927,495,493,690,494
113,497,493,184,493
732,493,495,851,493
717,496,492,435,495
102,495,496,202,494
902,497,488,888,495
264,497,492,241,497
102,498,491,368,494
912,496,492,798,496
129,498,487,180,497
411,499,496,736,497
917,497,489,535,499
121,495,477,177,495
887,501,479,887,493
465,495,473,328,497
108,493,494,286,493
916,493,496,867,494
134,495,482,198,494
99,496,485,759,494
880,497,487,506,494
134,493,482,184,494
898,494,495,887,495
398,497,492,302,494
100,494,492,314,495
910,496,485,852,494
132,494,491,205,495
152,494,489,606,494
907,495,492,613,494
119,494,492,167,494
857,491,492,883,494
569,496,493,370,494
111,496,492,244,493
908,496,491,872,493
191,496,493,205,493
95,496,494,664,493
907,496,494,551,493
106,498,494,161,494
887,497,494,885,494
499,497,495,341,493
106,498,496,276,492
899,497,497,863,494
157,497,496,201,494
107,495,496,514,494
917,496,494,659,496
107,498,497,166,493
750,496,495,850,492
684,495,497,406,495
121,496,496,209,494
891,496,495,872,495
247,496,496,232,496
112,497,495,380,494
910,496,495,780,494
126,496,494,185,494
475,496,494,766,494
886,497,495,519,497
102,495,495,172,495
892,498,494,888,494
424,497,494,314,496
104,495,494,307,494
909,495,496,864,494
130,495,495,208,495
106,495,494,595,493
908,497,495,634,497
107,496,493,171,494
850,494,495,885,496
612,495,495,391,494
107,495,494,244,496
892,496,492,886,495
214,494,495,228,494
99,494,493,642,495
916,494,493,575,495
117,495,495,166,495
888,495,494,876,496
532,495,495,356,495
109,494,494,261,494
901,494,494,872,494
161,495,494,198,494
94,494,494,702,495
915,497,493,528,495
113,495,493,169,495
899,494,493,878,496
475,496,495,323,496
97,495,493,383,493
906,495,493,770,495
133,496,495,185,496
465,495,494,748,494
892,496,494,510,494
113,494,494,169,494
892,493,494,888,493
425,496,494,301,496
105,495,494,298,494
915,494,493,858,494
139,494,494,196,496
96,494,492,789,494
817,496,492,479,494
119,495,493,179,494
908,495,493,884,495
354,495,493,275,494
106,493,495,326,493
915,494,493,832,494
110,497,494,202,493
252,496,493,656,494
912,494,492,579,493
127,495,494,170,494
898,493,493,885,493
534,495,495,358,495
117,493,492,260,495
898,495,494,880,495
159,495,492,208,494
100,495,493,486,494
904,495,494,695,495
126,495,494,181,494
691,496,494,839,495
762,497,495,454,496
109,495,495,193,495
890,495,493,879,495
316,496,494,257,494
110,494,493,335,493
907,496,494,817,494
130,495,493,194,496
320,495,494,688,494
911,495,494,552,494
123,495,496,170,495
908,494,493,880,494
477,494,495,328,495
111,495,490,283,495
911,496,493,860,498
149,496,491,198,495
87,499,498,755,494
886,501,492,503,493
109,496,482,169,496
909,498,489,888,494
407,496,507,296,496
104,500,488,299,494
911,495,490,853,493
120,495,488,191,492
122,493,493,597,493
918,490,492,617,492
127,495,487,165,493
873,502,483,882,493
594,495,483,379,493
107,496,490,244,493
906,495,489,882,493
198,493,494,221,496
97,497,489,655,493
903,495,491,575,494
104,494,490,167,494
892,495,491,884,493
530,496,493,350,495
110,495,492,253,493
907,496,494,868,493
169,496,494,194,495
105,496,492,465,493
906,497,495,685,492
113,498,496,161,494
674,497,493,835,493
744,499,494,444,494
108,498,496,204,495
913,496,496,890,494
300,499,496,251,496
109,496,497,343,497
912,496,495,802,494
121,497,498,188,494
346,498,495,702,494
916,497,494,549,495
125,496,496,182,494
905,495,494,886,495
467,497,495,339,494
112,496,496,292,494
899,496,493,871,494
130,496,496,214,494
107,496,496,542,495
916,496,496,669,496
128,496,494,177,494
755,497,495,877,495
693,495,495,424,495
103,496,496,216,496
909,495,492,879,493
241,496,495,228,495
111,494,494,377,494
912,494,495,779,495
125,497,494,185,494
471,496,492,764,495
900,497,496,516,496
114,495,495,177,494
906,494,495,882,493
412,494,494,299,497
108,495,494,297,494
913,494,494,858,493
130,496,495,199,495
94,495,494,786,494
817,494,494,480,495
126,495,494,174,494
903,495,494,884,494
359,495,494,278,494
107,493,493,317,496
914,495,493,840,494
123,496,494,197,495
198,494,492,631,495
906,494,495,592,493
110,495,495,167,494
883,495,493,886,495
562,495,495,372,496
99,494,493,339,493
914,496,494,823,494
120,496,494,194,495
294,495,494,688,496
913,496,494,566,496
111,496,495,169,496
901,495,494,893,496
491,495,498,343,496
105,495,495,279,496
919,495,493,870,495
163,500,491,209,495
105,499,493,509,494
915,495,490,683,494
136,498,505,170,495
712,501,504,845,494
707,498,500,428,495
94,497,495,290,491
890,498,496,857,495
116,494,493,190,496
99,491,495,778,496
832,498,495,479,496
104,497,486,168,494
902,500,492,874,493
369,492,486,259,496
110,493,493,308,494
918,498,488,826,494
128,493,489,202,495
223,495,492,650,494
924,493,491,580,493
106,492,494,167,494
896,495,492,891,494
540,495,491,353,494
100,495,492,255,493
907,495,492,867,492
181,495,494,204,494
90,495,493,715,492
911,497,492,520,493
99,496,495,227,495
912,496,494,881,493
226,498,494,221,495
93,496,494,626,496
923,497,496,595,495
118,497,494,174,494
883,497,495,890,496
555,498,494,366,493
92,497,496,343,492
906,496,495,806,495
118,498,495,186,496
323,496,496,684,495
924,495,496,552,494
117,495,496,168,494
897,496,495,880,495
504,495,495,339,495
100,495,495,273,496
914,495,494,872,496
130,497,495,200,493
90,496,496,735,494
905,496,496,502,495
116,495,494,171,495
882,496,494,876,493
418,494,495,295,495
102,495,496,297,494
918,494,495,851,494
124,496,495,187,495
107,496,494,572,493
903,495,495,632,494
114,495,496,175,495
834,495,494,890,495
628,496,495,400,496
101,495,495,241,494
912,494,494,889,495
224,496,494,222,494
99,495,495,621,493
912,495,495,590,494
122,495,494,164,493
876,496,493,883,494
548,496,495,360,495
104,495,494,258,497
906,493,495,871,493
158,494,492,200,495
94,494,493,688,495
912,493,494,533,495
122,494,494,166,494
881,493,493,875,495
482,495,493,319,493
101,494,495,270,497
897,495,494,857,494
136,496,494,195,494
93,495,494,757,495
873,496,500,488,494
122,496,490,172,494
898,494,493,875,493
402,497,493,290,496
94,496,493,440,494
925,495,498,720,495
118,499,495,171,494
618,503,490,797,492
798,495,497,463,497
108,497,496,182,494
912,499,477,882,494
346,495,482,254,497
94,499,484,493,494
914,502,487,660,496
121,495,498,162,495
725,491,496,850,494
704,497,496,416,494
99,493,488,286,496
902,493,483,848,494
131,503,491,186,496
106,499,487,573,493
912,497,486,625,493
122,496,490,166,495
829,495,494,881,494
620,494,494,386,492
114,495,490,230,493
908,496,490,889,493
240,497,494,212,495
96,495,492,623,492
906,494,493,577,493
114,496,494,161,493
879,497,493,878,493
548,496,493,355,492
102,497,496,252,493
897,497,495,878,493
178,497,495,204,496
96,495,495,703,493
907,496,495,542,496
128,497,497,175,494
897,495,495,880,495
472,494,494,324,496
94,496,496,395,493
908,495,494,767,495
118,498,495,182,494
535,496,495,774,494
864,494,495,486,495
129,495,493,173,494
892,494,496,875,495
391,495,496,274,497
104,494,496,292,494
913,495,493,838,495
130,497,496,180,496
172,495,493,613,493
922,496,496,592,493
119,495,494,166,495
859,496,495,880,493
561,496,496,363,495
111,494,495,249,494
899,494,496,883,495
183,495,495,208,495
102,494,493,460,494
920,495,494,726,495
112,495,494,184,496
654,494,494,819,495
771,496,497,467,494
117,495,493,201,495
911,496,494,886,495
317,495,494,262,495
107,495,494,340,497
911,495,494,827,494
119,494,494,195,495
280,494,493,680,495
912,495,495,572,497
107,496,494,171,496
887,495,493,890,494
503,495,494,341,496
99,494,495,367,495
904,494,494,793,495
114,496,494,176,497
411,495,494,732,495
918,495,494,524,495
101,495,494,171,496
898,494,494,882,495
437,495,494,313,495
112,495,493,290,493
916,495,494,865,494
126,497,494,199,495
99,497,494,777,494
850,493,495,483,497
119,495,492,175,495
903,496,492,885,496
392,495,494,286,495
104,495,494,307,493
904,494,494,836,495
128,494,493,192,494
157,494,492,607,494
913,495,496,603,493
121,495,492,158,495
878,496,494,878,496
581,496,493,372,494
112,495,494,247,495
898,495,495,883,495
205,496,494,213,494
95,494,491,651,494
902,494,493,562,495
123,494,494,163,495
893,498,493,874,496
514,497,495,340,495
101,495,493,257,495
889,495,495,866,494
157,495,494,192,494
92,496,493,741,494
912,496,494,516,495
109,496,495,172,494
897,496,492,872,494
435,495,493,294,494
112,494,494,287,493
907,494,494,855,494
138,495,493,196,494
91,495,493,772,495
855,494,492,478,493
109,495,493,169,494
902,496,492,883,494
367,495,493,270,495
96,497,493,466,494
913,495,493,690,495
126,495,493,159,494
669,496,494,827,493
750,495,493,437,496
124,496,492,191,494
910,496,493,887,495
307,495,494,255,494
108,496,495,343,493
909,495,493,805,494
117,496,493,189,494
363,495,493,718,494
922,495,493,548,493
114,495,494,169,494
906,495,494,891,494
480,495,493,336,493
112,496,492,283,495
910,494,496,861,495
124,496,501,195,494
97,497,493,757,494
887,501,505,509,493
112,494,490,167,494
892,492,488,886,495
430,503,491,299,496
102,498,486,284,496
908,496,492,849,494
133,496,485,192,497
101,500,491,572,497
900,491,491,627,491
121,496,506,168,495
822,498,480,876,497
618,493,493,381,495
102,496,496,234,494
907,495,488,883,494
223,493,495,221,494
95,496,488,628,496
904,496,492,582,493
111,495,492,166,494
883,496,488,879,492
534,494,494,355,496
115,494,491,255,495
910,495,493,868,492
193,496,493,201,494
103,495,493,455,494
907,496,493,709,494
127,496,494,165,494
652,495,495,819,493
778,497,494,445,497
113,496,496,183,494
895,496,495,886,495
316,496,495,261,495
89,497,494,517,495
918,498,495,657,494
109,496,496,170,494
727,495,495,863,493
697,495,495,416,495
107,496,494,211,492
909,497,495,873,495
270,496,495,233,494
106,495,495,373,495
906,495,496,793,494
117,496,495,183,495
435,495,494,744,493
920,495,495,524,496
120,495,496,164,495
906,493,495,886,493
447,495,494,309,495
112,493,494,284,496
894,496,495,866,494
135,494,496,201,494
101,494,493,567,494
904,496,495,647,494
128,496,494,167,495
826,494,493,884,495
627,495,496,398,495
114,494,495,238,496
906,495,493,882,495
217,494,495,224,497
103,494,494,413,497
910,495,493,755,494
125,496,494,185,496
558,494,495,787,494
847,494,493,491,494
102,496,493,165,494
891,496,493,880,495
388,494,495,277,494
106,495,495,307,495
915,494,494,833,495
130,497,495,190,494
190,495,493,623,494
911,495,493,592,496
127,496,495,162,495
894,494,493,888,495
566,494,493,372,494
99,495,492,342,495
895,495,495,823,494
118,496,494,199,494
319,496,493,695,493
922,495,494,555,495
103,496,495,172,494
892,495,493,889,493
492,495,495,328,494
109,495,494,282,494
897,495,494,860,495
153,494,494,199,497
95,495,494,771,494
866,496,494,493,495
108,495,493,169,495
908,496,494,879,495
409,495,493,290,494
111,494,494,298,496
903,494,496,840,493
125,496,494,188,494
134,494,492,597,494
897,496,495,603,496
113,495,494,161,495
876,492,494,881,493
585,497,487,366,494
103,498,496,236,495
893,496,498,878,494
209,498,487,204,496
102,495,498,442,495
928,492,489,720,495
110,496,501,183,494
642,497,513,810,496
789,492,503,465,495
106,499,496,187,495
885,496,491,887,493
326,491,501,257,494
107,495,489,344,494
919,498,485,809,494
131,492,488,190,493
312,493,492,704,494
915,492,494,553,493
117,494,484,181,492
894,494,489,895,493
470,495,494,334,493
114,495,484,280,493
898,493,490,861,493
143,495,490,197,495
99,495,490,764,493
854,497,492,480,495
122,495,492,155,493
904,496,494,875,495
393,495,494,275,494
107,498,496,296,492
914,497,494,837,493
125,499,496,190,495
184,495,495,622,493
922,497,497,597,493
125,498,496,164,495
896,496,495,887,492
551,496,496,364,495
96,498,496,340,495
917,495,497,812,493
124,495,496,198,495
343,496,494,694,494
922,496,496,552,497
123,495,497,185,495
902,495,496,889,495
474,495,495,335,495
102,494,496,290,493
912,496,496,870,494
141,495,498,205,496
84,494,495,773,495
883,494,494,510,493
124,495,496,180,494
896,494,495,884,496
390,496,494,289,495
108,496,494,301,494
909,495,492,846,495
125,495,495,193,495
134,495,494,595,496
913,495,494,609,495
126,494,495,156,493
853,494,496,883,495
597,495,496,371,496
117,495,495,241,494
894,495,496,876,495
195,495,494,201,495
96,495,493,656,494
919,495,495,554,496
126,495,494,164,495
886,494,496,874,497
508,496,496,341,495
110,496,494,270,494
908,495,495,870,494
152,496,494,195,496
97,494,494,736,493
913,497,494,521,497
108,495,495,172,494
902,493,494,876,497
432,495,496,303,496
109,494,494,292,495
902,495,494,855,494
128,496,495,198,495
99,495,494,786,493
832,496,494,480,496
117,494,493,172,494
892,494,493,882,494
366,493,495,267,495
101,496,495,317,493
910,495,492,826,494
128,498,496,196,496
216,496,492,642,494
923,495,494,571,496
111,496,494,161,495
894,496,495,871,493
523,495,493,344,493
112,494,492,253,496
908,496,495,868,496
154,496,493,195,493
97,493,493,701,494
907,494,492,514,494
97,496,494,210,494
907,494,493,873,495
234,496,493,216,494
100,494,492,399,493
908,495,492,763,495
127,495,494,183,494
521,495,492,769,494
863,493,492,509,496
118,494,495,186,495
899,495,491,891,494
383,496,494,293,495
106,495,492,319,493
907,496,492,850,493
131,497,492,202,496
187,496,493,622,494
923,494,493,604,497
123,495,492,176,496
864,497,494,881,496
556,496,494,369,494
99,496,496,345,497
891,496,494,812,495
126,494,493,188,493
341,495,492,704,493
916,494,495,542,496
111,495,491,167,495
887,495,493,875,496
482,496,495,318,496
106,494,492,281,496
896,495,495,860,494
132,496,494,198,494
98,496,493,761,496
865,495,493,496,495
120,495,493,166,494
893,497,493,875,494
402,495,494,283,495
114,495,493,307,494
903,494,493,849,495
124,495,494,193,495
165,496,493,606,495
905,496,493,601,494
119,496,494,172,495
878,496,494,888,496
578,496,493,374,493
100,496,495,248,495
911,495,499,886,495
209,495,493,215,495
94,497,500,675,493
915,499,488,552,497
106,501,482,163,495
899,498,500,874,495
495,495,491,333,496
107,499,487,269,494
894,496,478,871,495
144,499,490,195,494
98,490,489,728,495
909,494,488,503,492
114,496,519,158,495
908,497,484,865,495
422,495,507,292,496
108,489,482,279,491
898,497,481,844,494
124,495,501,188,494
88,498,491,779,493
828,493,492,474,494
104,493,490,168,493
899,495,491,883,493
368,494,491,259,495
103,495,493,314,493
893,495,492,819,493
119,495,492,186,493
233,496,491,631,493
910,497,493,569,492
126,496,493,161,494
889,495,492,879,494
534,497,493,350,492
97,497,494,351,494
914,497,493,800,495
132,498,495,191,493
388,497,497,723,494
911,498,497,542,496
121,498,494,177,494
904,498,495,882,496
450,498,496,325,493
106,496,496,287,495
913,495,497,857,495
128,496,496,200,496
98,495,496,761,493
858,497,496,491,497
118,496,495,175,495
893,494,496,883,495
403,495,494,287,497
95,496,495,455,493
905,495,496,708,496
116,495,495,178,495
668,495,495,836,495
767,496,495,451,494
110,495,495,200,494
902,496,495,888,494
292,495,494,246,495
99,494,495,528,493
912,496,495,642,495
134,495,496,162,494
784,495,495,863,494
656,495,495,393,494
100,495,494,216,494
904,495,494,874,495
231,495,495,211,496
109,495,494,387,495
910,496,495,760,494
115,496,495,177,494
497,494,494,776,495
866,497,494,503,496
117,495,494,179,496
903,497,494,879,494
406,496,494,288,494
111,495,494,301,493
902,494,494,840,494
131,495,495,192,496
139,495,492,596,495
905,495,495,609,496
135,495,496,168,494
861,495,495,881,494
602,496,493,385,496
120,495,495,239,494
905,495,495,887,495
208,494,494,222,494
100,495,493,426,494
902,496,494,739,495
117,496,494,184,494
613,496,493,790,496
821,496,494,480,495
122,495,494,177,494
901,495,492,887,494
355,496,494,273,495
104,494,494,319,496
896,495,493,834,494
129,497,493,188,497
242,496,492,657,495
927,494,494,564,497
106,496,495,168,494
879,495,493,882,493
515,496,493,340,495
98,494,494,353,493
923,496,493,784,495
130,495,494,181,494
410,495,495,725,495
913,495,493,518,497
120,495,493,167,495
901,496,494,881,493
430,496,493,309,493
112,494,493,296,494
917,496,495,861,494
123,497,494,196,496
98,494,493,790,495
831,495,493,483,493
100,496,495,176,494
889,495,492,890,493
363,496,492,275,494
95,496,492,481,494
916,495,492,682,495
113,496,493,175,495
717,495,494,843,494
733,495,493,442,495
100,496,494,191,495
884,495,493,886,494
274,497,494,241,495
105,494,493,350,496
902,494,495,795,495
127,495,493,179,494
384,497,493,726,495
914,495,493,524,495
114,495,493,171,495
897,495,494,879,494
437,497,493,313,495
100,496,492,283,495
911,496,494,859,496
117,495,492,191,496
100,495,492,549,495
916,496,494,641,494
114,496,492,167,495
804,496,493,879,493
639,495,494,393,494
115,496,494,225,495
913,495,494,884,493
242,495,494,220,495
110,496,492,406,495
918,496,495,761,494
123,495,493,188,495
547,496,494,780,496
851,495,493,497,493
131,495,492,185,494
889,495,493,881,494
381,495,494,284,495
110,496,492,320,495
916,496,493,832,495
126,497,495,191,497
196,495,492,632,493
916,497,494,593,496
106,496,494,158,494
862,496,493,879,494
577,494,494,361,497
110,495,495,247,495
896,494,494,872,495
174,495,494,202,495
97,494,493,691,493
906,497,492,536,494
100,496,496,167,494
888,497,494,869,493
474,497,495,320,495
99,494,494,382,493
902,495,492,763,494
121,497,493,176,496
478,495,495,756,494
902,495,493,510,494
102,496,494,166,494
907,494,493,877,495
416,496,494,286,497
106,494,492,294,494
913,496,492,845,495
127,495,493,200,496
113,495,493,588,494
913,496,493,619,495
117,496,494,167,495
837,494,493,877,493
606,496,494,383,494
119,494,492,240,496
897,495,495,881,495
212,493,493,208,495
99,495,492,637,494
921,497,493,561,496
107,495,492,157,495
901,494,493,879,496
523,496,492,348,495
118,495,494,256,496
907,495,494,865,495
165,498,493,193,495
86,496,493,704,496
916,497,494,521,494
119,496,493,166,495
910,495,493,875,495
461,495,493,312,494
106,495,494,276,494
916,495,494,860,494
128,496,493,196,494
105,496,493,535,493
924,494,493,647,494
112,495,496,161,495
781,494,492,874,494
650,496,492,400,495
97,496,497,315,496
903,495,495,849,495
125,499,492,198,495
169,497,486,619,492
918,499,478,597,495
123,501,499,161,495
889,496,494,879,497
566,498,492,371,497
114,498,502,247,493
904,496,490,873,495
204,495,478,213,497
100,488,495,433,495
906,494,485,724,495
110,494,490,180,494
638,493,486,808,491
801,494,485,470,495
120,497,495,180,494
889,496,500,884,494
330,500,482,267,495
101,494,488,325,496
908,496,492,833,494
127,496,493,191,495
236,495,490,653,493
905,496,492,567,496
109,496,491,152,492
896,497,493,877,493
511,498,494,336,495
105,495,495,246,494
896,497,492,865,494
162,496,495,200,496
103,496,494,470,493
908,497,494,691,494
110,498,495,176,495
665,497,496,827,494
746,499,494,449,496
100,497,496,198,495
891,494,495,875,494
306,495,495,255,494
96,496,493,516,494
912,496,496,645,493
129,496,497,160,494
770,495,495,855,497
675,497,495,407,496
123,495,496,220,496
900,494,494,884,495
238,494,496,226,496
111,495,494,387,495
914,495,496,782,495
128,495,496,186,493
490,495,493,768,496
882,497,495,517,498
116,494,495,175,494
896,495,493,895,494
400,496,495,292,496
115,493,495,308,493
914,495,496,854,495
133,495,494,198,494
133,496,494,603,496
903,496,495,613,493
121,495,495,167,494
882,494,494,880,495
585,495,494,374,495
119,494,493,235,493
899,495,495,875,493
196,494,493,204,497
100,496,496,429,493
912,496,495,734,495
126,495,494,170,497
602,495,494,796,493
815,496,493,474,495
106,494,494,180,494
908,496,493,875,496
368,496,495,277,495
109,496,495,316,493
901,495,494,833,494
112,497,495,189,495
223,495,491,647,496
915,495,492,591,493
110,494,493,174,496
879,494,493,881,496
544,496,493,365,496
100,495,496,255,494
895,495,494,877,494
179,496,494,206,495
97,494,495,695,494
919,495,492,542,494
116,495,497,165,494
893,496,494,877,495
475,495,493,331,496
96,497,492,382,496
908,495,494,780,495
127,496,496,177,494
452,496,493,745,494
913,496,493,516,495
101,495,494,164,494
904,496,494,882,493
432,497,493,295,495
113,495,495,284,495
903,495,497,855,495
134,496,491,194,495
99,494,494,773,496
831,495,496,473,497
112,502,500,163,494
908,498,487,880,494
370,500,487,267,495
111,500,487,311,496
907,498,497,834,494
118,499,481,196,496
187,493,491,619,495
929,493,498,593,493
113,495,487,166,494
878,494,493,883,493
570,492,492,359,495
96,494,499,332,496
906,495,489,819,493
119,494,496,193,494
317,494,492,689,494
911,497,492,553,493
124,494,490,170,494
892,495,490,893,494
481,495,491,337,492
101,496,493,271,494
900,494,494,858,490
136,497,493,194,494
105,497,495,499,494
921,497,494,656,493
123,497,496,159,494
723,496,496,856,493
710,497,494,416,495
96,498,496,293,494
896,498,494,855,495
126,501,496,195,493
99,496,494,783,495
825,497,494,471,494
110,496,496,165,494
902,495,495,871,494
366,495,495,267,496
105,495,492,318,493
909,496,497,828,495
131,497,496,203,496
219,496,494,651,496
920,497,496,582,497
128,495,493,178,495
878,494,495,882,494
536,496,495,358,494
110,495,495,262,494
898,496,494,871,494
180,496,495,203,496
93,495,494,706,494
918,495,493,537,498
117,496,496,164,495
885,493,493,876,494
492,496,494,330,495
103,493,494,269,495
907,495,495,865,494
149,494,494,200,495
95,494,495,736,494
912,495,494,510,494
120,494,494,165,495
904,496,494,877,494
442,496,495,301,494
103,495,496,281,496
909,495,493,846,494
138,495,496,190,495
90,497,495,763,496
843,496,494,479,496
102,495,494,166,494
912,493,493,877,496
386,495,493,277,495
100,496,496,311,497
912,494,493,836,494
121,494,495,191,495
183,495,494,618,493
924,495,492,597,497
123,495,496,166,494
889,493,494,886,496
559,495,495,365,494
100,495,495,259,493
914,494,492,876,494
172,495,491,205,495
97,494,493,686,496
915,497,495,545,497
104,496,497,166,495
901,496,492,888,494
478,496,494,332,496
109,495,493,277,495
907,495,492,868,494
159,495,493,202,495
91,496,494,738,495
903,497,495,512,494
106,495,492,164,495
898,494,493,871,494
429,496,493,302,494
110,494,492,282,495
914,495,495,850,494
138,496,493,183,495
96,494,493,776,495
833,498,492,471,496
118,495,495,164,494
897,496,494,869,493
377,495,495,269,495
103,494,493,308,494
902,496,493,832,494
131,496,494,194,494
180,494,493,614,493
918,497,495,597,494
128,495,493,169,494
894,493,493,884,496
559,496,493,372,495
117,497,495,251,494
904,494,493,876,493
194,496,493,215,494
102,494,494,447,493
927,494,494,729,496
112,496,494,179,496
634,494,495,816,495
786,494,492,461,495
108,495,494,192,495
888,496,494,883,495
319,496,493,250,495
116,494,492,335,496
902,495,492,807,493
129,496,493,190,493
312,495,492,684,493
915,495,493,551,497
116,495,493,165,495
892,496,494,875,493
493,495,492,336,495
97,494,494,366,493
920,495,494,790,495
115,496,493,186,496
431,496,493,723,494
914,495,493,525,497
115,496,493,169,495
907,494,493,885,494
442,494,494,311,495
111,494,493,292,496
896,496,493,857,493
125,496,494,205,496
94,495,494,788,496
841,496,493,484,496
122,495,493,169,494
900,494,491,881,494
386,496,494,278,494
94,496,495,465,493
907,496,492,695,494
125,497,497,166,494
661,496,492,825,495
774,499,492,441,496
101,500,486,192,494
901,500,496,874,494
308,493,492,253,495
99,495,492,521,496
911,493,492,650,494
119,493,488,165,494
744,496,482,856,493
675,495,494,406,493
101,497,509,212,493
904,499,488,874,493
241,496,487,223,493
94,499,498,576,495
920,491,490,596,493
119,495,487,152,493
843,495,488,871,492
598,496,484,373,495
121,495,490,226,494
898,495,491,877,495
229,495,491,212,496
90,495,490,630,493
908,496,493,564,494
122,495,491,158,492
903,496,493,870,492
534,498,496,345,495
108,497,495,244,493
905,497,495,869,493
155,498,495,201,494
91,495,495,699,495
917,496,495,539,496
120,496,494,176,493
902,497,495,886,495
470,497,494,324,495
108,495,495,277,494
909,494,495,863,494
135,497,496,201,495
104,495,496,518,495
909,496,494,669,493
113,496,499,171,494
732,495,495,856,494
682,495,494,417,493
103,496,497,211,494
909,495,495,886,494
252,496,497,225,494
98,495,496,586,493
907,495,494,607,494
117,494,494,157,494
843,495,495,873,494
600,495,496,370,494
115,494,494,234,493
892,494,492,874,494
193,496,495,211,493
104,495,496,426,493
904,494,494,746,495
114,496,494,171,496
590,497,494,799,496
820,493,495,478,494
106,494,495,172,495
900,496,493,878,496
372,496,494,270,496
99,496,493,470,495
903,494,495,692,496
124,497,497,170,495
696,495,495,834,494
752,497,493,449,494
126,494,493,189,495
891,494,494,881,494
307,496,494,252,494
95,494,494,523,494
919,496,493,641,494
121,495,494,158,495
769,495,493,855,492
662,495,494,401,496
96,494,494,301,494
901,494,495,851,494
122,496,495,199,493
145,495,494,595,494
910,496,495,612,496
125,495,494,168,494
866,494,493,875,494
593,495,492,380,495
102,494,494,236,495
896,495,495,877,495
201,497,495,209,493
102,494,494,416,493
909,494,494,749,494
112,495,494,173,496
571,496,495,787,493
825,497,495,486,496
126,496,495,164,494
898,495,493,881,493
358,496,493,266,497
100,497,492,313,495
916,495,493,826,493
120,494,494,190,495
211,495,492,634,493
921,494,493,580,497
124,495,492,167,494
878,496,493,878,495
557,495,493,361,494
106,496,493,255,494
907,496,493,881,494
193,495,493,209,496
98,494,495,682,493
919,495,494,548,495
122,496,492,160,495
891,496,493,885,493
484,495,493,333,493
113,494,494,280,492
898,495,495,867,494
153,495,494,199,496
97,495,494,750,494
893,498,496,506,493
125,495,493,163,493
895,494,494,875,497
425,497,495,291,494
97,495,494,417,494
905,495,493,715,494
111,498,495,163,496
611,494,494,791,494
810,495,493,464,495
121,494,492,158,494
892,496,492,873,493
363,496,493,260,493
110,495,495,312,495
898,496,492,829,493
123,496,494,185,494
252,495,494,648,493
925,495,495,583,493
114,495,493,161,494
898,494,494,882,496
539,495,493,357,493
100,494,491,260,494
891,495,494,875,494
189,495,494,204,494
94,496,493,688,495
915,494,494,542,495
112,495,494,172,495
909,496,493,887,495
488,494,492,331,496
98,496,493,379,495
903,494,493,783,494
126,497,494,175,496
466,496,494,753,494
905,495,493,514,495
103,495,493,173,494
882,496,494,884,495
423,495,493,297,496
104,494,492,291,495
904,495,492,858,494
136,494,493,197,494
104,495,492,571,495
919,496,493,626,493
126,495,492,156,495
824,496,492,871,495
625,496,495,385,493
97,494,492,312,493
915,494,492,824,494
119,498,494,185,494
205,494,494,628,494
922,494,492,579,492
125,496,493,162,494
879,497,493,880,495
540,496,492,350,495
106,495,495,255,496
911,494,495,880,494
194,496,494,197,494
96,497,495,687,494
913,496,492,543,494
102,496,496,172,494
890,494,494,886,493
481,496,493,334,495
96,494,495,366,496
897,496,493,791,495
127,495,492,188,495
442,496,494,742,494
922,494,492,524,496
113,495,497,173,495
907,494,496,887,493
437,499,489,312,497
104,499,499,287,494
905,497,495,853,493
141,496,494,200,494
103,497,495,545,498
906,501,490,632,494
120,495,492,175,494
818,496,485,881,493
619,494,475,391,496
99,499,490,321,493
917,490,493,827,495
135,491,487,185,497
198,493,480,632,493
916,499,485,588,493
134,489,489,154,495
896,490,491,884,494
550,494,494,355,495
110,494,489,256,492
910,495,493,882,495
183,494,489,216,496
93,492,488,693,494
903,497,490,540,497
121,495,492,151,494
902,495,490,873,493
495,495,490,326,493
115,494,494,257,494
916,495,494,861,493
150,496,494,191,496
102,495,495,502,494
922,496,494,673,495
113,497,496,179,494
736,497,495,863,495
711,496,495,433,494
107,497,497,219,495
906,497,496,886,494
267,498,496,253,494
94,498,495,554,494
913,498,496,616,496
120,498,495,159,495
807,495,495,867,493
616,497,496,379,495
109,497,496,219,495
905,495,494,878,494
208,496,496,213,495
103,496,496,403,493
921,495,495,767,495
125,494,496,183,494
541,495,494,771,492
863,496,496,496,494
114,495,494,179,494
891,495,494,888,495
385,496,495,290,496
111,494,496,308,496
897,495,494,849,495
128,497,495,193,494
170,495,494,626,495
911,494,496,609,497
121,495,494,168,495
891,495,494,881,496
561,495,493,368,496
116,496,494,245,495
897,494,494,875,494
202,495,495,201,495
102,495,495,452,494
916,496,493,720,494
134,496,496,183,495
644,495,494,807,493
788,496,495,467,495
121,496,495,185,495
894,494,493,881,493
331,497,495,270,494
103,495,494,331,494
914,495,494,828,494
114,498,496,192,496
256,495,494,660,495
922,495,493,575,494
118,495,494,173,494
902,494,494,889,494
531,496,494,357,494
110,496,494,265,495
901,495,496,883,493
160,495,494,209,494
94,496,495,699,493
907,498,494,529,493
105,495,495,154,495
899,494,494,873,495
470,495,494,323,496
98,496,494,382,494
926,495,494,760,493
121,495,494,179,494
492,495,495,755,493
898,494,493,500,497
115,496,493,166,493
898,495,492,886,494
418,494,493,287,496
108,494,492,299,496
909,495,493,846,494
134,495,494,191,495
150,495,494,594,494
920,495,494,612,494
125,495,493,162,493
847,495,493,882,495
588,495,492,373,495
102,496,494,247,494
901,496,495,874,495
205,495,494,207,494
96,495,492,665,493
916,495,493,560,494
123,497,492,169,495
905,494,492,882,493
514,495,493,339,496
96,494,491,361,494
903,496,494,793,494
136,495,494,179,494
413,498,498,728,495
917,497,498,518,496
117,497,502,164,494
898,494,487,886,493
447,497,492,308,493
98,492,480,395,495
902,495,479,756,494
119,493,486,179,495
540,494,494,781,495
847,502,487,487,496
103,494,492,159,493
888,498,494,878,495
378,492,493,272,496
95,503,484,441,495
909,494,499,695,492
124,493,504,169,495
653,494,490,824,494
769,491,495,452,495
125,496,492,186,493
893,498,492,895,493
307,495,493,257,494
96,494,490,515,494
915,496,491,643,494
115,495,490,149,494
747,496,492,857,494
686,496,491,406,493
100,496,492,208,494
904,495,494,879,494
251,498,494,220,494
107,498,493,368,494
915,497,493,787,494
124,497,495,183,495
452,498,495,748,495
917,497,495,525,496
116,496,496,186,493
894,498,494,876,495
438,497,496,307,495
105,496,495,290,495
898,496,494,851,494
134,499,496,196,495
109,495,496,559,496
904,497,496,632,493
127,497,496,169,495
808,496,494,881,493
635,495,494,394,496
116,496,494,230,494
896,496,495,883,495
237,495,495,228,494
92,495,494,618,495
925,494,495,586,493
118,495,496,158,495
891,495,494,880,494
560,496,495,359,496
101,495,496,237,494
901,494,495,878,494
188,495,495,207,494
101,494,494,442,495
901,494,493,724,496
116,494,496,178,494
656,493,494,809,495
784,496,493,463,497
126,495,496,191,495
893,495,495,883,493
325,495,495,260,495
106,495,494,343,493
905,494,494,812,494
134,495,494,201,496
270,495,496,673,496
907,495,494,573,494
114,496,493,167,495
886,493,494,880,495
516,496,492,342,496
96,495,493,363,494
926,493,494,788,494
129,493,494,191,495
393,495,492,720,493
907,497,492,533,495
99,495,494,233,494
910,494,493,884,495
240,494,494,233,497
98,495,493,629,494
917,496,494,583,493
128,496,496,164,494
889,495,492,877,493
555,497,492,364,496
118,498,499,242,495
910,496,493,872,495
177,496,490,196,496
95,496,491,670,495
920,497,492,540,495
123,498,492,155,495
886,497,494,873,494
510,498,492,327,496
109,498,493,261,496
910,496,493,861,495
150,496,493,192,495
108,496,491,495,494
921,496,493,670,495
123,496,491,163,496
712,496,493,857,492
710,497,494,426,495
126,497,491,212,494
913,495,499,879,494
261,497,484,238,496
103,496,489,378,495
913,503,487,806,495
118,507,482,194,496
433,509,469,739,494
910,492,487,535,493
111,490,494,178,494
896,493,501,881,496
436,493,491,311,495
105,496,494,290,496
909,493,494,856,492
133,493,498,196,495
91,490,485,774,494
861,495,492,485,495
108,492,494,167,494
894,493,482,884,493
378,494,491,284,494
112,493,490,317,492
912,494,492,854,494
129,496,491,196,494
167,494,490,604,492
912,496,493,601,494
124,497,492,163,493
873,497,493,876,494
584,495,494,361,494
90,498,495,317,491
908,496,495,818,493
125,497,495,177,492
274,495,495,665,493
914,498,496,561,495
119,497,493,169,494
886,498,496,875,494
491,498,496,334,492
113,495,497,262,494
913,495,495,863,495
134,497,496,202,496
101,496,495,509,493
906,494,495,665,494
120,496,494,180,493
742,495,496,876,493
694,497,494,424,494
119,496,493,217,495
901,496,494,890,493
263,497,492,247,496
102,496,496,384,494
922,496,495,800,496
127,495,495,197,495
441,495,494,756,495
916,494,492,520,496
111,495,495,167,496
894,497,494,891,494
427,494,496,309,496
112,495,495,289,493
902,494,496,863,494
116,494,495,197,494
96,495,495,785,494
844,494,494,480,495
105,495,495,165,496
896,495,495,882,496
386,495,496,277,494
110,496,493,303,495
911,495,493,828,495
119,497,495,190,494
177,494,495,616,495
926,495,495,585,497
121,497,494,160,494
883,495,494,887,493
557,497,495,363,494
113,496,495,251,495
912,495,494,881,494
195,496,494,197,495
98,494,494,691,493
915,494,492,539,493
118,496,496,163,494
899,494,494,882,495
482,495,494,323,495
103,494,496,276,493
911,494,493,874,493
162,496,493,201,496
92,495,493,735,494
906,495,495,506,493
120,494,493,159,495
897,494,495,881,493
430,495,495,304,496
114,496,495,288,494
900,494,492,850,493
122,496,491,191,495
100,498,483,569,495
915,496,492,625,497
131,495,492,155,497
826,495,488,869,494
621,499,496,380,496
102,504,479,222,494
894,487,480,873,496
216,496,490,208,496
99,498,479,617,494
927,492,498,574,496
130,499,510,141,496
877,495,492,868,493
558,501,494,354,494
100,504,497,239,494
897,494,491,875,495
198,498,491,205,495
94,499,484,673,495
909,494,496,562,492
110,497,491,167,494
896,498,491,888,494
497,498,490,339,495
104,495,489,268,492
908,499,496,866,494
162,496,493,194,495
87,496,493,745,495
906,495,492,505,495
107,496,493,166,495
893,496,491,872,495
426,494,493,303,494
101,494,493,285,494
911,495,494,854,494
125,497,496,193,493
97,498,495,786,493
826,497,496,470,493
123,499,495,160,495
902,497,496,877,494
366,498,494,270,495
96,498,497,452,496
922,496,496,691,494
124,497,497,162,495
672,497,495,821,493
758,496,494,437,496
106,495,495,188,493
911,494,494,874,493
304,497,495,247,496
111,494,495,336,492
924,495,496,817,494
132,494,495,184,493
321,495,495,691,493
917,494,495,559,494
105,494,496,169,495
896,492,494,889,495
495,495,495,347,494
113,494,494,279,493
910,495,494,868,493
138,496,496,200,496
94,494,494,747,495
905,495,495,511,496
104,494,493,158,494
886,495,493,886,496
432,494,494,302,494
105,493,492,287,496
919,494,492,852,494
125,496,493,189,494
96,495,493,783,495
839,495,494,476,495
126,495,494,168,493
895,494,494,873,496
373,495,493,268,494
110,493,494,305,496
907,495,495,832,494
133,493,494,189,496
173,495,493,616,493
903,495,493,594,493
113,495,496,163,494
887,494,495,881,496
564,494,497,364,495
101,494,495,247,493
912,494,493,881,494
180,495,494,207,495
96,496,494,686,493
918,493,496,547,494
115,495,496,158,494
906,493,495,880,495
496,495,494,335,494
107,496,492,267,492
912,494,495,869,493
166,496,495,199,494
104,496,495,494,495
912,496,499,670,495
117,494,493,171,496
727,496,487,837,495
720,493,498,424,496
116,493,498,197,495
910,495,506,888,495
284,497,506,242,494
97,502,486,546,493
909,490,485,630,493
132,489,504,156,494
799,493,494,869,495
641,494,491,386,492
96,499,485,300,494
909,495,491,841,493
128,501,490,191,495
186,492,488,618,494
920,499,493,591,496
125,496,494,167,494
866,496,494,895,493
558,495,490,370,495
111,495,496,256,493
903,495,491,877,493
182,494,492,216,493
98,496,494,676,493
915,496,492,540,496
110,495,491,155,495
883,495,493,875,493
506,496,492,334,495
110,497,494,260,492
894,496,495,863,494
139,496,495,198,496
90,495,495,724,494
915,495,496,519,494
117,496,496,159,494
894,495,495,875,492
442,495,495,314,495
115,493,494,284,496
890,496,496,854,494
132,497,496,193,493
101,495,494,556,493
930,496,496,626,493
114,497,497,159,494
798,495,496,874,496
647,497,495,382,496
111,496,495,224,495
897,494,494,886,494
231,496,496,215,495
98,496,497,627,494
910,495,496,584,496
127,496,498,167,496
876,495,494,892,497
557,495,496,364,496
114,495,496,262,495
912,494,497,880,496
174,495,496,207,497
94,495,495,705,491
913,496,494,543,494
110,496,494,166,494
887,493,495,882,495
486,496,492,328,495
101,496,496,271,494
898,495,495,854,494
120,495,494,196,493
95,496,495,758,495
883,494,493,494,496
115,495,493,171,494
901,496,495,872,495
422,495,494,280,496
102,496,494,291,496
902,496,494,841,494
121,494,495,194,496
123,495,495,587,493
905,496,494,612,497
123,496,496,158,495
855,495,494,883,493
612,494,493,386,496
93,495,495,327,493
917,494,494,831,494
133,496,494,191,496
233,495,496,652,494
911,495,494,582,495
110,496,494,174,497
884,493,494,889,496
529,496,495,357,496
108,494,495,265,494
893,494,490,882,494
154,496,500,198,496
91,495,492,717,495
911,498,496,530,494
115,498,491,162,495
892,493,487,883,493
460,496,494,315,492
101,491,501,276,495
907,493,504,865,494
147,497,482,199,494
102,492,490,530,493
926,492,485,649,495
124,497,500,161,495
760,491,492,868,494
673,487,480,404,493
98,493,493,300,492
893,496,481,851,492
114,497,489,192,493
128,494,487,594,494
898,492,509,610,493
125,494,494,170,495
855,490,488,882,492
574,495,501,368,491
110,492,493,243,493
903,495,492,865,493
177,495,493,198,495
93,494,492,673,494
913,496,491,545,493
119,494,491,159,495
888,494,493,876,493
489,495,493,333,495
99,495,493,368,493
900,495,494,784,494
110,497,494,179,495
437,496,491,738,495
911,497,494,516,492
105,496,496,164,494
908,496,494,885,493
425,498,495,299,493
105,497,495,295,496
904,497,494,848,494
118,496,495,189,495
100,496,494,569,493
909,495,497,612,493
122,496,496,150,495
844,496,496,873,495
624,496,495,380,494
96,497,497,312,497
913,496,497,830,494
138,498,495,199,494
208,496,493,645,494
904,495,495,589,496
105,496,497,175,495
900,495,495,892,494
541,495,495,368,495
94,498,494,348,494
905,495,494,815,493
125,494,494,195,495
322,494,496,703,493
927,496,493,552,494
104,497,495,164,493
893,495,495,882,495
489,497,494,331,495
110,495,493,272,493
905,495,495,864,493
145,495,495,199,493
91,496,493,746,493
909,495,494,510,495
124,496,495,164,494
906,494,494,875,493
411,497,494,295,493
102,496,494,298,493
909,495,495,852,494
124,495,493,195,495
119,495,495,591,493
900,495,493,614,495
124,495,494,168,495
870,495,494,879,493
595,496,492,382,495
115,495,494,236,495
913,495,493,879,494
205,496,494,211,494
100,495,492,422,495
901,496,491,744,494
122,495,493,177,494
588,494,493,790,492
840,493,493,488,495
108,494,494,172,494
899,495,493,890,494
355,495,493,277,493
102,494,495,316,495
900,495,495,844,493
131,495,494,190,493
196,494,495,623,493
920,502,484,595,495
111,496,494,157,495
885,496,491,876,495
560,498,489,366,494
113,502,488,243,495
893,497,505,876,494
186,503,490,199,494
104,496,479,451,494
921,496,502,712,495
120,502,494,177,494
673,497,511,801,493
787,486,495,452,494
115,496,484,168,494
912,494,488,872,493
330,499,484,250,495
106,492,487,327,494
908,489,481,830,494
117,494,493,192,493
292,491,496,688,494
905,488,487,569,492
113,495,492,174,495
902,491,499,885,492
510,495,489,343,495
110,497,494,262,496
910,495,494,868,494
152,496,491,192,496
93,494,492,721,493
914,494,495,510,493
107,496,493,157,493
888,497,494,876,494
442,496,493,299,495
106,494,493,283,495
895,496,493,846,494
122,498,494,194,493
96,497,495,770,495
854,499,496,479,495
105,497,496,155,495
892,496,495,866,494
378,499,496,261,494
99,497,495,453,495
912,496,497,689,494
114,498,497,153,495
662,496,494,814,494
749,498,497,429,496
124,497,494,177,496
903,496,495,873,495
292,496,496,247,494
101,500,494,339,494
920,496,494,811,494
130,497,495,195,494
356,496,496,703,494
915,497,494,555,498
117,496,496,181,494
901,495,495,885,493
487,495,494,338,496
95,496,494,383,495
899,496,494,785,494
130,497,495,180,496
479,494,494,757,497
911,497,496,511,496
107,496,496,169,494
890,495,495,887,492
415,493,495,290,495
104,497,494,302,496
903,496,495,851,494
116,497,494,190,494
120,495,493,594,494
923,496,494,611,494
120,496,493,164,496
856,495,494,879,495
590,495,494,370,494
102,495,494,243,495
907,495,494,869,494
183,496,494,198,496
96,496,495,662,494
919,496,495,547,493
121,494,494,158,493
900,494,494,873,494
495,495,492,334,495
94,496,494,365,496
916,496,494,781,495
118,496,493,183,494
426,494,492,743,494
908,495,494,523,496
116,496,494,172,494
896,496,492,884,493
434,495,493,306,494
110,494,493,298,494
905,493,493,847,495
117,495,493,193,494
105,495,493,584,496
902,496,493,627,496
113,497,493,162,496
834,496,493,875,496
600,496,495,375,494
102,496,494,239,494
897,495,494,874,494
218,496,493,215,495
101,496,491,426,494
911,495,493,726,494
128,495,495,172,495
618,494,493,801,496
795,497,493,462,495
114,496,492,182,494
909,494,493,882,494
322,495,494,257,496
107,498,493,327,494
895,495,494,825,495
125,498,487,191,497
274,500,492,669,495
915,500,486,572,495
125,495,494,174,498
895,496,497,883,496
506,497,497,354,493
105,494,495,269,493
907,504,495,877,494
179,502,494,198,494
106,493,487,487,496
907,496,503,688,496
121,496,496,168,494
697,493,495,838,493
730,498,486,432,494
127,497,493,199,495
894,494,491,886,494
270,496,494,246,495
104,492,494,361,495
913,495,488,800,493
116,495,492,187,493
404,494,493,724,496
908,494,491,523,494
99,496,492,230,498
893,497,492,871,496
234,497,492,217,494
103,495,492,390,494
895,496,493,747,495
124,497,496,170,494
543,496,496,777,493
842,497,494,481,495
103,497,496,167,493
901,496,497,884,494
369,497,494,269,495
104,496,495,313,494
912,497,494,830,494
125,498,495,188,493
213,496,494,629,495
919,497,495,583,495
111,496,495,166,495
872,496,495,876,493
529,497,495,364,494
110,497,495,260,494
910,496,495,887,493
201,495,496,218,495
99,497,493,694,495
907,498,496,551,494
102,496,497,171,496
898,498,496,884,496
475,496,495,334,495
103,496,495,280,495
899,495,494,867,495
118,496,495,205,496
102,496,495,531,493
905,495,495,663,495
131,495,495,163,495
751,495,493,874,497
667,494,495,405,496
120,494,494,220,495
895,494,493,876,496
239,496,496,224,494
115,493,492,379,495
896,495,496,768,494
131,495,494,173,495
478,496,492,764,494
903,494,494,505,495
95,496,494,253,493
910,495,494,884,495
207,496,494,219,493
101,496,495,440,497
915,495,495,729,496
114,497,496,182,495
642,494,494,818,496
794,495,493,459,496
105,495,493,184,493
889,494,493,888,493
318,495,494,264,494
110,493,494,337,495
919,494,493,820,494
133,494,496,197,494
296,495,492,676,495
906,495,494,562,495
111,494,493,176,495
906,496,494,886,496
498,497,495,342,493
99,497,494,374,495
924,495,495,788,496
118,494,495,191,494
450,496,494,738,496
915,494,497,521,496
122,496,495,169,495
904,493,494,878,496
443,496,495,299,496
107,496,493,289,496
906,495,493,853,494
125,496,495,191,494
100,495,495,564,493
929,493,493,635,494
106,495,496,159,494
803,497,494,879,493
627,496,493,385,496
110,495,490,223,494
900,496,490,876,494
231,496,491,207,495
105,496,490,398,496
908,497,489,759,494
121,496,493,175,496
557,496,488,788,494
835,495,491,491,496
119,496,490,185,494
909,495,489,889,494
366,497,495,276,495
102,494,492,319,496
897,495,491,833,494
127,497,494,200,496
217,495,494,644,493
907,496,492,591,494
114,495,494,173,494
888,493,492,876,492
526,495,495,349,493
104,496,492,255,493
907,495,493,874,495
185,496,494,199,496
92,495,492,687,495
923,493,493,535,497
103,499,484,163,495
891,501,499,867,494
467,497,484,315,496
107,495,490,271,493
904,500,516,865,497
145,496,499,194,497
104,495,490,523,495
924,493,506,659,495
128,508,492,170,497
745,493,492,865,494
693,492,495,417,494
112,493,484,206,494
902,495,504,877,494
243,505,490,239,492
105,497,496,372,494
915,499,504,790,493
114,496,491,183,493
453,495,491,755,493
910,499,491,525,494
111,493,492,179,494
902,493,491,888,494
428,496,492,306,494
97,495,494,428,493
909,495,493,725,493
130,495,494,169,494
596,496,493,783,495
816,495,495,461,495
110,496,496,157,492
895,496,494,869,494
359,496,495,268,494
110,495,498,314,494
904,496,494,830,494
133,495,497,187,493
211,495,495,637,493
909,498,497,574,496
113,497,496,161,494
900,494,496,874,493
530,497,496,347,495
113,496,496,259,495
918,495,497,877,493
171,496,496,207,496
103,496,497,471,493
907,496,496,711,495
130,495,495,187,495
671,496,496,834,495
770,493,497,458,497
112,496,496,205,496
909,495,496,885,495
307,496,496,256,496
102,495,495,352,493
912,495,495,813,494
125,494,495,196,495
339,496,494,706,493
914,494,497,552,497
122,494,494,173,495
901,496,494,891,493
473,493,495,326,495
111,494,495,277,494
912,495,495,871,495
128,495,495,191,495
89,495,495,754,495
878,495,493,496,496
111,496,493,168,495
898,495,495,882,494
402,494,496,283,495
105,494,493,298,494
897,496,493,832,494
125,497,494,193,494
150,495,494,605,494
922,494,492,597,495
126,496,495,163,493
891,495,493,885,494
553,493,496,362,494
107,494,494,252,495
910,496,493,880,495
183,494,495,218,496
99,495,495,675,496
918,495,496,553,495
109,495,496,172,495
900,496,493,878,496
501,497,493,336,495
93,496,492,376,496
918,495,493,791,494
112,495,493,186,493
462,496,493,760,493
915,496,495,519,496
110,495,492,178,494
896,495,494,885,495
433,495,495,307,496
109,496,493,295,493
910,495,495,847,493
129,494,494,196,495
102,494,495,572,495
901,495,493,618,497
121,495,494,156,496
830,494,492,868,495
614,497,494,374,494
110,496,494,224,494
912,497,495,870,495
197,501,492,209,496
96,494,490,629,496
912,495,494,562,493
130,500,490,149,497
894,492,493,877,493
537,500,494,349,497
96,495,499,340,495
908,492,488,807,494
123,505,489,193,494
370,496,491,720,496
909,501,485,544,496
116,499,481,178,495
897,496,489,891,495
470,498,499,331,495
101,499,499,291,493
901,495,491,886,494
151,496,491,215,493
94,495,492,770,494
881,495,491,513,486
115,496,494,183,493
891,496,492,886,494
406,498,494,284,494
96,499,493,434,494
922,499,494,695,495
128,501,495,148,494
628,499,495,785,494
794,498,494,444,494
115,498,494,171,493
905,496,495,873,494
332,497,495,240,495
108,497,494,310,495
911,496,496,802,494
126,496,495,183,495
308,497,494,684,495
909,498,497,556,496
120,496,496,171,495
881,496,496,891,493
490,496,497,346,494
103,495,495,285,494
912,495,495,867,494
136,496,495,205,493
103,496,495,517,493
929,496,496,670,494
122,496,494,173,494
742,495,494,856,494
688,496,494,421,496
113,494,495,212,496
904,495,494,875,495
280,496,496,230,494
99,495,493,567,494
918,496,495,612,495
118,495,495,161,495
840,494,494,883,495
604,494,497,381,495
116,494,496,235,492
891,494,491,883,494
210,493,495,208,496
102,493,494,411,494
920,495,494,744,495
131,496,494,180,495
558,495,493,774,496
849,497,494,486,496
105,495,494,170,495
893,494,493,871,495
379,496,494,271,496
108,493,493,309,494
903,493,494,834,495
116,494,495,187,494
183,494,493,613,494
925,495,494,591,494
132,495,496,162,494
884,495,493,880,493
554,495,493,364,494
106,494,494,257,494
902,494,493,884,496
173,496,495,203,496
97,494,495,702,494
914,497,495,540,496
126,495,494,177,493
897,494,493,883,495
473,496,493,328,496
103,495,493,282,496
905,495,492,866,494
149,495,494,197,495
93,494,493,745,494
899,495,493,506,493
103,494,494,162,495
901,496,493,875,496
406,496,495,279,494
96,495,492,430,494
917,496,492,711,494
108,497,499,163,495
625,495,481,792,494
807,498,496,444,495
112,495,498,162,494
886,493,493,876,496
329,497,493,251,497
108,500,486,318,498
908,496,501,822,495
120,489,479,184,494
259,489,492,664,494
914,495,503,570,495
123,492,494,169,494
887,493,495,876,494
502,496,489,336,493
100,495,490,270,494
890,495,491,880,494
144,495,491,209,493
100,494,489,527,491
908,495,492,685,495
108,495,491,186,493
742,496,491,862,496
687,495,492,412,494
107,496,493,208,493
889,495,492,879,494
240,497,494,242,494
109,497,495,378,494
922,496,496,777,493
127,496,496,188,494
509,496,494,767,492
890,498,496,496,493
116,497,496,167,493
905,498,495,879,494
400,496,495,280,494
109,495,495,317,494
906,496,494,846,493
122,497,496,206,493
168,497,494,614,493
913,496,496,605,495
114,497,497,174,495
857,496,495,883,494
562,496,496,369,493
101,496,496,249,495
909,496,494,867,494
206,496,497,201,495
95,496,493,675,495
920,497,495,539,493
103,496,497,162,492
903,495,494,873,494
476,495,496,321,495
104,495,494,270,497
904,495,493,866,494
135,496,495,190,495
108,496,492,528,495
917,495,494,663,495
126,495,493,169,494
776,495,494,869,492
677,494,493,414,493
107,494,492,221,494
887,495,493,878,494
250,496,495,225,495
102,496,493,383,494
896,494,495,768,495
114,496,492,187,496
481,497,495,757,494
889,495,493,505,497
102,495,494,177,492
908,495,495,878,496
403,496,493,279,496
95,496,493,431,493
911,495,495,707,494
112,496,494,175,493
642,495,494,809,494
786,497,495,457,493
106,494,496,184,494
897,497,491,884,494
322,497,496,255,495
101,497,494,332,496
912,495,493,822,494
127,496,492,191,495
309,496,491,686,493
909,495,490,549,494
116,496,492,164,494
892,496,489,878,495
473,499,493,329,496
95,496,493,381,496
919,500,489,778,494
116,496,491,183,495
487,495,491,752,496
907,497,491,504,498
102,496,495,177,495
904,495,492,878,494
399,494,494,277,496
104,495,490,297,493
913,495,492,841,497
133,494,499,185,495
152,495,486,594,496
922,498,487,596,496
130,493,496,150,497
870,498,475,882,495
567,501,492,365,494
102,506,476,241,494
893,496,514,873,495
189,494,491,195,494
98,496,492,669,495
907,494,476,541,496
103,503,498,150,493
894,494,486,875,495
494,495,496,330,494
117,489,497,270,492
900,496,501,860,496
128,495,489,196,495
89,491,492,742,495
913,495,489,513,493
123,494,490,172,495
902,494,490,873,494
409,495,493,295,494
106,493,494,294,493
905,494,493,847,494
125,497,494,198,493
115,496,493,578,494
919,498,496,605,493
114,497,497,163,494
829,498,495,877,493
590,496,494,382,493
96,497,495,329,493
912,497,496,828,493
126,496,497,193,492
248,496,497,658,495
911,496,496,563,494
130,497,495,152,495
898,495,495,869,493
509,497,496,332,494
101,497,495,257,495
908,496,495,859,495
153,496,497,201,495
100,495,497,490,495
918,496,495,686,495
117,496,495,171,496
709,496,495,862,494
716,497,496,434,496
122,496,494,204,495
911,495,495,890,495
270,496,495,254,494
109,495,494,358,495
896,496,494,798,496
119,496,495,195,494
383,494,494,720,493
907,495,494,545,494
108,495,495,177,495
906,494,494,884,495
458,496,495,320,495
109,495,495,287,493
892,494,494,859,495
134,493,495,192,494
106,495,493,556,495
921,496,496,633,496
121,495,496,163,495
822,496,494,875,495
638,496,493,396,496
118,495,496,227,495
897,495,494,876,495
232,494,493,228,495
96,494,492,612,494
910,495,495,583,493
120,494,492,164,494
873,495,493,877,496
550,497,494,357,495
113,495,495,246,495
906,494,494,870,493
184,495,496,207,493
102,493,495,445,494
918,496,493,723,496
128,496,492,178,495
648,494,493,811,495
796,496,495,462,496
116,495,495,185,495
895,497,493,880,494
321,496,494,260,495
98,495,494,511,494
928,494,492,663,494
126,497,494,172,495
739,495,494,853,496
687,497,496,414,494
114,495,495,210,496
902,496,494,872,495
256,497,493,238,495
97,495,494,576,494
919,498,494,607,496
124,496,498,155,496
840,494,493,875,496
597,495,493,366,494
120,502,498,231,494
906,499,500,872,495
215,495,497,203,497
102,497,503,419,494
902,495,488,729,495
131,499,492,169,496
606,495,498,786,494
825,496,495,468,493
122,495,482,175,493
909,495,487,879,494
331,495,492,260,494
114,495,494,327,492
904,496,493,837,494
132,495,488,194,493
255,494,490,657,494
922,493,490,575,496
117,496,495,168,494
890,496,487,880,493
514,495,492,344,494
120,493,492,263,495
895,494,491,864,494
151,495,494,196,495
95,494,492,719,492
907,495,494,512,492
109,495,496,161,494
907,496,492,875,493
442,498,495,299,494
105,495,494,283,493
899,497,494,847,494
135,499,497,188,495
96,495,497,767,494
841,496,497,474,494
122,496,495,160,493
889,496,495,872,493
378,496,494,267,494
104,496,496,303,493
913,494,494,826,495
121,495,495,181,496
198,496,494,620,496
904,497,494,586,496
114,496,496,163,494
879,494,496,889,496
562,497,494,369,496
111,495,495,260,493
899,495,494,876,495
188,495,494,212,494
93,494,493,695,494
907,496,494,540,495
111,496,494,177,495
899,495,493,877,494
472,497,494,323,492
110,494,495,279,493
898,493,493,858,496
150,495,495,197,494
93,495,493,764,495
873,496,492,491,496
121,495,494,171,495
893,495,494,877,494
386,495,495,269,496
93,496,496,447,495
916,495,495,701,495
128,494,495,169,495
673,495,494,807,494
766,495,495,442,496
114,495,492,191,494
901,496,494,881,494
304,496,493,246,496
105,495,493,336,495
910,495,494,805,495
126,495,495,186,495
343,494,495,696,495
912,497,494,540,493
113,495,494,168,493
908,494,496,883,493
476,495,494,331,496
111,494,493,282,493
896,494,494,865,495
136,496,494,201,494
98,494,493,768,494
867,494,493,494,496
125,495,494,171,495
892,494,494,876,494
380,497,493,282,495
101,494,495,310,493
908,495,493,829,494
127,494,495,196,495
177,494,494,620,494
920,496,494,588,494
131,494,493,156,494
864,495,494,881,494
541,495,494,356,495
107,495,494,255,494
913,496,492,873,494
187,495,494,204,496
103,496,493,463,494
922,495,495,713,496
124,497,498,169,494
671,496,493,810,495
779,498,493,450,494
101,497,493,191,495
903,496,490,878,493
315,497,493,251,495
102,496,494,339,494
899,496,492,815,494
120,496,493,192,494
330,496,494,695,494
910,500,490,560,495
120,496,491,181,494
899,495,496,889,494
484,498,494,337,496
96,495,493,391,493
899,497,493,779,494
125,495,493,184,497
513,501,495,758,493
885,499,505,505,495
118,498,484,176,495
895,492,501,877,495
411,493,485,292,496
102,500,498,299,492
911,491,470,852,495
125,491,499,191,496
123,485,496,584,493
917,496,482,615,495
109,496,491,161,494
843,494,486,875,492
599,488,488,369,495
116,490,489,239,493
908,495,490,876,494
192,496,492,207,495
95,495,492,661,492
907,494,493,551,495
113,496,489,158,494
879,494,492,885,493
507,496,493,345,494
107,496,494,256,493
894,496,495,852,494
147,496,495,186,494
100,495,493,475,491
915,497,494,687,495
119,498,497,169,494
723,497,495,846,493
731,496,495,434,494
113,496,495,209,494
902,497,495,880,495
272,495,495,247,495
100,497,495,358,495
924,496,495,789,495
127,498,496,188,493
404,494,495,732,496
912,496,495,530,494
108,496,495,169,494
902,494,494,884,493
445,495,495,314,495
106,496,495,288,496
908,494,497,853,495
115,496,496,194,495
97,494,494,770,495
851,495,495,483,495
103,495,496,164,495
911,495,496,874,497
381,495,496,273,494
104,494,496,310,494
897,495,495,841,495
117,495,494,183,494
184,496,494,620,496
908,495,496,596,497
116,496,497,166,495
872,496,495,882,495
550,495,495,362,496
111,495,492,256,494
905,494,493,879,495
202,496,495,213,497
94,495,494,683,494
917,496,494,542,495
115,494,493,170,495
905,494,494,871,495
491,495,495,327,494
108,494,494,272,493
914,495,494,858,495
132,495,495,198,497
88,495,494,760,494
876,496,492,498,495
109,494,493,171,494
907,496,493,871,495
397,494,494,277,496
103,495,494,301,496
914,495,493,838,494
126,496,495,193,495
150,496,495,597,496
910,495,492,607,496
124,496,496,162,494
869,494,494,885,495
583,495,493,374,495
93,495,494,329,492
920,495,493,810,495
131,494,494,185,495
290,496,490,676,493
904,495,494,555,494
127,496,495,171,494
899,494,492,886,496
489,496,494,338,494
103,496,494,270,493
894,495,492,867,496
137,497,493,194,497
90,494,493,740,495
911,495,492,516,497
116,495,494,162,495
905,494,494,880,494
428,495,493,299,495
112,495,495,294,493
908,496,496,846,495
130,495,494,190,493
112,495,492,584,494
913,495,492,620,496
131,494,495,168,494
857,494,494,880,493
609,494,496,385,494
119,494,492,233,493
910,494,492,880,494
208,495,492,217,497
96,496,495,643,495
914,494,494,566,494
126,495,493,155,495
893,496,493,881,494
530,494,495,344,497
108,495,494,254,495
904,496,492,868,494
183,495,495,193,496
95,496,494,693,493
909,496,491,524,496
111,496,497,158,495
899,495,494,878,495
472,496,495,320,494
96,496,494,383,494
906,495,494,762,493
133,496,496,180,495
505,496,495,761,493
884,496,495,503,493
125,494,494,161,495
902,496,493,884,494
397,495,495,286,496
108,496,494,304,494
896,497,499,840,495
119,497,491,193,498
170,496,503,614,493
923,499,498,588,498
110,493,482,155,495
892,494,481,883,495
548,496,494,361,493
107,492,512,254,496
900,505,483,874,492
174,498,495,211,494
96,491,506,684,492
920,500,491,535,494
103,501,494,156,494
890,495,484,879,497
470,493,493,326,495
114,497,486,273,493
914,494,484,862,494
132,497,494,195,497
91,494,488,757,493
880,495,489,496,494
115,493,490,162,493
899,494,491,876,493
399,495,491,275,494
114,495,491,289,494
919,494,493,841,494
132,494,494,176,496
155,495,492,602,493
898,496,494,602,493
127,496,495,151,495
861,496,493,869,492
577,496,493,368,495
91,494,496,330,493
918,496,495,821,494
109,499,497,188,493
308,495,496,687,493
905,495,495,545,494
119,496,498,173,495
905,494,495,873,494
488,496,496,332,494
102,496,498,272,496
908,495,495,861,494
131,495,497,204,496
97,496,496,745,494
913,497,497,518,497
123,496,495,168,495
900,495,496,883,494
426,495,497,304,494
118,496,496,294,496
914,494,496,861,495
128,497,496,206,495
94,496,494,793,496
833,497,496,479,494
124,494,496,172,495
904,495,494,882,496
363,495,493,268,495
110,493,494,315,495
905,496,496,827,494
127,497,494,190,495
236,494,494,641,495
904,495,495,567,493
115,496,495,160,495
898,493,495,884,496
533,495,496,347,496
103,495,493,256,495
919,494,493,873,494
159,495,495,202,495
105,494,494,484,494
902,495,494,692,494
127,495,493,173,494
678,495,495,830,496
741,495,494,444,494
107,495,494,208,494
898,495,494,879,494
282,496,494,255,496
107,494,493,356,492
912,495,494,806,494
120,494,493,195,494
399,495,493,735,494
911,497,494,530,493
108,496,494,177,495
893,496,494,887,493
446,495,493,317,493
105,494,494,284,494
910,495,493,859,494
120,496,495,199,494
99,494,493,767,495
852,493,491,486,497
106,494,496,173,495
907,496,495,873,494
378,494,494,270,494
113,495,493,307,494
907,495,493,830,494
125,497,493,191,495
169,495,493,607,493
912,495,494,592,493
119,496,495,156,495
883,497,493,873,494
588,494,494,368,494
103,495,494,239,496
894,495,494,877,495
212,496,495,198,497
96,496,492,659,493
913,495,494,550,496
105,496,493,158,494
890,496,493,879,494
503,495,492,337,495
103,495,492,270,494
910,496,493,863,494
146,495,493,209,496
97,495,494,732,495
915,494,493,518,497
109,495,493,172,496
892,494,493,882,495
426,495,493,303,496
102,494,494,293,496
910,494,493,845,494
131,495,493,189,494
88,495,493,784,493
818,495,494,473,494
108,496,496,174,495
899,495,493,874,494
338,497,494,262,493
110,493,494,317,494
922,494,495,819,494
128,497,495,181,495
276,494,493,658,496
913,495,493,564,492
124,495,496,162,495
902,497,494,873,494
516,495,498,341,494
113,496,497,262,496
901,496,496,871,495
177,495,494,199,492
93,496,486,714,494
904,494,492,521,496
107,500,479,158,496
904,510,475,880,491
458,496,509,317,496
99,485,486,390,496
909,492,490,755,494
115,499,489,175,494
528,493,486,770,496
854,495,489,485,493
128,496,490,159,494
907,495,491,881,494
393,498,487,285,494
104,493,491,311,493
897,493,490,841,492
120,495,491,191,496
180,495,491,615,493
906,498,490,592,493
122,495,493,156,496
861,495,492,879,493
566,495,493,362,493
97,495,494,335,494
899,495,494,815,495
117,496,495,183,494
315,497,493,698,494
904,497,494,552,495
107,496,494,174,495
906,497,495,885,494
477,498,494,334,493
98,496,497,390,494
917,497,495,767,494
121,499,496,186,494
510,496,494,766,493
893,497,495,504,496
121,498,495,178,495
887,498,495,882,496
404,497,495,295,494
105,496,496,296,493
896,496,494,848,495
125,497,495,188,494
126,495,496,588,494
922,495,494,613,496
119,495,493,171,495
872,494,495,887,494
589,496,492,378,496
93,495,492,334,493
915,495,495,827,495
128,494,495,204,496
270,495,492,663,493
922,493,495,577,493
109,494,494,173,495
898,494,494,890,496
526,496,493,351,495
95,495,495,361,495
924,494,494,793,494
136,495,495,184,495
412,495,493,731,494
911,497,494,527,493
115,495,493,174,495
902,496,496,882,493
442,497,493,310,495
113,495,494,282,493
906,495,492,852,495
123,495,493,196,495
91,494,493,771,493
845,494,495,483,494
126,494,494,174,494
890,497,493,873,493
376,494,493,273,495
91,495,492,457,494
927,494,496,705,494
113,496,494,171,494
667,496,493,825,493
748,497,494,440,497
102,495,492,189,494
906,493,495,885,492
307,494,493,252,496
105,494,492,343,493
902,494,493,816,494
129,496,494,193,493
333,495,495,697,495
908,496,494,545,497
111,495,493,174,495
882,494,492,881,493
471,496,493,324,495
104,496,494,280,496
903,494,495,863,494
123,496,494,198,496
89,495,495,760,494
869,494,495,491,493
127,495,493,171,495
907,494,494,874,496
407,496,494,283,495
102,494,492,298,496
913,496,493,848,495
129,495,493,197,494
162,494,493,605,495
909,496,493,599,494
106,495,493,168,494
880,497,493,881,493
565,496,495,366,494
98,495,493,332,494
907,495,494,814,493
137,496,494,196,495
298,494,493,675,494
910,498,493,554,493
103,495,490,166,495
901,495,494,887,494
489,497,495,330,496
112,495,495,271,494
896,494,492,868,493
152,494,493,196,493
104,496,494,523,494
926,495,494,660,496
125,497,492,163,495
753,495,493,870,493
679,496,493,415,495
99,495,493,304,495
915,495,493,848,494
129,495,493,195,496
123,494,494,586,495
923,495,495,611,494
126,496,495,164,494
855,496,494,879,496
591,497,493,371,495
101,495,496,245,494
899,495,493,873,495
214,496,494,215,495
100,494,492,425,495
921,494,496,731,496
118,495,495,184,494
597,499,502,797,495
816,503,490,479,497
102,486,499,181,495
898,501,493,889,494
356,500,481,278,495
100,493,476,327,492
907,499,493,828,493
127,496,481,186,495
235,496,500,643,496
922,495,494,567,496
108,496,495,155,495
884,501,483,878,493
539,496,489,349,496
105,496,482,257,495
897,496,491,873,494
167,495,493,204,492
96,496,491,702,494
922,497,491,528,495
115,495,493,156,494
893,497,492,866,491
474,497,491,320,495
107,497,494,266,491
900,499,492,840,494
129,499,494,180,493
97,497,493,750,494
872,499,494,490,492
102,497,495,159,494
899,495,495,882,495
412,497,495,292,496
95,497,493,427,494
910,497,494,724,494
119,497,493,164,496
606,496,495,785,495
810,496,494,462,496
106,497,496,179,494
904,498,495,879,495
344,498,495,260,495
111,496,494,320,496
911,496,495,829,493
116,495,493,195,493
253,495,496,651,495
906,495,495,576,496
118,495,494,169,493
898,494,495,879,492
528,498,497,352,495
103,495,496,263,494
909,495,495,879,495
171,495,495,205,496
98,496,492,713,493
908,497,495,524,496
111,496,494,162,494
908,495,495,884,492
457,497,494,311,494
101,494,495,284,494
894,495,496,856,495
130,494,495,203,495
109,495,493,558,495
920,496,496,639,493
125,494,496,168,495
792,495,496,871,494
624,494,495,392,496
114,495,494,226,495
907,495,493,879,496
223,494,494,226,495
101,493,495,390,495
904,494,494,778,495
126,494,494,187,496
503,494,496,769,494
894,497,496,513,494
124,495,494,171,494
901,494,494,891,495
398,496,495,289,493
103,497,496,307,496
898,495,490,843,494
130,496,496,191,495
169,496,489,611,494
908,495,500,600,495
130,499,497,167,496
858,496,490,880,494
560,502,501,359,495
110,495,495,243,495
905,494,481,871,493
184,497,519,195,496
103,495,507,442,493
912,493,507,723,493
121,497,492,182,495
636,491,487,801,482
800,488,490,458,490
110,499,505,180,496
899,499,490,873,493
334,505,493,251,497
109,494,483,331,496
917,492,492,821,495
118,490,500,195,494
282,504,484,670,494
902,498,487,565,493
120,496,491,171,494
881,496,490,880,496
509,497,488,343,493
117,496,491,268,495
901,495,485,867,493
152,495,491,196,494
109,495,490,498,493
912,495,492,677,493
122,496,492,171,494
722,496,493,852,492
726,496,492,438,494
105,496,494,195,493
905,496,495,884,494
288,499,495,256,494
103,497,495,347,493
913,497,497,803,494
119,496,497,196,495
359,496,494,709,494
913,497,496,540,495
112,497,494,166,494
902,496,494,872,494
476,497,495,323,496
103,496,496,271,495
912,495,494,860,494
154,495,495,198,493
96,494,496,744,494
893,494,494,504,494
119,496,496,175,495
909,493,494,884,496
405,496,495,292,495
115,496,497,297,493
915,494,496,851,495
123,495,495,194,495
108,495,495,581,495
907,495,495,626,494
127,495,496,166,495
835,494,495,883,494
604,494,491,381,494
111,496,494,233,494
910,494,494,879,495
198,496,495,223,494
97,494,494,639,493
917,496,494,566,496
117,494,494,157,496
902,493,495,874,494
533,494,494,348,495
110,494,492,254,495
913,494,495,864,494
183,495,495,191,497
103,494,494,474,495
912,494,493,688,495
113,494,494,178,495
702,494,495,831,493
757,494,496,443,495
105,495,493,189,495
891,494,493,878,494
296,495,495,244,496
105,494,495,348,494
919,495,494,814,495
123,497,493,192,497
333,496,492,698,494
912,497,496,548,494
108,494,493,180,494
887,496,492,879,493
482,494,492,340,494
99,497,494,382,495
902,494,494,776,494
112,495,494,183,495
484,495,493,750,493
903,494,493,519,493
114,495,497,179,495
908,493,496,879,494
422,496,498,292,494
112,494,495,292,495
903,494,489,851,495
130,498,515,193,496
95,492,500,769,495
820,509,494,465,496
95,501,505,254,493
894,495,497,867,493
164,496,504,184,496
90,504,473,714,495
911,499,465,509,494
120,495,502,152,496
901,495,490,865,496
455,497,495,297,495
102,495,497,275,494
907,505,501,855,495
145,493,491,203,495
106,497,468,559,494
923,489,501,637,496
126,494,502,170,495
815,493,490,878,494
641,496,490,394,496
110,494,488,219,496
908,491,487,874,495
231,492,496,211,496
94,496,488,608,493
919,492,492,582,494
114,496,493,154,496
885,494,493,870,494
577,496,492,356,495
119,496,493,241,495
892,497,494,872,495
201,496,494,198,493
102,497,494,437,495
918,496,495,716,496
129,500,496,177,494
640,499,496,809,494
787,501,497,460,496
103,501,495,178,493
909,498,497,872,493
325,501,495,249,497
107,501,495,330,492
916,497,496,803,496
119,497,496,182,495
286,497,497,669,493
921,497,496,558,495
112,497,498,175,495
907,496,496,885,493
497,496,497,343,493
104,496,494,275,494
902,495,495,873,493
153,496,495,207,494
98,495,495,748,493
917,496,496,523,493
112,496,496,173,495
910,495,495,883,494
434,494,494,311,494
112,494,494,285,493
897,495,496,850,494
125,496,495,191,494
103,495,494,564,493
922,495,495,626,495
116,494,494,157,494
799,495,494,874,494
656,496,494,398,494
118,493,493,218,495
888,494,492,870,495
235,495,493,223,496
95,494,493,598,495
922,496,492,598,495
128,494,496,155,494
880,494,494,876,495
572,494,494,368,493
118,493,493,240,493
903,494,495,877,495
187,495,496,200,494
100,493,494,444,494
918,494,494,724,495
125,495,494,177,494
642,495,494,802,495
800,497,494,473,494
130,495,491,190,495
901,492,491,878,495
333,497,494,258,496
100,500,491,329,493
905,495,490,823,498
130,498,490,183,494
277,497,501,658,494
913,497,501,559,493
123,506,479,166,495
886,498,492,880,493
514,499,485,338,497
111,493,518,256,493
916,495,493,855,492
151,499,493,195,495
95,490,503,716,494
921,491,481,509,494
103,497,488,172,494
894,495,498,883,493
447,494,503,305,493
112,497,487,287,494
903,493,493,848,493
118,494,495,194,492
96,495,485,778,493
817,495,493,464,496
105,497,489,165,494
897,494,492,861,493
361,499,491,263,495
103,493,492,302,493
900,494,492,821,494
113,498,494,190,495
232,493,493,637,494
924,496,492,577,496
124,495,496,159,494
892,494,495,882,494
550,496,493,359,495
101,495,496,260,493
902,495,494,880,494
189,497,495,209,496
94,495,495,705,494
912,498,496,543,496
108,496,498,177,494
893,496,496,881,493
469,498,497,324,496
114,499,496,272,494
900,496,495,852,494
146,497,496,200,494
93,496,497,756,493
898,497,497,505,497
117,495,496,176,494
890,497,498,886,495
409,497,496,295,496
109,496,495,304,494
914,495,496,850,495
116,497,496,191,495
123,497,497,583,494
914,494,495,617,496
120,495,498,157,494
830,495,495,877,496
618,495,497,381,495
115,494,495,232,495
908,494,494,874,495
235,495,496,221,495
100,495,496,410,494
902,495,495,759,494
118,496,495,182,495
555,494,493,783,495
846,496,495,491,495
109,495,493,181,495
889,496,495,883,493
370,496,493,275,495
98,495,494,462,493
912,495,495,701,494
128,494,493,173,494
682,494,494,809,494
773,496,495,457,494
120,495,491,183,493
891,496,494,887,493
324,495,492,254,496
103,495,494,334,495
905,495,493,825,494
133,494,495,197,493
304,493,493,682,493
906,495,489,562,495
123,495,494,172,494
896,494,494,879,495
507,494,496,340,496
108,495,494,276,493
913,493,493,861,494
157,496,495,200,495
91,496,491,734,495
906,495,494,512,496
104,499,486,160,495
901,497,494,875,494
432,501,498,295,494
101,490,486,275,494
895,497,488,844,495
138,500,495,191,493
104,499,495,552,495
926,488,509,639,490
115,485,496,163,490
793,502,502,868,495
653,500,489,399,495
105,497,494,217,493
904,499,481,873,494
234,499,500,218,495
110,492,488,397,494
917,501,493,783,494
117,504,488,192,494
500,494,486,775,495
878,493,492,509,494
135,494,495,168,495
899,492,491,886,495
412,494,496,299,493
102,499,488,298,493
917,493,497,840,494
120,492,497,187,494
117,496,491,581,495
904,495,493,615,494
132,495,495,157,495
863,497,493,883,496
605,496,494,380,494
116,495,494,236,493
912,495,495,885,493
225,496,494,217,492
96,496,495,624,493
915,498,495,579,496
119,497,497,160,494
871,498,496,861,496
547,497,498,351,494
105,498,497,254,494
892,497,495,865,495
179,499,498,195,494
102,497,497,457,494
927,497,497,704,494
113,497,497,164,495
647,497,496,809,491
768,498,495,451,495
109,495,496,192,494
897,497,495,889,493
323,495,496,257,495
101,496,494,345,494
917,496,495,823,494
117,494,495,201,495
329,497,495,695,496
921,498,495,557,494
111,497,494,171,494
893,497,495,886,495
494,494,495,343,495
113,495,497,272,495
910,495,495,867,496
144,494,495,201,497
97,494,493,737,496
906,495,494,515,493
102,494,494,161,495
901,495,493,882,493
429,495,495,297,495
103,495,493,289,495
896,497,494,854,494
130,495,495,189,494
90,494,495,785,496
815,493,494,473,495
106,494,496,169,494
909,496,493,879,493
371,494,495,267,495
96,495,493,473,495
923,495,493,679,493
117,496,493,161,495
690,496,493,825,495
754,495,496,440,493
102,494,495,191,494
888,495,494,874,496
306,495,495,239,494
97,496,493,525,496
914,496,495,638,494
124,495,495,156,495
738,494,493,859,495
671,496,493,403,495
120,495,495,213,494
893,495,494,876,494
261,496,493,236,493
107,496,492,370,495
918,494,492,778,494
124,496,494,186,494
456,496,494,739,494
906,497,494,518,494
108,494,493,162,494
905,495,492,878,495
423,494,493,303,492
101,494,493,297,495
904,495,493,854,494
116,494,496,194,495
102,493,492,569,495
928,494,495,623,493
117,494,493,165,495
828,494,493,870,494
638,496,494,384,496
108,496,494,227,494
895,496,493,879,493
237,497,487,227,494
96,494,489,616,496
915,496,491,571,497
114,496,483,158,494
883,496,494,874,494
551,500,493,347,496
110,496,486,253,493
902,497,511,869,494
171,497,497,193,494
93,493,486,691,495
915,492,486,530,495
108,497,486,150,493
903,495,491,877,492
482,498,489,333,492
107,503,491,273,492
898,496,496,872,493
160,495,486,196,492
105,493,495,511,494
923,495,492,671,494
129,496,491,173,493
731,492,491,849,493
707,494,491,426,495
103,495,492,200,494
913,493,492,879,494
274,495,493,240,494
106,496,494,349,495
917,494,495,790,494
113,495,494,179,493
358,495,493,695,493
909,496,495,536,494
105,497,496,171,494
895,497,495,880,493
470,497,496,320,496
97,496,496,390,493
890,497,496,765,495
114,497,496,175,492
503,496,494,757,494
874,498,496,497,495
108,496,497,175,495
904,496,496,870,494
397,497,496,285,494
99,497,496,425,494
918,496,495,718,494
119,495,495,170,496
623,496,496,803,494
799,497,496,474,493
111,495,496,183,495
884,496,496,884,494
334,496,494,265,495
107,496,493,320,496
892,496,495,832,494
116,495,495,195,493
226,497,493,639,495
919,497,495,586,494
108,496,495,169,494
890,496,493,888,494
527,496,496,354,496
100,495,496,256,494
898,496,493,883,493
178,496,495,204,493
95,495,492,693,493
916,496,493,537,494
116,496,493,170,494
903,494,495,882,495
487,494,495,324,496
100,496,493,274,495
908,493,495,865,494
159,496,493,202,495
101,496,494,512,494
907,494,494,668,495
123,494,493,171,494
709,497,493,853,494
699,497,493,427,493
125,496,495,215,495
906,496,493,881,494
270,496,494,249,496
106,495,493,365,493
907,495,495,802,494
130,495,494,194,494
406,496,493,742,495
916,497,496,527,496
118,495,492,178,494
894,494,494,885,494
447,495,496,314,496
97,494,491,404,493
927,494,492,764,494
123,495,494,183,493
530,494,493,769,496
869,497,494,496,498
120,496,493,164,494
893,497,493,883,494
406,494,492,287,494
104,494,494,298,495
918,496,492,844,494
129,496,493,190,492
140,494,492,595,494
908,494,494,608,494
125,495,497,157,494
846,498,495,882,496
591,494,491,368,496
102,499,491,239,496
905,497,487,875,494
199,498,481,207,496
104,496,492,427,492
924,496,493,745,496
113,494,485,180,496
581,498,481,786,495
823,494,489,482,497
116,492,488,185,495
905,496,479,885,494
369,495,484,274,496
107,497,475,319,496
905,496,493,829,495
130,493,498,197,495
222,494,490,635,492
903,494,487,587,495
120,501,487,170,495
881,493,493,892,494
551,498,499,366,493
115,497,486,252,495
900,494,503,880,493
195,495,492,206,496
102,492,490,441,493
917,496,492,714,495
128,494,493,170,493
648,495,492,811,495
791,497,492,457,494
111,495,493,181,495
900,497,493,876,495
342,497,494,251,494
111,495,495,319,494
902,496,496,810,495
126,496,495,192,494
262,497,494,664,493
910,497,496,570,493
107,496,496,174,493
888,497,496,887,493
533,496,497,352,495
96,496,496,350,496
905,496,497,804,494
119,496,496,182,494
366,496,495,719,495
909,495,494,543,494
100,496,496,172,495
895,496,494,889,495
479,495,495,338,496
109,496,495,282,497
904,496,495,878,495
160,494,495,204,494
95,495,494,747,493
920,496,494,525,495
118,495,495,172,494
903,494,496,884,495
452,495,495,311,492
115,494,496,284,494
896,495,496,857,494
129,494,496,187,495
97,494,494,771,494
846,494,495,480,495
117,495,494,165,495
897,494,494,878,495
381,496,494,277,495
109,497,494,305,493
914,495,496,828,494
131,496,494,190,494
182,495,494,618,495
923,495,495,590,497
122,495,493,161,495
890,495,494,879,496
554,496,496,366,494
114,494,495,253,495
913,495,495,879,493
178,495,494,210,494
96,496,495,690,494
915,498,493,538,497
120,496,496,162,495
884,495,493,875,493
485,495,495,335,493
95,494,493,377,495
918,494,494,774,494
131,497,493,188,493
447,495,492,751,493
917,495,495,514,493
108,495,493,176,495
885,494,493,886,493
422,495,495,303,494
104,495,495,290,494
917,496,492,853,494
141,496,494,193,495
103,495,493,564,493
910,498,494,624,497
112,496,487,162,496
812,493,491,876,495
626,497,491,381,494
127,493,480,216,496
900,499,495,868,495
244,494,507,226,494
101,493,497,394,495
914,496,484,770,497
118,491,487,172,496
519,495,493,772,494
865,499,483,498,492
107,493,489,171,494
911,498,495,871,493
393,495,484,282,496
105,497,496,306,494
902,493,493,848,494
130,496,489,202,494
137,495,494,606,493
915,496,491,617,493
118,495,489,171,494
863,494,491,881,495
607,495,493,383,495
101,495,492,233,495
913,493,491,875,493
204,495,492,218,493
103,495,492,416,492
921,494,494,752,494
128,496,496,183,494
555,495,493,776,494
844,498,496,486,495
109,496,495,166,494
888,496,495,878,495
391,497,496,284,496
96,498,496,449,493
919,497,496,708,494
123,497,497,161,494
642,496,495,795,495
776,495,496,442,493
130,496,496,174,494
910,496,496,872,495
328,495,496,243,495
95,497,497,506,495
911,497,496,655,494
118,497,497,166,495
706,498,496,845,493
712,497,496,432,494
116,497,494,202,495
892,496,495,885,494
272,496,495,255,494
106,498,495,357,494
904,495,495,806,494
120,494,496,186,493
381,496,495,725,495
908,495,493,534,494
102,495,495,169,494
889,497,493,880,493
461,496,494,324,496
114,495,494,288,494
899,496,495,864,496
141,495,495,196,495
84,497,496,767,496
856,494,495,496,494
126,495,494,173,494
906,494,493,874,496
401,496,495,293,494
100,496,495,301,494
905,495,494,840,494
124,498,495,198,495
141,494,495,599,493
903,497,494,607,495
122,496,493,160,494
844,495,494,872,495
599,496,495,380,496
114,496,495,229,496
914,495,495,880,494
237,495,494,224,495
101,494,492,401,496
897,496,493,764,495
124,497,494,181,495
548,494,494,789,495
852,496,494,497,493
110,495,494,166,495
900,495,493,879,494
405,495,493,281,495
99,495,494,445,495
922,496,494,722,493
111,496,494,176,494
635,496,493,797,494
795,495,495,466,496
111,498,496,177,496
891,492,496,875,495
334,505,490,252,494
99,501,497,494,495
900,495,487,660,495
112,489,495,165,494
742,492,491,848,496
699,495,492,414,496
99,492,487,291,494
905,499,489,839,496
124,492,493,185,496
99,499,490,777,496
813,501,478,467,495
98,494,487,253,492
894,499,492,863,493
166,495,477,203,493
101,498,492,484,494
929,492,491,695,494
138,493,489,173,495
708,493,491,837,495
741,493,494,444,493
104,495,489,201,495
896,494,491,888,493
305,494,492,250,493
113,494,492,346,493
901,494,493,812,493
116,495,494,194,493
327,496,494,699,494
922,497,495,549,496
104,495,496,170,494
899,495,494,889,493
490,496,495,338,494
118,495,498,277,496
900,496,496,873,495
150,498,494,197,496
91,497,495,734,493
912,499,496,500,496
123,496,496,161,495
903,497,495,867,492
432,497,496,291,493
107,496,494,284,493
919,495,495,847,494
141,497,494,193,493
103,496,495,548,492
931,495,494,643,496
131,496,494,173,493
790,494,494,872,496
656,497,495,408,495
106,496,495,223,494
907,496,496,889,494
228,497,497,226,495
112,494,494,389,495
908,495,493,772,493
123,494,495,185,496
505,495,496,771,494
864,495,494,506,494
129,495,496,170,496
902,494,495,886,493
407,496,495,292,496
108,496,493,302,492
902,496,497,841,494
127,496,493,199,494
130,494,494,602,494
911,496,496,603,498
108,496,496,170,495
876,494,493,875,494
586,494,494,371,495
120,494,494,244,495
910,495,494,874,495
207,496,493,213,493
95,495,496,640,494
916,497,494,563,495
128,495,493,161,494
895,493,493,878,496
538,496,494,346,495
98,496,494,348,496
902,494,494,800,495
121,497,494,182,496
369,497,492,722,496
906,495,495,535,494
103,495,495,166,495
897,495,494,882,494
483,496,494,326,493
96,495,493,386,496
919,494,494,779,495
123,495,494,186,496
484,495,493,766,493
900,494,493,511,498
117,496,493,177,494
885,494,493,883,495
420,493,496,299,496
113,494,495,297,493
919,494,496,846,495
133,495,494,199,496
98,495,492,774,495
813,497,489,468,496
128,499,489,170,496
905,493,495,880,496
368,499,491,266,495
102,502,495,309,494
916,493,495,824,496
126,499,486,182,495
210,493,488,626,494
929,493,495,585,494
135,495,509,161,495
886,499,492,870,495
560,495,486,356,495
107,494,491,243,495
902,494,490,869,493
195,500,491,198,496
95,493,487,687,495
914,493,494,546,492
123,494,491,169,495
894,494,491,883,494
500,493,493,335,496
94,492,491,368,495
921,495,491,781,496
126,496,494,181,493
451,495,494,737,494
918,495,495,513,494
105,496,495,168,493
890,495,495,868,492
432,499,494,303,496
97,495,495,397,494
918,496,496,743,494
129,497,494,175,494
539,498,495,767,493
847,498,493,489,495
103,497,496,179,494
897,497,494,875,493
382,496,496,269,496
117,497,494,297,493
909,496,496,830,494
132,497,496,195,494
132,497,495,581,494
906,497,495,615,495
119,496,494,166,494
832,496,495,885,494
596,497,495,387,494
117,496,495,238,494
907,495,495,876,495
221,496,495,228,495
101,495,493,418,495
909,496,495,764,495
129,495,494,181,496
538,496,493,774,494
857,496,496,497,493
108,495,495,173,495
908,496,494,883,494
395,495,495,283,493
116,494,494,305,493
914,496,493,846,493
127,496,496,190,495
149,495,495,598,493
926,497,495,615,495
131,495,495,166,494
856,494,494,880,493
604,495,495,385,495
102,494,494,236,493
905,494,493,874,494
202,496,493,217,496
99,495,496,633,495
919,494,495,564,495
117,495,495,162,494
897,495,494,872,494
541,495,496,349,496
109,496,495,252,496
903,495,495,874,495
175,495,494,197,495
101,494,493,474,494
926,495,495,699,496
117,495,497,180,494
684,493,495,830,495
757,495,497,453,495
103,495,493,198,495
906,496,495,890,494
327,494,495,264,494
98,495,494,507,494
925,496,494,672,494
129,495,494,170,494
714,495,493,856,493
703,496,492,421,493
123,494,491,200,494
903,497,490,878,495
272,495,489,237,495
101,494,488,344,494
915,493,496,789,495
129,501,485,177,495
387,503,490,715,495
908,505,494,522,494
108,498,458,149,494
895,499,491,867,495
459,487,493,310,496
113,494,506,268,496
897,497,488,849,494
123,492,508,187,496
89,496,480,753,494
884,493,493,493,497
101,495,489,155,496
890,494,488,869,494
411,500,498,288,495
108,499,498,294,492
896,488,484,860,495
132,492,490,213,496
103,494,482,586,495
909,495,488,643,494
133,494,500,168,494
820,498,498,871,496
624,495,492,383,495
104,491,494,225,494
899,495,492,874,495
239,495,493,215,495
98,494,493,608,494
924,495,494,577,492
116,496,493,157,495
880,495,495,871,496
557,497,495,352,494
103,497,494,238,492
896,497,494,874,493
182,500,496,215,495
97,499,495,674,495
902,501,495,546,493
109,498,495,165,494
896,498,497,868,494
499,498,496,321,495
96,497,496,360,493
908,498,497,773,494
129,498,497,173,494
474,497,496,741,494
902,496,497,513,496
113,496,495,163,494
907,495,496,883,494
430,497,496,305,494
111,496,495,295,494
896,496,495,856,494
112,496,496,203,494
98,495,495,789,496
832,496,496,482,495
111,495,495,173,496
894,495,495,889,493
364,496,496,267,496
102,496,495,314,496
904,494,497,833,493
131,497,495,188,495
212,495,493,635,494
913,494,494,585,494
106,496,496,169,494
899,495,492,884,494
546,495,494,360,494
104,496,494,250,494
888,495,496,869,495
192,496,494,201,495
102,493,493,460,494
911,495,493,690,494
111,495,493,176,494
697,493,495,829,494
747,496,492,442,496
103,495,495,196,494
892,495,493,878,495
295,496,496,255,494
101,493,493,338,493
905,494,493,813,495
126,495,494,193,493
345,494,492,713,494
921,495,496,544,495
103,496,496,182,495
894,495,494,888,496
468,496,495,338,495
92,493,493,391,494
905,495,494,779,494
128,493,493,189,495
493,495,492,762,495
882,497,495,512,496
123,495,495,175,495
893,494,495,888,494
414,495,494,298,496
116,493,494,294,493
913,494,494,842,492
123,496,495,189,497
107,495,495,576,494
908,496,493,623,492
123,494,493,157,496
843,494,494,870,494
625,495,493,380,495
116,494,492,227,494
904,494,493,876,494
225,497,493,217,496
94,495,493,617,496
902,495,493,572,492
128,495,494,156,494
879,495,494,876,495
557,496,494,357,493
102,495,494,250,496
914,495,494,879,494
171,496,493,200,495
96,494,494,659,496
918,499,501,549,496
112,498,508,159,495
896,506,486,878,496
508,498,472,338,495
93,490,492,360,497
901,494,504,794,495
116,500,490,183,494
399,497,498,729,494
908,497,490,524,497
117,495,498,167,495
887,499,485,877,494
458,494,487,307,495
105,497,482,276,496
910,490,487,860,494
134,496,483,195,494
91,500,492,763,495
860,495,489,494,493
113,493,490,167,494
888,494,493,868,493
391,495,491,268,495
107,495,489,295,494
902,495,494,830,494
122,494,493,176,494
168,495,495,607,493
913,496,493,596,495
128,495,493,159,495
897,494,493,865,497
561,496,495,353,494
92,496,495,333,493
921,496,495,807,495
132,496,494,192,497
321,496,495,688,495
902,497,494,555,495
124,496,497,179,494
897,495,496,873,495
497,498,495,336,494
100,497,497,269,496
898,496,496,868,494
145,498,496,205,495
93,495,495,736,494
908,499,495,522,495
110,495,496,169,494
904,495,494,884,494
441,496,495,318,496
100,495,488,288,493
901,497,493,860,493
116,497,496,202,492
97,497,495,774,493
841,497,494,484,494
105,495,495,167,495
899,495,494,881,493
385,494,493,277,494
105,497,494,303,495
899,496,495,838,494
114,496,496,187,496
146,495,493,597,494
915,496,497,607,493
120,495,494,164,494
876,495,493,876,496
598,496,496,380,494
107,495,494,240,495
908,496,494,874,495
219,497,494,224,497
94,495,491,635,494
915,497,493,564,495
119,496,496,163,494
890,496,494,870,496
536,495,494,351,494
109,495,493,262,493
906,495,495,869,495
169,496,494,199,493
103,494,494,475,495
905,496,494,697,495
118,496,493,167,493
692,496,493,837,492
738,495,495,443,495
122,495,495,195,495
898,496,493,887,494
280,495,493,244,494
101,496,494,347,494
920,495,496,806,494
116,495,494,185,495
363,495,494,719,494
915,495,494,532,496
106,495,493,174,495
888,495,493,880,494
462,494,496,321,494
112,494,493,275,491
901,494,494,862,493
133,494,493,195,497
95,496,493,754,496
876,496,491,499,493
98,495,493,240,494
900,495,494,877,494
215,494,494,205,493
103,495,493,434,494
912,495,494,731,495
126,495,496,177,495
613,495,494,804,495
800,495,494,474,494
115,495,492,179,493
889,495,493,886,493
339,496,493,273,494
99,495,492,485,494
924,495,493,675,494
117,497,494,169,494
705,496,493,844,494
721,497,496,431,493
97,496,492,289,493
903,496,493,851,493
131,495,493,200,495
91,496,494,774,495
840,497,494,480,495
131,495,493,166,494
896,495,493,869,493
373,496,493,273,494
109,497,493,310,493
912,495,494,828,495
128,496,494,194,494
201,496,491,626,494
918,495,493,579,495
119,495,492,164,494
891,496,494,883,494
540,496,491,351,496
97,495,493,338,495
912,496,494,802,494
117,500,501,179,495
331,503,498,688,495
906,494,488,542,494
107,497,494,168,493
902,505,486,879,496
488,504,492,333,495
113,496,505,270,496
915,497,494,862,496
148,493,487,199,495
108,496,490,513,494
907,492,491,669,495
131,492,473,170,497
713,497,487,856,493
713,496,479,430,496
109,495,491,213,495
900,495,496,889,494
269,494,490,248,494
99,495,490,568,494
902,495,490,616,494
123,496,493,158,494
843,495,492,865,496
617,495,493,376,494
120,495,492,224,494
909,496,494,871,494
201,495,492,216,494
99,496,494,624,493
919,494,495,562,494
126,496,495,155,495
892,495,495,869,493
534,497,495,347,496
112,496,494,253,494
904,496,496,875,493
191,496,496,194,494
106,494,495,453,496
899,496,496,698,494
114,495,495,167,495
674,496,494,798,494
781,495,494,447,494
120,496,495,185,493
902,495,495,881,497
309,498,496,262,493
103,496,495,339,496
893,496,496,820,495
112,495,495,205,495
301,497,496,689,494
921,497,496,564,495
127,497,497,185,495
882,496,495,895,494
502,496,495,349,496
109,496,497,272,495
909,496,495,875,495
144,496,495,204,494
95,494,494,738,494
912,498,494,519,495
113,495,493,161,495
903,496,494,880,494
448,496,494,307,495
111,495,493,280,493
907,496,495,856,495
141,496,494,190,496
96,495,494,764,495
836,496,494,481,495
123,495,494,176,493
893,497,494,879,494
378,496,495,277,494
110,494,493,306,494
897,496,495,826,494
133,495,495,187,495
190,496,493,614,495
901,496,493,592,493
110,495,493,167,495
888,497,494,880,497
564,496,493,360,496
97,495,493,346,495
907,495,493,809,495
127,495,495,193,496
333,495,494,698,494
912,494,492,561,495
119,496,494,177,496
908,496,497,881,497
491,494,493,334,494
112,495,495,281,492
916,495,496,860,495
151,496,494,198,497
96,496,493,754,494
880,496,492,495,497
101,495,492,162,494
899,494,495,880,496
405,496,495,281,496
112,494,494,302,493
908,494,493,841,495
115,496,493,194,492
139,495,495,600,494
927,494,493,600,495
132,494,492,162,494
862,495,494,869,492
593,494,492,365,495
108,496,494,244,494
911,495,492,868,491
190,496,493,205,495
96,496,491,671,494
910,495,493,544,495
117,494,495,166,495
880,498,493,882,493
492,495,492,339,495
109,494,492,270,495
906,496,495,862,494
150,496,495,201,497
81,496,495,741,496
907,497,495,513,495
104,495,495,177,493
890,494,493,879,492
430,494,495,307,494
110,495,493,293,493
916,495,491,851,494
119,495,494,200,494
99,496,492,775,495
821,497,494,476,494
125,495,494,171,495
906,496,493,869,496
361,494,494,265,494
102,499,496,311,495
903,494,488,824,496
126,497,491,185,496
244,503,494,643,495
908,501,474,560,494
105,499,490,164,496
888,499,461,873,496
521,491,494,345,495
93,489,484,341,496
905,501,482,802,494
124,495,485,178,496
378,492,488,700,494
912,496,482,534,493
113,498,488,171,496
899,494,485,886,493
456,495,480,327,494
113,497,491,288,492
895,495,490,866,493
124,497,491,210,495
93,495,491,783,493
855,496,492,495,495
127,495,492,166,494
902,496,492,878,493
378,497,494,279,493
108,496,494,293,492
912,496,493,827,494
136,496,496,183,494
180,497,495,606,494
910,497,497,589,494
116,496,494,164,494
861,496,495,872,493
582,496,495,364,493
93,497,495,328,494
899,496,494,812,493
130,496,497,177,495
307,495,496,660,494
916,495,495,544,494
124,496,497,159,495
888,498,495,878,495
490,496,496,335,494
113,497,495,267,493
909,496,495,862,495
139,496,495,205,493
101,495,496,515,494
935,495,494,678,495
124,498,494,177,495
698,496,496,852,494
718,496,496,439,495
101,496,495,209,494
902,495,494,890,495
265,494,494,240,496
108,496,493,368,494
910,495,495,805,495
137,494,496,192,494
412,495,495,730,495
921,496,494,533,493
121,495,495,170,495
894,495,495,890,493
460,496,494,322,493
98,494,496,400,496
900,497,494,761,495
120,494,496,181,497
543,496,495,765,493
851,497,495,493,495
121,496,495,172,495
903,496,493,879,495
387,496,494,282,495
102,494,492,304,494
913,495,494,838,495
115,495,495,192,497
145,494,492,597,492
920,497,496,608,498
131,495,496,174,495
872,494,494,884,496
582,495,495,381,495
107,494,494,246,495
910,494,495,889,494
198,495,494,221,496
99,495,493,647,495
921,495,493,559,496
116,496,493,165,495
885,497,493,876,495
517,496,492,348,495
114,494,492,263,496
901,495,493,868,495
154,497,494,198,494
99,494,495,727,494
919,496,493,521,497
120,495,493,159,494
901,495,492,875,497
441,497,493,309,497
101,496,493,282,493
912,495,495,846,495
140,496,493,196,497
96,494,493,764,493
840,496,494,483,495
123,495,495,170,495
909,497,493,867,494
376,494,493,271,496
106,495,494,305,495
912,496,495,833,495
122,497,493,189,495
194,496,493,629,495
922,496,494,582,496
111,496,495,166,496
872,497,490,888,494
541,495,493,362,496
107,495,494,250,495
912,496,492,880,494
171,498,502,213,495
99,499,491,690,494
924,490,496,540,495
126,500,494,172,495
892,500,491,882,495
490,502,470,337,499
114,500,494,265,496
902,495,477,857,494
163,497,470,196,494
102,494,486,504,493
920,490,487,656,495
107,496,497,165,495
717,493,507,844,494
697,498,490,411,495
126,495,516,204,495
910,498,493,874,495
265,493,490,224,495
103,497,493,376,495
906,496,500,780,495
119,493,491,177,492
461,494,493,746,494
909,495,495,520,493
102,494,492,168,494
899,493,491,878,492
422,494,492,299,495
104,495,494,291,495
899,494,494,851,495
133,494,493,189,493
91,495,493,778,495
806,496,493,469,495
114,496,494,177,495
909,497,494,882,493
369,500,495,268,496
114,499,497,313,494
909,499,495,831,496
133,500,497,193,494
193,498,496,617,493
908,498,496,584,494
108,500,497,155,494
886,498,494,869,495
555,498,495,359,495
101,498,497,253,493
902,497,494,865,495
190,498,496,211,496
102,496,494,461,495
908,496,496,721,496
112,495,497,183,494
673,496,494,813,493
764,498,495,461,495
130,495,495,189,494
896,496,494,881,495
316,495,496,256,494
107,494,496,330,496
918,496,494,810,494
129,495,496,182,496
298,494,493,674,493
908,498,495,555,495
119,495,496,162,495
898,494,495,889,494
492,496,494,335,495
115,494,495,266,493
907,496,493,863,494
144,494,495,196,494
97,494,494,740,495
910,493,493,512,495
123,495,493,175,495
891,493,493,878,494
423,496,493,303,495
100,494,492,296,495
908,496,495,851,495
132,495,494,199,494
100,495,493,574,494
909,496,496,619,494
120,495,494,173,494
864,495,493,874,493
598,495,493,382,494
93,495,494,320,494
907,494,494,828,496
133,494,494,189,493
209,495,495,629,494
910,495,493,595,494
105,495,496,167,495
892,494,493,886,494
570,495,493,367,494
101,494,494,255,493
900,495,494,873,494
181,496,494,197,495
93,494,493,686,492
909,496,495,548,495
120,495,495,174,495
900,496,495,876,493
491,494,496,328,496
97,494,493,371,493
914,495,494,768,493
111,494,494,177,494
478,495,493,747,494
893,495,494,507,495
99,496,494,243,495
904,495,493,882,494
210,497,494,212,496
93,495,495,651,492
918,493,494,549,493
108,494,492,159,495
882,494,493,872,493
502,495,492,336,496
102,494,492,264,493
908,494,495,867,495
147,496,493,193,494
104,496,493,490,494
916,496,495,689,496
133,495,493,177,495
708,494,495,845,494
728,495,495,432,494
119,494,492,197,494
915,496,492,878,495
282,494,493,245,494
105,494,493,348,495
