Sensor0,Sensor1,Sensor2,Sensor3,Sensor4

494,492,494,621,490
492,492,492,573,493
494,494,494,0,409
488,1,492,492,493
399,492,493,491,492
373,490,493,494,492
377,492,494,491,492
385,491,493,491,491
409,488,493,493,493
468,9,492,493,491
492,373,490,493,494
492,377,492,494,491
492,385,491,493,491
491,409,488,493,493
493,468,490,492,492
493,526,490,491,492
494,602,489,491,492
495,633,490,492,492
493,626,490,492,491
492,591,490,494,493
493,495,491,493,492
492,418,490,493,492
492,385,492,494,491
492,372,493,491,491
493,377,491,492,492
492,392,491,491,491
494,434,492,493,492
493,494,492,493,492
493,559,491,493,493
493,623,491,494,492
492,630,490,493,493
493,621,493,494,494
494,556,491,494,492
493,454,492,493,491
493,402,491,492,491
494,371,491,496,492
492,374,490,493,493
493,383,492,492,490
492,408,491,494,492
492,460,490,493,491
492,519,491,493,490
493,593,490,492,491
493,632,491,494,492
491,628,490,492,492
494,599,490,491,493
494,511,491,493,492
493,423,492,493,493
492,388,493,493,491
492,375,492,494,492
494,376,490,493,491
492,390,493,493,490
492,428,492,492,491
492,485,490,493,493
492,550,489,491,491
494,619,492,493,491
493,633,491,494,494
493,623,491,494,494
493,570,491,495,493
493,465,491,494,492
493,407,491,493,493
494,372,493,494,492
493,372,491,492,491
493,381,490,492,491
493,400,492,495,491
492,452,490,492,491
493,512,491,492,492
492,585,490,494,493
492,631,491,493,492
492,629,492,494,490
492,612,493,493,494
494,523,491,493,492
493,431,490,494,492
493,391,490,492,491
494,372,490,492,492
493,377,490,493,493
493,384,491,492,493
492,422,491,492,490
493,476,490,493,491
492,540,491,492,490
492,614,492,492,490
493,632,491,494,492
491,622,489,492,491
492,580,492,494,493
493,476,490,493,493
493,411,491,494,493
493,379,490,494,491
493,370,489,494,492
492,382,490,493,492
493,397,493,493,492
492,445,491,493,492
492,504,491,491,491
493,571,491,492,491
492,628,491,493,493
493,631,490,492,492
493,615,490,495,494
492,537,491,494,492
493,441,491,494,492
492,397,490,493,493
494,373,493,492,491
492,377,491,494,492
494,382,489,491,492
495,413,489,492,492
493,469,490,492,491
492,529,491,493,493
493,608,490,491,492
493,634,491,494,491
493,625,491,492,491
493,588,492,493,491
493,491,491,494,492
493,415,491,492,492
492,384,493,492,493
493,371,490,494,493
492,380,490,493,493
492,394,491,494,492
492,438,491,492,492
493,499,489,493,491
493,562,489,493,491
493,623,489,492,492
494,631,489,494,494
495,619,490,493,492
492,551,492,493,494
494,450,491,493,491
493,400,491,495,494
492,374,491,494,492
492,375,492,493,491
492,383,490,494,494
493,407,491,492,492
492,463,491,493,491
493,520,490,492,492
494,598,489,492,493
493,633,491,492,491
493,625,492,494,492
492,594,490,492,492
492,503,491,494,492
492,420,491,494,492
493,386,491,492,490
492,372,491,492,492
491,379,490,493,493
494,388,491,494,490
492,430,489,493,492
493,489,490,492,493
492,554,490,493,492
492,617,490,493,492
492,633,492,494,494
493,623,492,493,491
493,561,492,493,493
493,461,492,493,492
494,405,492,494,492
492,374,491,493,494
494,373,493,492,491
492,383,491,494,492
491,405,491,494,492
492,455,490,492,492
493,513,490,493,491
492,588,490,493,493
492,632,490,492,492
494,626,489,493,493
494,606,489,492,493
494,518,491,493,493
492,428,492,493,491
492,392,491,494,491
493,371,490,494,490
492,377,492,493,491
493,386,493,492,491
493,423,492,494,492
492,480,490,492,491
493,546,492,493,490
493,614,490,494,493
493,633,491,494,493
492,624,492,494,493
494,572,492,493,492
492,473,492,493,492
493,409,492,493,491
493,374,492,493,491
494,371,489,493,494
494,381,491,494,491
491,398,489,493,493
493,449,491,493,491
492,508,490,493,492
491,578,491,494,493
492,629,491,493,491
493,629,493,494,494
492,615,493,493,492
494,531,491,494,493
493,434,491,493,492
493,393,490,493,493
495,372,491,493,493
493,375,492,492,492
492,386,490,491,491
494,416,492,493,490
491,473,490,493,491
492,534,490,492,490
493,608,490,494,492
491,631,490,493,492
492,625,492,493,493
494,581,490,494,494
493,485,490,493,492
493,414,490,493,492
493,379,490,494,492
492,372,489,493,493
494,380,491,492,491
492,394,491,492,491
493,440,490,492,491
493,502,490,493,492
492,568,491,494,493
494,626,490,492,491
493,631,491,495,492
492,619,491,496,493
492,545,491,495,492
493,446,491,493,492
493,397,492,493,492
493,374,491,494,492
495,373,491,492,492
493,382,490,493,493
494,410,490,493,491
492,465,490,493,492
492,525,489,492,491
494,604,490,494,491
492,632,491,493,494
493,625,490,492,491
493,593,491,495,492
493,497,491,494,493
492,419,491,492,492
493,384,490,492,493
493,372,490,494,493
492,379,490,493,492
492,391,489,491,492
493,434,490,493,492
493,494,490,492,491
492,556,491,491,491
493,620,490,492,492
494,631,490,492,491
492,621,492,493,494
493,557,492,493,492
493,456,491,493,492
492,403,491,494,492
492,374,491,494,492
492,375,490,493,493
493,381,491,493,494
492,408,490,492,491
493,458,490,492,491
493,516,489,492,493
493,593,489,492,490
493,631,491,494,492
491,625,490,493,494
492,606,493,495,491
492,511,493,495,492
492,424,492,493,492
493,389,492,492,493
492,374,491,493,493
494,377,490,494,490
493,388,488,494,493
493,427,489,494,492
493,484,489,494,492
492,547,489,492,491
492,618,491,493,492
494,634,489,492,490
494,621,490,492,491
493,568,490,493,492
493,467,490,493,491
492,409,490,493,493
494,374,491,491,491
493,375,490,493,491
492,383,492,494,492
492,403,491,493,492
494,451,490,493,491
492,511,491,494,493
492,584,490,492,491
493,629,490,492,492
493,628,490,493,494
493,611,491,493,495
494,525,492,493,492
493,432,492,494,492
494,392,491,494,492
492,375,493,494,491
492,375,493,492,492
492,385,492,494,493
492,422,489,493,491
493,477,489,493,492
493,540,489,493,493
493,611,490,493,493
492,634,491,494,493
494,623,491,493,492
492,581,493,495,494
494,479,493,494,493
493,412,493,492,492
494,376,491,490,490
495,371,490,491,491
494,381,490,490,492
494,398,492,491,494
494,446,490,491,492
492,505,490,493,492
490,572,490,495,492
489,627,490,494,493
492,630,491,494,491
493,618,491,496,494
494,535,492,494,492
493,441,491,494,492
493,395,490,494,494
492,374,492,493,493
492,375,491,493,492
493,382,491,495,492
491,415,492,494,491
492,467,490,493,491
492,528,490,493,492
493,604,492,492,491
491,632,491,494,492
494,625,490,493,492
494,585,489,493,493
492,492,491,493,492
493,416,492,494,492
492,382,491,492,491
493,373,492,493,491
492,380,493,493,490
492,391,492,492,491
493,436,489,492,491
493,497,489,493,491
493,560,489,493,491
492,625,490,494,492
492,632,491,494,492
491,620,491,495,493
492,553,492,492,492
494,451,494,494,493
493,401,492,494,492
493,373,492,493,491
494,373,489,493,493
494,382,489,493,493
492,410,491,492,494
493,461,491,492,491
492,522,491,492,492
491,600,491,493,491
492,633,492,493,489
493,628,490,493,493
493,598,493,493,493
493,505,491,493,492
493,420,492,492,492
494,387,491,494,492
494,372,491,494,493
492,380,492,491,491
493,391,491,494,491
494,429,490,491,492
492,490,490,493,491
493,553,491,492,490
492,619,491,492,493
493,635,491,492,491
495,621,492,495,492
493,565,490,493,493
495,463,491,494,492
493,406,490,495,493
491,372,491,492,492
491,375,492,494,492
492,381,489,493,491
491,405,491,492,491
492,454,492,493,492
491,513,491,494,492
492,589,490,492,492
493,631,493,493,492
493,630,491,494,493
492,610,490,495,493
492,519,491,494,493
492,428,491,494,493
494,391,490,493,491
492,373,491,494,492
492,375,490,491,491
494,387,490,491,491
494,422,490,492,492
493,481,490,492,492
492,545,490,494,490
492,613,491,494,491
491,634,492,494,490
491,624,492,494,490
491,575,493,495,493
493,475,492,494,491
492,410,491,495,491
494,374,489,492,492
494,373,490,494,492
493,381,490,495,492
493,398,491,493,492
492,450,491,494,490
493,507,490,494,491
492,578,491,494,490
492,629,492,493,491
493,628,491,493,492
494,618,491,496,492
495,531,492,493,492
492,438,491,493,493
494,396,491,493,493
493,373,491,494,492
491,376,491,492,492
494,384,491,494,490
491,415,490,492,492
492,472,491,492,491
492,533,492,491,490
492,606,492,492,492
492,633,493,493,493
494,626,492,492,490
492,582,488,495,493
493,486,489,493,492
492,415,490,494,492
492,380,489,493,493
494,372,491,492,491
492,381,490,494,491
493,391,489,491,491
493,440,490,492,491
492,500,490,493,492
492,564,489,492,490
492,626,491,494,492
491,629,490,492,492
491,618,492,494,491
491,546,492,493,491
492,446,490,494,491
492,399,490,494,491
493,371,490,494,491
491,375,489,493,493
493,384,490,494,493
493,411,490,494,492
492,464,490,493,491
493,525,490,493,491
493,600,489,493,491
493,632,490,492,491
494,625,491,492,492
494,592,491,493,492
492,501,491,493,492
493,419,491,493,491
492,385,490,494,494
493,373,491,495,491
492,380,491,494,490
491,390,492,494,490
493,432,490,492,491
492,492,490,493,491
491,556,489,492,491
494,620,489,493,492
493,632,490,494,492
492,620,491,493,491
493,560,491,494,492
492,456,490,493,492
492,403,491,493,491
492,375,492,494,490
492,373,491,492,491
491,383,491,492,491
494,404,492,494,490
492,456,489,493,491
493,516,489,493,492
492,593,489,494,492
492,629,490,493,493
493,628,493,494,493
494,604,491,494,491
493,511,493,493,493
493,427,492,493,491
493,389,491,493,492
494,372,492,494,491
493,379,489,493,492
493,387,491,492,492
491,428,491,493,491
492,485,491,493,491
492,548,492,493,492
493,616,490,492,491
494,632,492,494,491
491,621,489,492,492
495,570,489,493,492
494,469,489,493,491
493,408,490,493,491
492,376,489,494,491
494,373,489,494,489
492,382,491,493,490
492,402,492,492,491
492,451,491,493,491
493,509,491,492,491
494,583,491,493,491
494,629,490,494,493
492,628,491,494,493
492,614,490,495,493
492,526,491,494,492
493,432,490,494,492
492,393,490,494,493
493,371,491,492,492
494,375,490,492,491
494,386,490,491,491
494,420,492,493,491
493,475,490,493,490
492,538,491,494,492
491,611,490,494,491
492,633,491,493,490
492,624,493,494,493
494,580,492,493,491
493,480,491,493,492
492,410,491,493,493
494,376,490,493,492
495,374,490,494,493
493,380,491,492,492
491,398,490,492,491
494,443,491,494,491
492,502,491,493,491
492,570,491,492,490
492,626,490,492,491
493,630,492,494,491
494,616,490,493,490
492,539,492,494,492
493,441,491,493,493
492,398,490,494,493
491,374,490,493,491
493,373,491,493,491
493,386,490,493,493
491,411,491,492,491
492,467,491,493,492
494,528,490,492,491
491,605,492,493,493
493,633,491,492,491
494,624,493,495,492
492,589,492,495,493
493,494,492,494,492
493,417,492,492,493
493,381,493,492,491
493,374,492,493,491
494,377,490,492,492
493,389,488,491,492
493,437,489,493,492
492,495,489,494,490
492,558,489,495,491
491,622,489,493,491
491,631,492,494,491
492,618,491,494,491
493,552,492,493,491
492,452,492,494,491
493,400,491,494,491
492,375,491,493,493
493,374,491,494,492
492,384,491,493,492
491,409,489,491,491
493,461,490,492,491
493,519,489,493,490
491,596,490,493,490
493,630,489,493,493
494,626,488,493,490
492,600,492,494,494
493,506,491,494,492
493,423,490,494,492
492,388,491,495,492
491,373,491,494,490
492,379,491,492,490
492,388,489,493,490
492,429,490,493,491
492,488,490,493,491
493,549,489,492,492
494,617,489,493,492
493,633,492,493,491
493,623,491,495,493
494,564,492,493,492
492,463,494,493,493
492,405,494,493,492
493,374,494,492,493
491,374,490,493,492
493,381,492,493,490
491,403,491,492,492
492,453,492,492,492
492,512,492,493,492
492,585,489,491,491
491,630,490,492,493
493,629,489,492,489
493,608,492,492,490
493,518,491,493,491
492,430,491,492,491
493,392,492,495,489
491,372,489,494,494
493,377,491,493,492
491,388,491,496,492
491,424,491,494,492
492,480,491,493,491
492,541,490,492,490
492,612,489,494,492
492,631,489,494,493
494,622,489,494,493
495,575,489,494,493
493,475,491,494,492
492,409,490,494,493
495,375,489,495,491
492,373,491,494,491
492,380,491,493,492
492,399,490,494,491
491,447,490,493,491
492,507,490,493,491
494,576,489,492,492
494,628,490,494,493
492,630,491,494,492
491,616,491,495,491
495,531,490,493,492
492,437,490,492,492
493,394,492,491,491
492,371,491,491,491
493,374,490,491,492
493,386,493,494,490
493,415,490,494,491
492,471,491,493,491
492,533,490,495,491
491,607,490,497,491
492,633,490,495,492
493,625,490,493,491
493,584,490,495,493
493,486,491,493,492
493,412,489,493,492
494,379,489,493,493
493,373,492,492,492
491,379,490,493,492
493,391,491,494,490
491,440,491,493,491
492,497,490,493,491
492,563,490,492,490
492,625,491,494,491
493,628,489,493,491
492,619,492,493,493
493,544,490,494,493
493,446,490,493,493
493,400,490,492,491
493,370,491,494,491
492,374,489,493,493
492,383,491,492,490
492,408,490,492,491
492,463,490,492,491
492,524,491,493,491
493,599,489,493,491
493,632,490,494,491
491,627,491,494,491
491,594,491,495,492
492,500,490,493,492
492,418,491,494,491
492,384,490,494,491
493,370,490,492,492
493,377,490,493,492
493,389,489,492,493
493,433,490,493,490
492,491,490,494,491
491,554,490,491,491
491,623,491,493,490
492,631,490,493,491
494,620,489,493,491
493,562,491,495,492
493,456,490,494,493
492,404,490,493,492
493,373,490,493,492
492,374,491,494,493
492,384,490,492,491
493,407,492,494,490
493,456,489,492,491
492,517,491,492,490
492,590,491,492,490
493,629,490,492,491
492,628,492,493,492
494,603,493,493,491
493,514,491,493,492
493,426,492,493,492
492,390,492,495,492
492,374,490,494,490
494,378,489,493,490
492,387,492,494,494
491,428,490,492,491
492,483,490,493,490
493,545,487,493,492
494,614,491,492,491
493,633,491,495,493
494,621,489,492,492
492,573,492,495,492
492,469,491,494,492
492,407,491,493,493
492,376,490,492,491
493,371,491,494,491
491,380,489,493,492
494,400,489,493,492
492,449,489,493,492
491,508,490,492,491
491,582,491,494,492
494,627,489,492,491
493,628,491,492,489
493,611,492,492,491
493,525,490,493,492
493,434,490,494,492
492,393,490,493,493
491,373,491,493,493
492,378,491,494,492
491,386,491,495,491
491,419,490,493,492
493,474,490,492,491
492,536,490,493,493
492,609,491,492,491
494,631,491,493,492
493,623,491,494,493
494,581,494,494,492
493,481,492,494,492
493,411,490,494,491
492,380,491,495,490
492,372,491,493,491
492,379,491,494,492
492,397,490,491,490
493,443,490,494,492
492,502,489,493,492
493,569,489,492,492
492,627,490,494,492
491,629,491,494,493
495,616,491,495,491
491,539,491,493,492
493,443,492,494,491
492,397,492,492,491
493,370,492,493,493
494,376,491,494,491
493,385,489,493,490
492,411,490,494,492
492,468,490,493,491
492,528,490,494,490
491,604,491,491,492
493,633,491,492,491
493,625,490,495,492
494,586,490,493,492
494,494,491,493,491
492,415,490,493,492
492,383,491,492,493
493,373,491,492,492
493,377,491,494,491
493,393,492,494,490
492,436,492,493,490
492,494,490,493,491
493,560,490,494,492
493,621,490,494,491
491,630,492,494,493
493,621,491,494,494
492,554,492,495,492
492,452,491,493,491
493,401,491,493,490
491,370,489,493,493
492,373,490,492,491
493,382,490,492,491
493,405,489,492,492
492,461,490,492,491
493,519,490,492,490
492,595,490,493,493
492,633,491,493,491
491,628,492,494,491
491,600,490,493,494
493,508,491,493,491
492,421,490,494,492
493,385,490,492,491
493,373,489,493,492
493,378,490,493,492
492,388,489,492,490
493,429,490,493,492
492,486,490,493,491
493,553,490,493,490
492,619,492,492,491
492,631,491,493,492
493,623,492,495,492
495,565,492,494,493
492,464,492,492,493
493,407,491,493,492
492,374,491,494,492
492,374,489,492,492
494,382,491,493,490
495,402,489,493,491
492,454,490,493,491
492,512,489,492,491
493,584,490,492,491
492,630,491,493,491
493,629,491,492,490
493,610,490,494,494
492,521,491,493,492
492,430,491,494,491
492,392,491,494,491
494,372,490,493,491
493,376,491,494,492
491,386,489,492,491
494,423,490,492,491
493,479,490,493,491
492,541,491,492,491
493,615,491,494,491
493,631,489,493,491
492,624,491,492,491
492,578,492,493,491
492,475,491,493,492
492,411,490,492,491
494,376,492,495,491
492,372,490,493,493
493,382,490,494,492
492,399,490,494,491
491,445,490,492,492
492,507,491,493,492
493,574,489,492,490
492,627,490,492,492
495,629,490,492,492
494,614,490,492,492
494,533,492,494,492
493,438,491,493,492
492,395,491,493,493
492,375,490,494,491
492,377,491,493,490
492,385,491,493,493
493,415,489,491,490
492,471,491,493,492
492,531,489,491,491
494,607,490,491,492
493,633,491,494,492
491,623,491,492,491
492,587,491,495,492
493,487,490,494,492
492,414,490,493,492
492,381,491,493,489
492,370,490,495,491
491,380,489,492,492
494,395,492,494,490
492,439,489,493,492
493,500,490,493,491
492,565,491,494,492
491,625,492,494,493
493,630,490,493,491
493,617,490,494,494
492,543,491,493,491
493,448,491,492,491
493,399,492,493,492
493,374,493,493,491
493,376,490,494,490
493,381,490,495,492
491,411,490,493,491
492,464,490,493,491
492,522,491,493,493
493,600,491,491,490
494,633,491,494,491
494,624,489,493,493
496,593,489,493,493
494,502,491,494,491
493,419,491,493,492
492,386,491,492,490
493,371,492,493,490
491,378,491,492,490
492,388,491,491,489
492,431,490,492,491
492,491,490,493,492
493,555,489,492,490
491,620,491,494,494
492,632,490,494,493
492,623,492,495,493
491,562,492,494,493
493,457,492,494,492
492,403,492,494,493
493,370,493,492,493
495,373,491,493,493
494,382,491,492,493
492,405,493,492,493
493,458,490,492,491
493,515,490,494,491
491,592,490,494,491
492,631,490,493,490
492,626,490,495,493
491,603,490,493,492
491,514,491,495,491
493,424,491,493,492
493,389,489,493,493
494,372,490,494,492
491,378,491,492,492
494,386,491,494,491
491,424,490,493,492
491,482,490,493,491
492,545,490,491,491
493,615,491,492,492
492,633,491,493,493
494,623,490,491,490
492,571,490,495,493
493,470,490,493,492
492,409,491,494,491
491,376,490,493,492
492,372,492,493,491
492,383,492,495,492
492,398,491,493,492
493,449,491,493,492
492,508,489,493,489
492,578,489,494,493
493,630,489,492,492
494,630,492,494,491
492,614,492,494,491
493,528,491,494,492
494,435,491,493,491
493,394,490,494,491
494,372,490,494,490
492,376,490,493,493
492,387,489,492,493
492,419,490,494,491
492,474,490,493,491
493,537,490,494,490
494,609,489,493,491
493,632,491,492,492
494,623,491,492,491
494,580,491,493,491
492,483,488,495,491
493,412,490,494,491
493,379,490,496,493
492,373,489,495,491
492,382,491,494,490
491,393,489,492,492
492,443,491,492,491
493,503,490,492,491
493,568,489,491,491
493,627,490,491,493
494,631,491,493,493
494,619,493,494,491
493,541,491,493,493
493,444,491,492,492
492,397,491,494,491
492,374,491,494,490
493,375,491,493,492
492,384,491,493,491
493,410,491,496,491
492,466,490,494,491
493,526,490,494,492
494,603,489,494,492
493,631,491,492,491
491,626,491,494,492
494,587,490,495,490
491,494,491,494,492
492,417,492,493,491
493,383,492,496,492
492,372,489,495,491
494,381,491,495,489
494,391,490,494,492
494,436,490,494,493
495,496,490,494,492
495,561,490,493,491
495,622,488,492,492
493,631,489,495,492
492,618,491,495,491
493,552,490,496,492
493,453,491,496,491
492,402,492,496,491
492,372,490,493,491
492,373,491,494,492
491,384,491,495,492
492,408,491,493,491
493,461,491,491,491
493,517,490,492,491
493,598,490,493,492
494,630,490,491,492
494,626,490,494,493
494,600,489,494,493
492,507,492,495,492
492,421,490,495,492
494,387,492,497,491
493,373,492,498,490
496,378,491,497,490
496,389,492,496,489
495,431,491,498,491
497,489,490,496,491
495,553,492,493,492
493,619,491,493,493
488,633,492,491,492
488,622,491,490,492
494,565,491,493,493
492,463,492,492,494
492,405,493,492,493
493,371,493,491,494
494,372,490,492,492
492,382,490,492,492
493,403,490,490,490
492,453,492,491,491
490,512,492,494,491
490,585,491,497,490
492,630,490,497,491
493,627,491,497,492
493,612,491,500,491
497,520,494,497,492
494,430,495,494,493
493,392,494,494,493
493,374,494,492,491
493,375,492,495,490
492,386,490,493,493
492,422,491,493,493
492,478,490,493,494
493,541,491,492,492
492,614,490,494,490
495,631,487,493,491
494,624,492,492,495
493,577,494,494,496
493,477,494,498,494
492,412,495,497,488
492,376,497,497,489
493,372,489,494,490
493,378,488,491,492
493,394,486,489,492
493,445,488,490,491
492,506,489,494,492
493,574,489,495,490
493,630,490,496,490
492,630,491,498,489
493,616,493,501,490
495,535,498,498,492
495,440,497,495,493
494,395,497,494,495
493,375,490,492,491
494,375,485,492,493
492,384,490,494,494
491,415,492,496,492
492,470,490,496,493
495,531,489,492,493
493,608,493,492,494
493,631,491,490,494
493,623,492,492,493
493,587,492,494,491
495,487,491,496,492
494,414,489,498,492
493,381,489,500,493
494,373,490,500,492
493,379,489,498,491
495,395,489,495,491
496,440,489,491,490
491,499,490,489,490
488,561,490,488,492
490,622,489,491,492
492,630,491,492,491
491,618,489,493,495
492,546,491,493,493
492,447,491,495,492
492,399,491,497,492
493,375,492,497,492
493,374,492,496,491
493,381,492,497,493
493,407,488,494,489
494,462,486,493,491
495,522,488,494,493
495,600,491,493,489
493,633,491,495,492
493,626,490,495,491
492,596,493,495,492
492,502,493,494,495
491,419,491,494,496
492,387,493,493,495
493,373,499,492,494
494,379,496,493,489
493,390,492,495,489
492,431,490,495,491
493,489,491,495,491
493,553,495,495,491
491,621,495,493,496
493,631,491,491,492
494,618,485,493,491
494,559,487,495,491
493,460,489,495,491
492,403,490,495,491
493,374,494,494,493
491,376,495,496,492
491,382,494,496,492
490,406,493,495,493
494,455,490,494,492
493,515,489,495,492
496,590,487,495,490
497,630,486,498,492
498,629,488,498,493
496,608,490,492,493
491,516,491,493,492
491,428,490,493,492
491,391,492,490,491
488,373,494,491,492
492,376,492,492,491
494,389,491,497,492
494,424,490,497,492
493,483,490,495,491
494,546,489,494,495
493,615,490,492,495
491,632,494,491,493
491,621,497,494,491
491,571,497,498,495
495,470,496,499,492
494,408,489,496,490
495,372,490,493,492
492,375,491,492,494
490,380,488,489,492
490,398,486,492,492
492,450,488,493,492
492,508,488,495,491
492,579,487,494,493
497,629,490,497,491
494,630,489,499,492
497,612,489,496,492
496,527,489,495,492
493,435,489,491,493
492,395,488,497,491
493,372,491,498,491
491,374,490,493,492
492,387,495,494,491
491,418,497,489,494
487,473,496,494,492
490,536,497,495,491
493,607,493,494,490
490,632,489,495,494
494,624,490,498,494
494,581,486,499,495
495,482,487,495,494
494,412,490,493,494
493,377,493,496,495
496,373,498,502,497
498,381,499,504,497
498,394,492,495,494
492,444,487,486,492
488,500,486,488,490
489,570,488,493,492
492,627,490,494,490
492,630,494,493,492
492,616,493,493,488
496,541,492,493,490
492,443,493,495,493
489,396,492,495,492
493,371,490,496,492
495,374,493,497,493
496,385,496,492,491
493,414,499,493,494
492,465,495,492,493
493,527,490,492,490
492,603,491,493,490
493,631,491,493,492
494,628,488,493,490
496,587,486,499,489
494,494,488,497,491
493,417,486,500,493
496,385,489,498,494
492,371,487,491,492
494,381,489,490,492
495,390,487,486,491
491,436,490,488,491
491,495,491,493,491
493,558,489,493,491
493,621,491,492,491
492,632,489,495,493
491,619,489,497,495
492,556,490,500,493
494,454,491,501,493
497,403,490,500,493
498,374,488,498,491
496,375,491,499,493
492,383,489,493,491
494,407,489,489,492
491,460,489,488,493
488,519,489,487,492
488,597,489,496,491
493,630,489,497,491
492,628,491,494,490
493,602,495,493,493
492,508,496,495,496
493,425,496,497,494
495,389,493,503,494
497,372,490,498,494
494,379,487,493,494
495,389,487,490,493
493,429,490,489,492
490,486,492,493,491
489,549,493,492,492
490,617,494,494,490
492,630,492,495,493
495,620,489,495,493
498,570,490,497,493
498,464,489,491,492
494,406,489,494,494
495,376,489,493,493
491,375,491,494,491
491,382,488,496,493
492,402,489,494,491
491,452,490,493,494
491,511,493,492,496
491,583,495,493,498
491,630,495,497,498
491,626,489,493,493
491,610,483,498,492
495,519,489,500,494
494,431,489,498,489
493,392,490,492,489
491,372,492,488,491
491,377,490,494,489
496,386,489,501,490
498,423,490,503,491
500,481,486,498,492
500,545,488,485,491
488,612,488,479,493
489,633,497,489,493
492,625,498,495,497
490,576,498,497,497
494,477,493,496,493
494,410,492,494,496
491,379,505,496,503
490,374,503,497,500
493,379,495,500,493
494,400,490,495,488
493,446,491,492,490
490,504,496,492,493
493,574,496,494,490
491,628,492,492,490
492,627,485,493,487
493,614,483,493,489
491,533,489,500,496
493,439,488,499,495
495,394,489,494,493
491,370,488,490,494
494,375,490,488,493
491,384,489,496,490
491,413,487,496,490
491,470,490,493,491
492,531,491,492,491
489,607,497,493,495
492,634,501,497,496
494,627,503,498,497
492,587,501,495,497
497,490,494,495,493
493,414,484,492,490
493,377,484,493,491
496,372,487,494,492
493,379,487,491,491
491,393,492,491,494
492,440,490,493,491
491,497,486,496,491
491,565,486,500,491
492,627,488,497,490
491,629,490,495,491
490,619,488,494,492
492,545,490,497,493
495,447,490,496,493
496,400,490,494,493
497,373,489,494,492
493,375,490,491,492
489,384,491,493,495
491,406,490,493,494
490,463,491,494,493
491,522,492,493,493
492,598,491,493,494
491,633,492,494,494
494,626,493,494,491
492,593,490,493,494
494,501,490,493,493
493,419,490,494,492
491,383,490,495,492
492,372,492,492,493
492,379,490,492,492
494,387,490,492,492
494,431,490,495,492
493,491,490,495,492
495,554,491,496,492
492,622,491,494,495
492,631,493,494,494
491,622,495,498,494
493,564,494,496,492
494,460,490,496,492
495,403,489,493,492
494,372,490,494,492
491,371,489,492,495
492,381,488,495,494
493,405,488,499,493
493,455,490,502,492
494,517,489,500,492
495,589,489,495,491
491,630,491,490,492
491,627,491,491,492
494,605,491,495,494
493,516,490,497,494
493,428,495,500,495
494,390,496,499,498
494,373,493,495,496
492,379,490,493,493
492,388,491,491,492
494,424,492,491,492
496,484,495,494,494
494,546,485,493,490
494,614,486,492,495
493,633,491,490,493
489,622,491,494,491
491,573,489,494,490
492,469,491,494,493
491,408,492,495,493
491,376,493,496,492
492,373,492,496,492
492,380,491,493,492
493,402,491,495,491
493,448,491,491,493
493,507,490,489,494
494,580,488,496,494
493,628,491,498,493
493,630,491,498,495
496,614,492,499,493
492,527,493,500,495
493,436,492,501,491
499,396,495,496,492
495,375,494,487,492
494,376,490,484,491
492,385,491,486,494
489,418,487,490,492
488,474,487,492,492
489,536,490,493,492
491,607,491,493,492
492,634,494,494,494
493,622,494,492,493
494,579,495,495,495
496,483,491,495,489
493,413,490,497,493
493,379,493,494,492
492,371,495,495,495
489,379,492,494,492
490,394,492,494,491
492,442,490,496,492
493,500,493,497,493
492,570,493,495,493
495,626,494,493,493
494,630,492,495,493
495,619,485,499,493
493,542,490,499,492
495,443,491,495,492
492,397,489,491,492
490,371,492,494,492
491,372,488,499,492
493,383,485,498,490
492,412,490,496,493
494,466,490,487,492
495,528,490,492,493
493,604,488,492,492
492,633,489,492,493
493,626,489,493,496
489,588,491,495,493
490,494,489,495,491
491,414,490,494,492
494,381,491,491,493
496,371,490,487,492
492,378,493,490,496
492,393,491,494,495
494,437,492,497,495
489,494,492,497,491
490,557,493,493,489
492,622,492,492,491
490,631,490,496,493
494,618,486,495,491
491,555,487,496,492
493,451,489,497,493
493,401,491,498,493
494,375,493,495,492
496,374,493,495,491
496,384,489,489,489
492,405,488,491,490
488,458,490,495,493
488,517,489,494,490
490,596,492,494,492
491,631,494,493,491
494,629,495,494,490
493,600,494,492,491
492,508,489,493,493
493,421,492,492,497
489,386,493,494,495
491,372,490,494,492
493,375,488,494,492
493,386,486,493,493
494,428,487,492,492
496,487,489,494,491
496,552,489,495,492
496,618,489,496,491
496,634,491,499,491
494,622,491,494,492
492,568,492,492,495
491,466,492,491,494
493,406,494,493,495
492,374,492,495,496
489,374,491,498,494
489,381,490,496,491
492,401,488,490,492
492,453,491,489,492
491,511,492,491,492
490,585,495,493,492
489,628,494,495,495
490,626,493,497,491
490,612,495,496,493
494,520,496,493,491
494,430,492,493,492
495,393,490,495,492
493,374,489,496,491
491,377,491,494,492
492,387,491,490,490
491,420,492,492,493
492,479,491,493,493
492,539,490,493,494
493,612,495,495,495
493,632,495,496,493
491,624,494,499,491
496,576,494,497,492
493,477,497,489,494
489,410,492,490,495
492,375,492,493,496
492,374,486,492,490
494,380,489,493,493
494,398,490,492,497
492,446,492,492,491
492,504,488,492,486
494,572,488,490,488
491,629,489,492,490
493,630,491,491,493
494,616,493,493,492
493,533,493,496,494
495,439,492,494,493
497,398,488,493,491
495,372,485,492,491
492,375,488,495,491
490,387,489,496,492
489,414,491,498,494
489,471,491,499,493
493,531,492,500,490
493,607,490,495,493
495,632,491,492,494
494,624,492,494,494
494,583,490,494,494
493,489,490,492,492
493,414,491,489,492
491,378,491,487,494
489,372,494,490,494
490,377,495,493,495
492,390,490,496,494
492,437,483,494,492
493,498,490,493,489
496,564,494,492,491
496,625,493,493,490
494,632,492,498,490
494,620,491,493,491
491,546,493,494,491
491,447,492,500,494
495,400,488,501,492
495,372,488,499,491
494,373,488,489,492
490,384,491,483,494
488,408,489,489,492
490,462,488,491,492
491,523,490,494,491
490,600,490,496,492
490,631,489,496,494
492,625,491,495,491
492,594,490,496,492
494,500,490,495,494
496,419,491,493,493
496,385,490,490,493
494,373,491,490,493
492,380,491,490,492
489,390,494,491,491
488,433,498,494,492
489,490,499,494,491
491,552,497,491,490
493,621,496,492,492
495,630,490,492,492
494,621,485,492,495
493,560,484,495,494
491,457,486,497,494
490,403,489,496,494
492,373,492,499,494
491,371,491,498,492
491,380,492,495,494
492,402,489,495,493
493,454,487,497,493
494,516,488,493,490
495,590,489,491,489
493,632,488,491,493
490,629,493,494,492
490,607,495,497,493
491,513,498,497,495
493,427,498,495,493
492,389,493,493,491
492,369,488,490,491
493,376,487,491,491
493,386,486,494,490
492,424,488,494,489
493,483,486,493,491
493,544,486,490,490
491,618,491,492,490
492,632,491,492,491
494,621,490,492,494
494,575,491,495,492
494,470,494,497,492
495,408,489,497,493
494,376,489,493,493
489,373,489,492,492
487,379,489,492,494
490,402,491,493,492
493,448,489,492,492
492,509,491,491,491
492,578,492,494,490
493,628,492,498,492
493,630,493,495,494
496,614,492,494,492
495,529,492,490,494
492,435,492,493,491
489,396,492,497,492
488,374,495,495,494
491,376,494,492,491
491,384,490,495,493
490,415,486,493,492
494,474,489,496,493
495,537,490,496,495
495,610,489,495,493
492,635,495,489,492
492,623,500,486,491
488,582,508,491,493
491,483,507,494,494
490,411,491,494,495
490,377,483,491,490
494,371,484,494,488
494,378,485,494,492
492,395,490,495,492
491,442,492,494,492
491,501,494,494,491
491,569,493,491,492
492,625,486,493,490
493,628,487,493,492
494,616,491,492,492
495,540,493,494,493
496,444,492,494,492
497,399,490,492,491
493,372,489,494,493
491,376,487,494,492
489,385,489,492,491
488,412,490,495,492
490,465,489,498,491
492,527,488,502,492
495,601,488,500,493
496,632,489,497,493
494,626,491,491,493
490,588,495,487,494
491,495,493,490,491
492,415,488,494,492
491,382,491,496,493
490,373,492,496,493
492,378,491,497,495
492,388,492,493,495
491,437,492,492,494
492,494,492,490,491
493,558,489,490,488
494,623,498,493,487
492,632,502,489,492
490,618,503,494,491
490,552,495,495,493
491,451,486,494,492
490,400,487,495,494
494,371,492,496,492
492,374,493,497,493
495,382,489,490,489
493,405,488,491,492
493,460,491,498,491
494,520,490,497,490
492,597,484,494,491
492,632,489,490,491
489,628,491,493,493
491,597,491,494,494
493,507,492,495,493
492,422,490,493,492
491,387,490,495,494
494,372,487,493,489
493,378,489,495,491
491,388,491,494,491
492,430,491,491,491
491,486,491,489,491
490,548,491,489,491
492,616,493,491,491
493,633,494,496,492
495,622,495,496,496
496,569,499,498,497
495,465,499,495,494
492,406,493,493,490
493,372,492,491,489
489,371,493,493,490
490,381,488,497,490
492,401,483,497,490
492,453,484,500,492
494,512,486,500,491
494,586,489,502,494
496,632,493,502,495
495,631,496,500,493
493,608,492,500,492
492,521,493,503,492
492,430,489,496,492
490,390,491,487,493
490,370,489,484,493
493,376,485,488,492
492,387,491,493,493
491,422,495,493,495
491,479,496,493,492
491,542,488,494,488
491,613,487,492,489
492,632,495,493,496
492,624,495,494,494
495,575,489,495,491
493,473,484,490,489
495,408,485,488,488
496,377,489,486,492
494,372,493,489,490
490,381,492,491,490
491,396,486,495,492
490,446,489,494,492
492,506,488,494,491
494,574,488,496,493
495,630,488,495,494
497,632,490,494,490
492,617,489,496,495
493,534,491,490,493
490,439,492,491,493
491,397,495,494,492
491,370,494,495,491
491,374,491,494,493
491,382,489,496,492
492,413,489,499,492
493,470,491,498,493
494,532,493,498,490
493,607,490,496,490
493,631,489,497,490
491,626,489,498,490
492,586,492,493,493
493,489,494,490,495
493,413,493,493,490
495,381,486,497,491
499,372,487,499,492
498,380,489,497,492
496,393,490,489,493
490,440,492,489,491
489,498,490,487,492
490,563,491,493,491
489,626,490,492,491
492,629,489,491,491
493,617,491,493,492
493,548,492,494,494
493,447,491,493,493
492,400,493,492,493
493,371,490,489,492
491,374,487,492,493
492,384,491,491,491
494,406,493,494,491
491,463,491,495,493
490,523,493,495,495
490,598,495,494,496
493,631,493,495,496
492,626,493,499,495
495,593,491,499,491
494,501,491,498,487
492,418,490,497,491
492,386,493,497,491
493,372,486,493,490
494,377,490,489,490
492,390,483,493,490
494,431,489,497,490
493,491,493,497,490
494,553,489,491,490
493,619,487,487,490
491,630,489,492,493
490,619,492,492,492
491,562,498,495,492
492,458,491,493,491
492,403,492,493,489
492,373,489,493,490
493,370,489,493,492
491,383,484,492,491
493,402,481,493,493
492,455,489,493,495
491,516,497,492,493
492,591,499,493,494
493,630,496,489,491
494,627,487,488,489
495,604,494,489,491
495,514,486,490,491
493,428,488,491,493
491,388,494,496,492
489,373,492,498,492
492,379,492,498,490
493,388,492,496,492
492,426,491,493,490
493,481,482,488,488
490,545,485,493,492
490,615,488,495,491
492,630,488,496,492
493,620,485,495,490
495,571,490,493,490
492,469,488,493,492
492,407,488,492,491
492,376,489,494,491
491,373,489,492,491
491,380,490,491,492
493,400,488,492,489
493,448,489,493,490
493,509,490,491,492
494,579,489,492,491
495,629,489,493,493
493,628,490,489,491
491,615,490,492,490
492,524,490,490,491
490,435,490,494,490
491,392,491,494,490
492,371,490,494,492
493,375,492,496,493
490,384,491,493,492
491,418,493,494,493
492,474,491,494,494
492,536,490,494,492
492,610,489,494,489
493,632,487,493,489
493,622,488,494,493
493,579,490,492,491
493,480,490,491,492
493,412,490,490,492
495,380,493,490,491
493,372,492,490,491
493,379,491,493,491
491,398,492,492,491
490,443,491,492,491
491,501,491,493,491
491,569,491,492,489
490,626,487,498,490
493,628,486,497,492
493,616,488,495,492
493,539,489,495,492
493,443,491,491,490
492,397,492,493,492
491,373,492,492,492
493,375,491,492,489
492,383,489,491,490
491,409,489,491,491
492,468,489,492,491
493,527,489,493,490
491,604,492,491,493
493,634,492,493,493
492,626,494,492,492
491,590,490,490,490
495,495,488,493,490
493,415,487,496,493
494,382,490,495,491
494,371,489,494,491
493,378,489,492,493
490,394,493,494,492
492,437,491,493,491
492,494,488,491,493
491,561,490,492,491
491,625,493,493,490
491,631,494,491,489
491,621,493,493,494
492,552,494,494,494
492,453,491,492,491
493,401,490,492,492
493,372,491,492,492
492,375,491,490,490
493,382,487,491,492
491,404,486,491,492
492,461,488,492,491
491,520,487,494,488
491,593,487,496,489
491,633,489,498,491
493,626,487,496,491
492,599,488,494,494
493,508,490,491,495
492,424,491,492,494
491,387,490,491,493
494,374,492,493,489
492,377,487,493,490
492,387,489,491,491
493,429,490,492,490
492,486,490,493,491
492,550,489,494,489
491,619,490,494,491
491,630,492,491,492
492,624,493,493,492
493,568,492,492,491
493,464,490,489,492
493,405,489,490,491
492,371,490,494,492
491,374,488,495,492
494,382,488,494,492
493,402,488,494,492
491,453,490,494,491
492,513,490,494,490
493,584,489,494,491
492,631,491,493,490
493,627,491,491,490
493,608,492,492,493
492,522,491,493,492
492,430,491,494,492
492,391,488,493,493
494,373,487,493,492
492,378,490,493,491
492,386,491,494,492
495,421,489,492,491
491,479,490,493,492
491,541,490,492,491
493,613,490,493,491
493,632,489,494,492
493,623,491,492,490
492,578,490,493,492
493,474,491,493,493
493,411,490,494,491
492,378,491,495,490
493,371,491,493,492
492,382,489,493,490
493,396,490,494,491
491,445,489,492,491
492,505,489,492,491
493,574,489,492,491
493,627,490,492,492
491,631,492,494,492
493,614,491,495,491
492,533,493,494,492
493,439,494,494,493
492,395,494,493,492
493,371,491,494,492
491,376,488,493,493
492,384,487,494,494
493,417,486,494,492
493,472,489,493,491
492,532,490,495,492
494,606,488,494,490
493,633,490,495,492
492,624,489,493,492
495,583,489,493,493
493,488,490,494,492
493,415,490,493,491
494,382,489,494,490
493,371,490,495,491
492,380,491,493,490
491,395,492,494,490
492,439,490,493,491
493,498,490,493,490
493,567,490,495,490
493,623,488,493,492
494,631,489,495,493
493,619,490,495,494
492,546,492,495,493
493,447,491,493,492
494,400,491,492,492
494,373,492,492,491
493,374,490,491,490
493,382,490,491,491
493,411,489,494,492
493,464,489,493,492
491,523,491,493,494
493,602,489,493,494
493,634,492,494,493
492,627,493,492,494
494,592,494,492,491
492,499,493,490,491
492,418,492,488,491
493,384,490,489,489
495,372,489,491,489
492,379,491,492,493
493,391,489,494,492
491,432,489,498,493
491,491,490,492,491
491,556,491,493,489
490,621,491,492,486
493,631,489,494,491
494,620,489,492,491
491,561,490,494,492
494,456,490,494,492
494,404,490,493,492
493,373,490,493,491
494,372,491,493,490
492,382,489,491,492
491,406,491,490,490
492,458,491,490,490
492,516,490,491,489
491,593,490,496,493
493,631,490,495,492
493,627,492,494,493
492,606,492,492,493
493,516,491,493,490
493,426,490,491,492
494,390,492,490,493
495,373,491,491,489
493,376,490,492,491
493,388,490,494,491
494,426,490,496,491
494,485,490,497,492
493,548,490,494,493
493,617,492,493,492
492,635,491,493,492
493,625,493,492,491
492,575,493,495,490
493,470,489,493,490
492,409,490,493,489
491,377,490,492,492
494,374,490,494,493
494,384,491,497,491
492,403,491,496,490
494,452,490,494,491
492,511,491,487,487
491,582,492,486,485
492,629,492,490,490
493,629,491,491,492
491,615,489,491,494
495,526,491,493,492
492,434,490,492,493
492,394,491,492,494
492,375,494,492,491
491,378,495,492,491
493,385,491,490,489
492,419,487,493,486
492,474,487,493,489
492,537,489,491,493
494,609,490,492,493
493,633,491,493,491
493,626,490,496,494
494,579,492,494,493
492,481,492,493,492
492,414,493,491,491
492,380,494,491,493
492,373,492,490,491
494,380,496,493,491
491,394,493,491,492
493,443,493,491,491
493,502,489,491,491
492,568,488,489,489
492,627,489,491,489
494,630,490,492,489
493,616,492,493,491
493,538,492,492,491
493,444,491,492,491
493,396,490,494,492
492,371,489,492,494
492,375,491,491,492
491,384,490,492,492
492,414,490,492,490
492,468,491,491,490
493,526,491,492,489
491,604,491,493,491
491,631,491,492,492
494,623,489,493,493
494,587,491,492,494
494,494,490,494,493
494,416,486,492,492
493,382,489,494,492
492,373,489,493,490
493,380,490,492,490
494,393,492,491,489
492,436,490,492,487
493,497,488,493,489
493,559,489,490,490
494,622,489,492,493
493,632,491,493,492
492,621,491,493,491
494,551,491,492,492
493,453,491,492,492
493,400,491,492,491
492,372,493,491,491
494,373,491,491,491
493,384,491,493,490
494,406,489,492,490
492,462,491,492,491
492,519,490,493,492
491,597,490,493,494
492,632,491,492,493
493,625,491,491,488
492,598,490,493,491
492,504,491,493,491
493,420,490,492,491
494,387,489,492,490
491,373,492,491,491
492,378,490,492,491
493,387,491,493,490
491,430,491,492,491
492,487,490,491,491
492,551,491,491,490
493,619,489,494,492
494,631,489,494,491
493,622,492,493,493
494,565,490,493,493
493,463,490,492,492
493,406,491,488,491
494,371,491,494,491
492,374,490,492,491
492,381,491,491,490
492,402,490,491,491
493,454,490,491,491
492,514,491,491,491
493,586,489,491,490
493,631,490,492,491
491,629,491,493,492
492,610,492,494,491
492,521,491,492,491
492,429,491,492,492
493,392,491,493,490
493,371,491,490,491
493,375,489,491,492
493,387,489,491,492
494,423,490,491,490
492,479,490,492,492
492,542,490,490,490
491,615,491,492,489
492,631,491,491,490
494,623,491,490,489
492,578,492,494,492
493,474,492,492,492
492,412,491,492,492
494,375,490,492,493
493,373,489,492,492
492,382,489,491,491
494,399,491,493,491
494,447,489,491,490
493,506,491,491,490
493,573,490,491,491
494,627,490,491,490
492,630,492,493,493
493,615,493,492,490
493,532,491,493,492
493,437,491,493,493
492,396,491,493,492
493,375,491,493,490
493,376,490,493,490
493,383,491,493,492
492,417,490,491,491
493,470,490,492,491
493,532,489,491,492
494,607,492,492,490
493,633,491,494,491
494,623,489,491,490
491,585,492,494,491
492,486,491,492,491
492,414,491,491,492
492,381,491,491,490
493,369,491,493,490
492,380,490,492,492
494,393,489,492,492
494,440,489,492,492
493,501,491,492,490
492,566,491,494,492
495,625,490,492,489
493,630,493,492,491
494,616,494,492,491
495,545,493,492,492
494,449,492,493,490
492,399,490,493,493
493,374,492,492,492
492,376,491,494,491
492,384,490,494,492
492,412,490,492,491
494,464,490,492,491
492,524,489,492,492
492,600,490,491,490
494,632,490,492,492
494,626,490,492,492
495,594,493,492,490
493,500,491,493,492
493,418,491,492,491
492,386,492,494,491
491,373,492,493,490
493,378,491,493,491
492,392,492,491,490
493,434,491,492,491
493,493,491,491,491
493,556,490,491,492
493,621,492,493,492
492,633,493,493,491
494,619,492,493,491
491,560,491,493,492
494,457,492,493,491
492,402,491,492,491
493,371,490,491,491
494,376,490,493,490
493,381,489,493,490
493,406,492,493,492
493,458,490,492,490
492,516,491,492,491
492,593,491,491,491
493,631,492,491,490
493,628,490,493,493
495,602,492,491,491
494,511,492,493,491
493,424,490,492,492
493,390,493,492,492
493,373,491,492,492
494,377,491,493,491
491,389,491,494,490
491,426,491,492,491
492,483,490,492,490
493,548,490,493,491
493,614,490,492,491
492,633,491,492,492
493,623,490,493,494
493,571,490,493,493
493,469,490,492,492
493,407,491,493,491
492,372,489,491,492
493,373,492,491,490
493,381,492,492,491
493,399,491,491,491
492,453,491,493,490
492,509,490,492,490
492,582,490,492,493
492,631,491,493,491
491,629,492,494,492
492,614,490,492,493
494,526,492,493,491
493,432,491,493,491
493,393,491,492,491
494,372,491,492,492
494,376,490,492,492
493,387,489,492,489
492,419,490,493,492
492,476,490,492,491
492,540,491,493,490
491,612,492,493,491
492,632,491,492,491
492,625,491,493,490
493,578,491,494,492
492,481,491,492,491
493,411,491,492,492
493,378,489,493,493
493,373,490,491,491
494,382,492,493,490
494,395,491,492,490
493,445,493,492,490
492,504,493,492,490
493,569,490,491,492
492,629,491,492,492
493,631,491,493,491
495,619,490,494,494
493,540,491,494,492
493,442,491,494,492
492,397,492,493,491
495,373,492,493,490
493,374,495,493,492
492,386,495,491,491
494,413,496,492,491
493,468,493,492,491
494,529,489,491,489
493,606,487,493,491
494,631,488,491,491
492,627,490,492,490
492,589,492,493,491
493,493,491,493,492
493,417,490,492,491
493,381,491,494,492
492,372,488,492,493
493,380,490,493,493
493,392,489,494,492
492,436,489,491,490
493,497,491,493,491
493,560,489,492,490
493,625,491,491,490
493,630,491,491,492
494,619,489,492,492
495,551,492,493,491
493,451,491,493,492
492,401,490,492,492
493,375,491,494,491
492,376,492,493,490
492,383,492,493,493
494,408,490,491,490
492,461,490,492,491
493,520,490,491,491
494,597,489,491,491
493,632,490,493,492
493,626,492,492,492
492,601,491,495,492
494,504,491,494,492
493,422,491,493,491
493,387,492,493,490
492,371,491,494,492
492,380,490,491,491
493,390,492,494,490
493,430,490,492,492
493,489,490,492,490
492,552,491,493,492
491,620,491,493,493
494,632,491,492,490
493,619,491,493,494
493,563,491,492,491
493,461,491,493,491
493,404,490,493,492
494,374,492,493,490
493,374,490,494,490
493,380,490,494,491
491,406,491,493,491
492,455,491,493,492
493,513,491,493,492
493,588,492,491,490
494,631,492,493,491
494,629,490,494,493
494,608,490,493,493
494,519,490,493,493
493,428,491,492,491
492,393,492,492,492
495,371,492,493,491
493,377,492,491,491
493,387,491,491,490
493,422,490,492,491
493,481,491,493,491
493,544,490,492,489
492,614,492,493,492
492,635,492,494,491
491,625,492,494,492
491,576,492,492,493
494,474,492,493,491
492,408,490,493,492
494,374,491,491,491
494,372,490,492,492
494,381,490,492,492
492,399,493,492,492
492,449,491,492,491
492,507,491,493,491
492,579,492,493,490
492,629,493,492,490
493,628,491,494,493
492,614,491,492,491
493,532,491,494,492
493,437,491,492,492
493,395,490,493,493
493,373,490,494,492
492,376,490,492,492
494,384,491,494,490
491,415,489,492,492
492,473,490,492,491
493,533,491,491,490
493,607,491,491,492
492,633,491,492,493
494,627,491,492,491
493,582,491,495,493
493,487,491,493,492
492,415,492,493,491
492,380,490,493,493
494,372,493,492,491
492,381,492,494,492
494,392,490,491,491
494,441,489,492,491
493,500,490,492,491
492,565,491,493,493
492,628,490,492,492
494,631,492,493,491
493,619,492,493,490
493,545,492,492,491
492,447,491,493,491
492,400,491,494,492
495,372,490,494,490
492,374,490,493,493
493,385,491,494,493
493,412,491,494,491
492,465,491,492,492
493,526,491,492,490
493,601,490,493,491
493,632,490,492,492
495,626,490,492,492
495,591,491,493,492
493,500,492,493,492
494,419,492,493,491
493,385,491,495,493
492,373,492,493,491
492,380,492,492,490
493,390,489,493,493
493,433,491,492,492
492,493,491,492,491
493,556,489,491,492
495,622,490,493,492
493,633,491,494,492
492,621,490,492,491
494,560,492,494,492
494,455,491,493,492
493,402,491,492,491
493,374,492,492,491
494,373,491,492,492
492,384,491,492,492
494,406,493,492,490
492,457,490,493,492
493,518,490,493,492
492,594,491,494,492
492,630,490,493,494
494,629,493,492,493
493,604,492,493,492
494,510,492,493,492
494,425,490,492,491
494,389,490,494,491
492,374,490,494,493
492,377,491,491,491
491,389,491,494,491
492,429,491,493,491
493,485,491,492,490
492,548,492,492,492
492,617,490,491,492
494,632,492,494,491
492,622,489,493,494
494,570,490,493,493
493,468,491,493,492
492,406,491,492,492
493,376,491,494,492
493,372,490,492,491
494,380,491,492,491
493,401,491,491,491
493,451,491,493,491
493,511,490,492,492
494,584,492,492,489
492,631,491,494,492
492,630,492,494,491
492,615,492,494,491
495,523,491,494,492
493,433,491,493,492
493,394,490,493,491
494,370,490,492,493
494,377,489,492,492
494,387,490,492,493
493,419,491,492,492
493,477,490,493,491
493,538,490,494,491
492,613,491,493,491
493,633,491,492,491
494,623,492,495,493
492,581,491,493,492
494,480,492,493,492
493,411,491,493,493
493,378,490,493,494
493,375,492,494,492
494,379,489,492,491
492,398,492,492,492
493,444,492,493,491
492,503,492,492,491
494,570,491,491,491
494,627,492,493,490
492,630,490,493,493
494,616,491,492,493
491,537,490,495,493
493,441,490,494,492
492,398,491,493,491
492,374,492,494,493
492,375,490,491,491
493,386,491,494,491
494,411,489,493,492
494,468,490,492,491
494,531,490,493,492
493,603,491,492,492
492,634,491,492,492
494,625,492,493,491
492,586,492,493,492
494,493,492,493,492
493,416,491,494,492
492,380,490,492,492
493,374,493,493,493
492,380,491,494,493
492,393,490,494,492
492,438,491,493,490
492,495,491,493,491
492,561,489,492,492
493,623,491,492,492
493,629,490,492,492
494,618,490,492,492
495,550,492,494,492
492,451,492,493,493
493,401,490,492,491
494,371,491,494,491
491,375,492,493,491
493,383,491,493,490
492,408,490,493,491
493,461,491,492,491
492,522,491,493,492
494,597,490,492,492
493,632,490,493,493
493,629,491,493,491
494,595,491,495,492
493,506,492,493,492
493,423,493,494,491
493,385,492,492,490
493,372,491,492,491
494,381,492,494,490
493,388,489,492,490
492,432,491,493,492
493,490,491,493,492
492,554,491,493,492
492,622,492,492,490
492,632,491,493,493
493,621,492,493,491
493,566,492,494,492
493,459,492,493,492
493,404,490,493,492
495,373,490,492,490
493,373,492,494,493
492,384,490,492,492
494,406,492,494,491
492,456,491,492,492
493,514,491,491,490
493,589,491,494,492
493,629,491,492,491
493,629,493,493,493
493,607,491,493,494
494,518,491,493,494
493,429,490,493,491
493,391,492,494,491
492,371,490,493,493
493,377,492,492,491
493,386,491,491,491
494,423,490,491,491
493,482,491,492,491
492,544,492,493,493
494,615,492,492,491
493,634,492,494,492
492,624,493,494,492
492,577,494,494,492
493,473,492,493,493
493,409,493,493,493
493,378,492,492,491
494,372,491,494,493
494,381,489,493,493
495,400,489,491,490
492,448,490,493,492
493,507,490,492,491
492,580,492,493,491
491,628,492,492,491
493,629,491,491,490
492,616,491,494,491
494,528,491,493,493
493,436,491,492,492
493,395,489,493,493
494,373,489,494,493
492,377,490,494,492
492,385,490,492,492
491,417,491,492,492
493,472,491,492,491
492,534,491,491,491
493,607,491,491,493
494,634,490,493,490
492,625,491,495,494
494,582,493,493,492
493,486,491,494,492
493,414,491,494,492
492,381,492,494,492
494,373,491,494,491
494,378,491,494,492
491,397,490,491,491
493,441,490,492,491
492,500,490,492,492
493,567,491,492,490
492,627,491,494,492
494,629,490,492,490
492,620,493,494,490
492,543,492,494,492
492,445,490,493,491
493,398,492,494,492
492,374,492,492,492
494,376,492,493,490
493,384,490,494,493
492,411,489,494,493
493,465,490,493,491
493,525,490,492,490
491,603,491,492,493
493,633,491,492,491
493,624,491,492,492
494,590,491,492,492
494,498,492,494,492
493,417,491,494,493
493,383,492,492,493
492,374,491,494,491
491,380,491,494,490
492,391,492,493,492
494,435,490,492,490
492,492,490,493,492
492,557,490,491,491
494,621,490,493,492
493,631,491,494,494
494,622,491,493,495
493,557,492,493,492
493,455,491,492,492
493,403,491,494,491
492,375,492,495,491
492,373,491,492,490
494,382,491,493,493
492,403,490,492,491
492,460,490,492,491
493,518,490,492,492
493,593,490,492,493
492,632,490,494,492
494,626,490,494,490
492,603,490,492,494
494,511,493,494,491
493,425,492,493,491
493,387,491,492,491
494,375,492,493,491
493,378,491,493,491
492,388,493,493,493
492,429,490,493,492
493,485,491,494,492
492,549,491,494,491
492,618,490,493,492
493,631,492,493,491
493,623,492,494,491
494,567,492,492,492
493,466,492,493,492
494,406,490,493,491
492,375,492,493,492
492,374,490,492,492
494,384,491,493,490
491,404,492,493,490
492,451,491,493,492
493,512,490,493,492
493,583,490,492,491
492,630,492,492,492
494,630,490,493,492
493,610,490,494,494
492,524,491,493,492
493,433,491,494,491
492,390,490,493,493
492,374,491,492,490
493,376,491,492,491
493,384,490,491,491
494,419,490,492,491
492,478,491,493,492
492,540,492,492,490
493,615,491,493,491
492,633,493,493,491
492,624,493,493,491
492,579,491,493,493
493,478,492,494,492
493,411,490,493,492
494,376,489,491,491
493,372,489,493,493
493,381,490,492,491
493,396,490,494,492
492,444,490,492,492
493,505,491,492,491
492,573,492,492,489
492,626,490,492,491
492,631,491,494,492
494,615,490,495,491
492,536,490,493,492
494,441,491,493,493
492,397,491,494,493
492,373,490,494,492
492,375,490,492,492
492,384,491,493,493
493,414,490,492,491
493,470,490,492,491
493,529,489,492,492
494,604,489,494,490
493,634,490,494,492
492,623,490,492,492
492,589,491,495,492
493,492,492,494,492
492,415,491,493,492
493,382,490,493,490
493,370,491,494,492
491,380,489,492,493
494,392,489,492,492
494,438,490,492,493
493,498,491,492,491
493,564,490,493,491
494,622,490,493,491
493,632,492,492,491
494,619,492,492,491
493,548,492,493,492
493,450,491,493,492
492,402,490,493,493
494,373,492,493,492
493,376,490,494,492
492,385,491,494,492
491,409,491,493,491
494,462,490,493,491
492,522,491,493,493
492,599,490,491,491
494,632,490,492,492
494,626,490,493,493
494,595,492,493,491
493,504,491,493,492
492,419,490,493,491
492,388,491,494,491
492,373,492,493,490
492,377,492,492,493
492,391,489,491,490
494,430,490,493,492
492,490,490,492,492
493,554,490,492,493
493,619,490,494,493
492,632,491,494,493
495,621,490,492,491
492,563,493,494,493
494,459,491,493,492
493,404,492,492,492
494,371,492,492,492
495,373,492,493,491
492,383,489,493,492
492,403,491,492,492
492,457,490,492,491
492,516,491,493,490
492,590,492,493,493
493,631,491,492,491
494,626,491,494,492
492,604,489,492,492
494,516,490,493,492
493,428,490,493,492
492,390,491,493,491
492,375,491,494,492
493,376,490,494,491
492,388,493,493,491
492,425,492,492,491
492,481,491,492,491
492,542,490,493,491
492,614,489,493,492
492,632,491,492,493
493,625,490,494,495
492,575,491,495,492
493,472,491,493,492
493,408,490,493,491
492,376,490,493,493
492,371,490,492,492
494,380,489,492,491
494,398,490,492,492
494,450,491,493,492
493,509,490,492,491
493,577,490,494,493
492,631,491,493,491
492,629,492,493,490
493,615,493,493,494
494,530,492,493,492
493,435,491,494,493
493,394,490,493,493
495,372,491,493,492
493,377,491,493,492
492,386,490,494,491
494,416,490,493,491
492,475,490,493,491
493,537,491,492,490
492,610,491,493,491
493,632,490,492,491
494,625,491,494,492
495,581,490,493,491
492,484,491,493,492
493,413,490,493,493
492,381,491,494,493
492,372,492,493,492
494,379,492,493,490
492,394,489,493,492
493,441,491,492,491
493,503,491,492,491
493,567,490,492,492
492,628,492,493,493
493,632,491,492,491
494,616,491,495,493
492,543,491,494,493
493,445,491,494,491
492,398,492,493,491
492,373,489,494,494
494,374,491,492,491
491,385,491,492,492
494,411,489,492,492
493,466,491,492,492
492,526,491,492,491
493,601,490,494,491
492,631,490,493,493
493,626,491,492,491
492,591,493,492,491
493,497,492,493,492
492,418,490,494,492
494,383,490,494,490
491,372,489,493,493
492,380,490,493,492
492,393,491,494,491
491,436,490,492,491
493,495,491,493,491
492,559,490,493,491
492,622,490,492,492
494,630,489,492,492
494,620,490,493,492
494,554,491,494,494
494,455,491,494,493
493,401,491,493,492
492,374,491,495,492
492,375,492,493,491
492,383,492,493,491
493,406,489,493,492
493,460,491,493,491
492,518,490,492,492
494,594,489,492,493
493,632,490,494,492
493,628,491,492,492
494,604,492,496,493
495,508,492,494,493
493,422,491,494,491
492,388,492,493,490
493,373,492,492,493
491,379,490,492,492
494,387,491,495,491
492,427,491,493,493
494,485,491,493,492
494,550,490,493,493
494,618,490,494,492
493,631,490,492,491
492,624,492,492,492
495,567,493,494,493
493,466,492,493,492
493,408,492,493,492
493,373,490,495,492
492,372,490,492,493
492,383,493,494,493
494,402,490,493,493
493,453,491,493,492
493,512,491,494,492
494,582,490,494,491
492,631,490,494,493
493,628,492,492,492
494,610,491,492,492
495,524,491,493,491
493,433,491,495,492
493,393,491,493,492
492,375,492,495,493
492,378,492,495,493
492,388,492,495,492
492,423,491,494,491
493,478,491,493,493
494,541,491,492,491
493,615,492,494,493
494,632,491,493,493
494,624,490,493,493
495,578,491,494,491
493,478,493,493,493
493,411,491,492,491
494,378,491,495,492
492,373,491,493,491
493,380,491,492,491
493,398,490,494,492
494,445,491,493,492
493,506,491,493,492
493,573,489,493,493
494,629,490,493,493
493,632,492,493,493
496,615,493,496,494
493,534,491,494,493
493,440,493,494,493
493,395,492,493,492
494,373,493,493,493
494,376,491,493,491
492,385,492,492,493
494,415,492,493,491
492,470,491,493,492
493,531,491,494,492
492,608,491,494,491
492,632,491,494,493
493,625,492,492,494
494,586,491,493,491
493,488,492,494,493
493,415,491,493,492
494,381,491,495,491
492,373,490,494,493
493,380,491,492,491
492,394,491,495,492
492,439,491,493,492
493,499,491,493,491
493,563,490,493,490
492,624,491,494,492
492,632,490,492,492
494,618,490,493,493
495,547,491,494,493
494,450,491,493,492
493,399,492,493,491
492,374,491,494,492
494,375,490,494,490
493,382,492,493,491
492,408,492,492,492
493,463,491,493,491
492,522,490,492,492
494,602,492,493,491
493,633,491,494,493
492,627,492,495,493
493,597,491,495,492
494,501,492,493,493
492,419,491,493,493
494,386,493,493,490
492,370,492,492,492
494,376,491,492,492
494,388,492,494,491
492,431,490,493,493
493,491,491,493,492
493,555,491,493,492
492,621,491,494,492
492,632,492,493,491
493,621,493,493,494
493,562,491,493,492
493,459,491,493,492
493,402,491,493,493
494,371,489,492,493
494,374,490,493,493
493,381,492,493,493
492,406,491,492,492
494,456,491,493,492
492,517,491,493,492
493,589,492,493,491
494,630,491,494,492
492,626,490,494,493
492,608,493,494,493
494,515,491,493,492
493,426,490,493,493
493,391,491,494,492
494,372,491,495,491
492,377,490,493,493
494,388,493,492,490
492,424,491,492,491
492,482,491,492,492
493,545,489,491,491
492,617,491,494,493
493,633,490,493,492
493,623,491,495,493
492,574,491,495,493
492,471,490,493,492
492,409,490,493,493
494,374,493,494,492
493,374,490,494,491
494,379,491,492,492
494,398,489,492,492
493,449,490,492,492
493,509,492,493,492
492,580,490,492,491
494,631,492,494,491
492,629,492,494,491
492,614,492,494,492
493,529,491,494,493
493,435,491,493,493
492,394,491,492,492
495,371,490,493,492
493,376,491,493,492
492,386,491,493,494
492,419,492,492,491
493,474,492,493,491
494,536,492,491,490
492,611,492,493,491
493,631,489,492,492
494,623,490,493,493
492,585,492,493,493
494,482,491,493,492
492,413,490,494,493
492,379,490,495,494
492,373,491,495,492
492,380,490,492,492
492,395,492,493,493
493,443,490,492,491
492,502,491,492,491
493,567,490,492,492
494,626,489,493,491
492,631,490,494,493
492,616,492,492,492
492,542,491,494,492
493,444,491,494,492
492,398,492,494,492
492,374,493,493,493
492,376,491,492,491
493,382,491,494,493
492,410,491,493,492
493,466,491,493,492
493,526,491,493,493
493,603,492,492,491
491,634,491,494,493
494,625,489,494,491
492,591,493,494,491
493,495,492,494,492
493,417,491,494,492
493,385,491,492,492
494,372,492,494,492
494,379,490,493,493
492,392,490,494,493
491,435,490,493,493
493,494,490,492,491
492,560,492,493,493
494,622,491,492,491
494,631,491,492,491
494,618,490,492,492
494,553,491,493,493
494,455,491,493,491
493,401,491,494,491
493,373,492,494,492
492,376,491,494,491
491,384,491,494,491
492,407,492,493,493
493,459,491,493,491
492,519,490,493,492
494,595,490,491,491
494,631,491,494,493
493,627,490,495,494
494,600,493,493,494
492,510,492,494,493
493,421,492,494,491
492,389,493,493,490
491,372,493,493,491
493,375,491,494,493
492,387,490,492,492
492,430,491,494,492
494,486,491,492,492
493,552,490,493,492
492,618,490,494,492
492,632,491,492,493
494,621,492,494,491
492,566,489,494,493
493,464,490,493,491
492,405,491,492,491
493,370,490,491,492
492,375,492,492,492
493,382,490,492,490
492,401,490,493,492
492,454,490,493,491
492,512,491,493,490
491,584,488,492,492
494,630,490,491,490
491,629,490,494,493
494,608,490,492,492
494,520,490,492,492
492,431,490,492,492
492,392,491,493,493
492,374,491,492,492
493,377,491,493,491
492,387,491,493,490
491,422,491,492,491
490,477,490,492,491
492,542,490,493,490
494,611,489,493,491
492,632,490,493,494
493,625,491,494,494
492,578,491,495,493
492,476,491,493,493
493,411,491,493,490
493,375,489,493,491
493,372,491,491,491
493,380,490,492,491
493,395,490,492,491
492,448,491,492,491
492,505,491,492,491
492,575,489,492,493
492,629,490,493,491
492,630,492,493,491
491,614,489,492,494
492,533,492,493,493
493,438,491,492,492
493,395,490,492,492
494,372,490,492,492
493,376,490,493,493
492,386,491,492,490
493,417,491,493,492
492,469,491,492,492
493,533,492,492,490
492,608,493,492,491
492,631,492,492,492
491,626,492,492,493
495,582,492,495,492
492,487,490,492,492
493,415,490,493,492
492,382,491,494,493
492,370,490,493,493
492,380,492,493,493
493,392,489,492,491
492,439,491,492,491
492,499,492,492,491
493,562,491,494,491
491,625,489,492,493
493,630,490,492,491
491,620,489,494,494
492,547,491,493,492
492,448,491,494,491
491,398,491,493,493
494,372,488,492,491
493,373,490,494,492
491,382,489,491,492
494,408,489,492,492
493,462,490,493,492
492,522,490,491,491
492,601,490,493,491
493,630,490,493,490
492,626,491,492,490
492,595,493,493,492
493,501,492,494,493
492,420,491,492,492
494,386,492,494,490
494,371,489,493,493
493,379,489,493,492
492,390,490,494,492
493,430,490,492,492
493,490,491,492,492
492,553,492,492,490
492,620,491,492,491
493,630,490,491,493
494,619,490,492,492
495,562,492,494,492
493,458,491,493,492
492,403,491,494,493
493,374,490,494,492
492,376,492,493,491
491,382,492,493,493
494,404,492,491,491
492,456,490,492,491
492,515,490,491,491
494,589,489,491,491
493,630,490,493,492
493,625,491,492,493
492,606,490,492,492
493,512,491,494,493
492,427,491,493,492
492,391,492,493,491
492,373,490,494,493
491,377,490,491,492
492,389,492,495,492
494,425,490,492,492
493,483,490,492,492
492,546,490,493,492
492,615,490,492,492
493,631,491,493,491
493,622,490,493,494
492,572,493,493,492
493,471,493,493,492
492,409,492,492,492
492,378,493,495,493
494,373,492,492,490
492,381,490,493,493
492,402,489,494,492
492,451,489,493,491
492,509,489,492,492
493,581,491,492,490
493,630,491,494,492
493,627,491,492,492
494,611,491,491,492
494,528,491,492,492
492,435,490,492,493
493,396,490,492,491
492,376,490,494,492
491,378,491,493,491
492,388,492,493,490
492,419,492,492,491
493,474,490,492,492
493,537,490,494,490
491,611,489,492,493
494,633,490,493,494
494,626,492,495,494
493,581,492,493,493
493,483,490,493,492
493,412,490,493,491
492,380,493,493,491
493,373,491,492,491
493,381,491,492,491
491,398,491,492,492
494,444,491,493,492
492,501,490,492,492
492,569,489,493,493
493,626,491,493,491
491,628,490,493,493
492,616,492,493,494
494,539,490,493,492
492,442,491,492,492
493,397,490,492,491
494,373,490,492,492
493,375,491,493,491
492,386,490,493,494
492,411,490,491,492
492,468,490,492,492
492,528,491,493,491
492,604,492,493,493
492,631,491,491,492
494,623,491,493,491
491,585,490,492,494
494,494,491,492,493
493,418,490,493,492
493,383,492,493,491
492,374,491,494,492
494,379,490,493,491
492,392,492,493,491
492,437,491,492,491
492,495,491,493,492
492,559,490,491,492
495,624,492,493,491
493,630,490,494,494
493,619,490,494,494
493,554,491,494,493
493,453,492,493,492
493,401,489,494,492
492,375,490,493,493
493,373,491,492,492
493,382,490,491,491
494,406,490,492,492
493,461,491,492,492
493,519,490,492,490
492,595,492,493,493
492,632,491,493,492
492,627,492,493,491
492,601,493,493,493
493,507,491,494,492
493,424,490,493,492
493,386,490,492,492
494,372,490,492,493
494,379,491,493,493
492,389,494,492,493
492,431,492,491,491
493,488,492,493,491
492,551,492,493,491
492,617,492,492,491
493,630,490,492,491
494,621,491,495,493
495,564,490,493,493
492,465,491,494,493
493,405,490,493,494
493,375,490,494,493
492,375,491,493,492
493,381,490,493,491
491,403,488,493,493
492,453,491,493,492
492,512,490,492,491
493,584,490,491,491
492,630,491,493,493
493,628,490,492,491
493,608,490,494,494
492,520,490,494,493
492,430,490,493,492
492,393,490,492,493
494,374,491,492,491
492,379,491,493,491
493,385,490,492,491
494,421,489,492,492
494,478,491,492,492
493,542,490,492,490
492,611,490,494,492
492,630,490,492,493
492,623,491,493,491
492,576,493,493,493
494,477,492,493,492
492,411,491,494,493
494,375,490,494,492
492,375,491,493,493
493,381,490,494,493
492,399,490,494,493
492,448,490,492,491
492,505,491,493,492
493,574,489,492,490
491,626,491,492,492
493,626,490,492,493
495,614,491,492,492
492,533,492,494,493
493,437,491,493,492
492,397,491,494,493
492,374,491,495,493
492,377,492,494,492
492,386,491,494,490
493,415,490,493,492
492,471,490,493,492
492,533,490,492,491
493,604,490,492,493
494,632,490,494,493
493,625,491,492,491
492,584,490,495,494
494,487,491,493,492
492,414,491,494,492
492,380,492,494,491
493,372,491,492,493
491,381,491,493,493
494,391,491,494,490
492,440,491,493,492
492,499,490,493,492
492,563,490,493,493
493,623,491,492,492
491,630,492,494,494
494,618,491,493,491
493,544,493,494,493
492,447,491,493,492
493,399,491,492,492
494,373,491,494,491
492,375,490,493,494
493,384,491,491,493
491,411,490,494,492
492,464,490,492,492
492,524,490,492,492
494,599,490,493,491
493,630,491,494,492
492,624,490,492,492
494,590,491,493,493
494,500,491,493,492
493,421,491,493,491
492,386,490,493,491
493,373,490,494,491
491,380,492,494,491
491,390,492,493,491
492,433,491,492,492
493,492,490,493,492
493,556,490,494,492
494,619,490,493,492
493,630,490,493,494
492,620,491,494,495
494,560,492,494,493
493,457,491,494,493
492,404,490,493,493
494,374,493,494,492
492,372,491,492,492
493,381,490,492,491
493,408,491,494,490
493,456,490,493,491
492,517,491,492,493
493,591,490,494,493
491,630,491,493,492
492,627,492,492,492
493,602,493,494,491
492,511,490,492,493
493,425,491,493,491
492,388,491,492,492
493,372,489,492,493
492,380,492,493,492
492,387,490,492,491
493,426,491,493,492
492,483,491,493,492
492,546,491,494,491
491,615,492,492,491
493,632,491,494,493
493,619,491,492,494
492,573,491,493,493
493,467,491,494,492
493,407,490,493,494
493,375,490,492,491
493,372,492,494,492
491,381,490,492,492
491,403,493,493,490
491,450,491,493,492
493,509,491,492,491
492,582,491,494,491
493,626,490,493,491
492,628,490,494,494
493,611,491,494,494
492,525,491,494,493
493,433,491,492,492
493,394,492,494,491
494,371,490,493,492
494,377,492,492,491
493,385,491,492,491
493,418,490,492,492
493,476,490,492,491
492,539,490,493,493
493,610,492,492,492
492,634,493,494,491
491,623,493,494,492
491,582,492,494,492
493,481,491,493,492
492,411,491,494,493
492,381,491,492,491
493,372,491,493,493
493,380,491,493,493
493,396,492,492,490
492,444,490,493,492
492,503,490,492,492
492,572,492,493,491
492,625,492,493,491
493,628,492,492,493
492,617,491,492,492
494,536,493,494,493
493,442,491,493,492
494,397,491,494,494
493,373,491,494,494
492,376,491,494,492
493,384,491,492,491
491,413,493,492,493
493,467,491,492,491
492,527,490,492,491
493,601,490,492,493
494,631,491,493,491
492,625,489,494,494
492,587,492,492,494
493,494,491,494,493
492,417,491,494,492
491,383,492,494,493
495,372,490,492,491
493,377,490,494,493
492,389,490,491,492
493,436,490,492,491
492,495,490,492,493
493,560,491,492,491
493,623,491,494,492
493,628,490,494,492
492,620,492,495,491
491,551,493,494,492
492,451,491,494,492
493,400,491,494,493
492,370,491,493,492
491,374,491,494,493
493,383,490,493,494
492,407,491,494,493
492,460,490,493,492
492,519,491,494,491
491,597,490,493,494
494,632,492,492,491
494,625,492,492,493
493,596,491,493,493
494,507,492,494,493
494,421,491,493,492
492,387,492,493,494
494,374,491,494,492
492,379,492,494,492
491,389,492,492,493
494,429,492,493,491
492,487,489,493,492
493,550,490,491,491
494,617,491,492,492
493,630,491,493,494
493,621,492,492,491
492,565,494,494,493
493,462,493,494,493
493,406,492,494,491
491,375,492,495,491
492,372,491,493,492
493,383,488,494,493
493,401,489,492,492
492,454,490,492,492
493,513,490,492,492
493,586,489,493,493
492,630,489,492,492
494,627,492,494,491
492,606,490,493,494
492,519,491,494,492
493,430,492,493,492
493,391,491,493,492
492,375,491,495,493
494,377,490,493,491
492,387,489,493,494
493,425,490,493,492
492,480,491,493,493
492,543,491,494,492
492,612,489,493,493
492,632,492,493,493
492,624,491,492,491
494,574,491,493,492
493,474,492,494,493
493,409,491,492,491
492,378,491,493,493
492,371,491,492,492
492,383,492,494,492
491,401,494,494,491
492,447,492,494,491
493,506,489,493,491
492,575,491,494,492
492,628,490,492,493
493,630,492,494,494
494,615,491,494,494
493,532,491,493,493
493,439,491,494,493
493,394,490,493,492
492,375,493,494,491
493,376,494,493,491
493,384,494,492,491
493,414,492,493,492
492,473,492,493,491
493,533,491,493,492
494,608,487,493,493
493,634,489,494,493
491,625,491,494,492
494,582,490,492,493
493,487,492,494,493
493,413,492,493,492
493,379,492,492,490
493,371,488,492,492
493,378,490,494,491
492,393,488,493,493
492,440,490,493,493
493,501,490,493,492
492,567,491,494,491
491,626,492,494,493
493,630,490,492,490
493,617,490,494,494
492,541,491,493,492
493,446,490,493,492
493,399,489,493,493
494,371,489,493,494
493,374,491,492,493
492,385,491,493,492
494,408,491,493,491
492,465,491,493,491
492,524,491,493,491
492,599,489,494,493
492,631,490,492,492
491,626,492,494,494
495,591,490,493,494
493,500,491,493,492
492,418,491,494,492
493,384,490,496,493
492,374,490,493,493
493,379,492,493,492
492,390,492,492,491
492,433,491,493,491
492,492,490,494,492
493,556,489,492,490
491,622,491,494,493
492,633,490,494,493
492,622,491,495,493
491,560,492,495,492
492,457,491,493,492
494,403,491,493,491
492,372,489,494,492
494,372,490,493,492
494,381,490,493,492
494,404,489,493,491
492,458,491,493,492
493,518,491,492,491
493,594,490,494,492
492,632,491,493,491
492,628,492,494,491
493,603,490,494,494
494,512,492,495,494
493,425,491,494,493
494,388,490,493,493
495,374,490,494,493
493,379,490,493,492
493,386,490,494,492
492,427,490,492,491
491,484,490,493,492
493,549,491,493,491
492,618,492,492,491
493,632,490,493,493
491,624,492,492,492
495,570,493,494,492
492,466,492,493,493
493,408,492,493,493
492,375,492,494,492
491,371,490,493,493
492,382,492,492,492
494,400,488,493,491
493,451,490,493,492
493,510,490,492,491
493,580,490,494,492
491,630,490,493,492
493,629,492,492,491
491,613,491,495,494
492,526,492,494,493
492,434,491,494,492
493,392,489,493,491
492,374,491,493,492
491,377,491,492,492
494,384,490,492,492
495,419,490,492,492
493,476,490,493,492
493,538,490,492,491
493,613,489,494,492
493,631,489,494,491
493,625,492,492,491
492,582,492,494,492
493,480,492,494,493
493,412,490,493,492
494,380,492,495,492
494,371,490,493,493
494,381,490,494,492
492,397,490,494,492
492,442,490,492,492
493,504,490,492,492
493,570,491,493,491
492,626,491,492,491
494,629,491,492,492
494,615,491,495,493
492,535,490,493,492
492,442,491,493,492
492,396,490,494,494
493,373,490,494,493
492,376,492,494,491
491,384,492,492,493
494,411,492,492,491
492,468,491,493,492
492,528,490,492,492
494,603,490,491,492
494,633,490,493,493
493,625,492,493,494
494,589,490,492,491
493,491,491,494,492
493,416,491,493,492
493,384,492,494,491
492,372,490,494,493
492,378,491,491,492
492,394,491,495,492
493,436,490,492,492
493,497,490,492,492
493,562,489,493,490
492,623,491,494,493
492,632,490,492,492
494,620,492,495,491
492,551,492,493,493
493,452,491,493,491
492,401,491,492,491
491,374,490,494,492
494,374,489,493,490
492,383,490,493,493
493,409,489,493,492
493,462,490,492,492
492,521,490,492,492
493,600,491,494,491
493,633,491,494,492
494,625,491,493,493
495,597,492,492,492
494,506,493,493,492
492,422,493,493,493
493,389,495,492,491
493,373,493,495,492
491,379,490,494,491
492,390,489,494,491
491,430,489,493,492
492,487,490,493,492
492,554,490,491,490
493,618,489,493,493
494,632,490,493,494
493,623,490,493,493
493,565,492,493,492
493,461,491,493,493
493,405,489,493,491
491,374,490,495,492
493,373,490,492,491
493,382,490,492,492
492,404,490,492,492
494,455,490,493,491
493,513,490,493,493
493,588,489,492,493
492,632,490,494,492
492,625,490,492,493
492,609,492,494,493
494,517,490,494,492
492,428,491,493,492
492,390,490,492,492
494,372,490,495,491
491,377,489,493,493
493,387,492,492,490
492,424,490,494,492
492,480,489,493,493
492,545,490,494,491
491,616,491,493,493
492,632,490,492,491
494,622,492,494,494
492,572,492,493,493
493,472,492,493,492
494,410,492,493,493
494,376,494,494,491
493,373,491,494,492
494,380,490,494,492
491,401,491,494,492
493,448,489,493,492
493,508,490,493,492
492,577,490,492,491
494,630,490,493,492
493,629,489,493,494
493,614,489,493,494
494,531,490,493,493
492,436,490,493,493
492,395,491,492,492
494,371,492,493,491
492,374,492,492,491
493,383,491,492,491
493,416,491,492,491
493,472,491,493,492
493,534,490,492,491
492,610,494,493,492
492,633,491,494,492
492,626,492,494,492
492,585,493,492,493
493,484,491,493,492
492,413,489,493,493
493,377,491,492,492
494,370,489,493,493
494,379,489,493,493
492,395,492,493,493
492,441,489,493,491
493,501,490,493,491
492,567,491,494,492
492,627,491,493,491
493,630,491,494,493
492,616,491,492,492
492,544,491,493,492
493,445,491,492,492
493,397,490,493,493
494,372,490,493,494
492,376,492,491,492
493,381,493,494,492
491,410,491,492,492
492,466,493,493,492
492,524,492,491,491
493,601,490,491,491
491,633,489,493,493
494,626,488,492,491
492,593,489,494,493
493,497,491,494,493
493,419,490,494,492
493,386,490,492,492
494,371,492,492,491
492,380,490,493,491
493,388,491,492,491
493,433,490,492,492
493,493,489,492,491
492,557,491,493,493
493,623,490,492,492
494,633,491,494,491
492,621,493,496,492
492,558,491,494,492
493,456,491,493,491
493,403,491,494,492
494,371,491,495,492
492,374,491,494,492
493,382,490,493,494
493,406,489,493,493
493,459,490,493,491
493,518,490,494,492
494,593,489,492,491
493,631,491,493,491
493,625,491,492,492
494,601,491,492,492
492,512,492,493,492
492,423,492,493,491
492,390,491,494,494
492,373,491,495,492
491,378,492,494,492
492,387,490,492,492
492,427,491,493,492
493,486,491,492,491
492,548,491,492,491
493,615,491,493,493
493,632,490,493,493
494,623,492,494,491
492,570,490,495,494
493,466,491,494,492
492,407,491,494,492
491,374,492,495,492
493,373,491,492,493
493,382,490,492,492
493,400,490,494,491
492,451,490,492,491
492,510,490,493,493
493,583,489,493,493
493,629,491,492,492
491,629,491,495,493
494,610,489,494,491
492,523,492,494,492
492,432,491,493,492
492,392,490,494,493
491,375,490,493,493
493,376,491,493,491
493,387,490,492,493
492,421,490,494,493
492,476,490,492,493
492,540,491,493,492
494,610,489,493,491
492,632,491,494,494
492,623,491,493,492
494,577,491,493,493
494,479,492,493,493
494,413,492,493,491
493,377,490,494,491
493,371,491,495,492
491,382,493,494,491
491,398,494,494,491
492,445,490,492,492
492,503,491,492,491
492,573,490,493,493
494,627,490,492,492
493,629,490,493,493
493,616,490,493,495
493,535,492,493,493
493,439,491,493,492
493,395,490,495,491
492,374,492,494,491
492,373,491,493,492
493,383,490,492,491
493,415,491,494,492
492,467,490,493,492
492,531,491,492,492
493,606,490,493,492
491,633,491,494,492
492,625,492,492,492
495,585,492,494,492
492,489,490,493,493
493,415,492,493,492
493,379,491,492,491
493,370,490,493,494
492,380,493,493,493
493,391,490,493,491
493,437,490,493,492
492,498,491,494,492
491,563,491,494,492
492,625,489,493,493
492,630,491,493,492
492,620,491,495,492
495,547,491,493,493
493,449,491,493,492
493,399,491,494,494
494,372,490,493,491
493,373,491,495,493
491,381,489,492,492
491,411,492,493,491
492,462,491,493,492
492,522,491,492,491
492,600,490,494,491
493,630,490,493,492
492,627,489,493,493
494,596,490,494,494
493,503,490,493,492
493,420,490,493,492
494,386,491,495,492
494,371,489,493,491
493,378,491,492,491
492,387,491,492,491
493,430,490,492,492
493,491,490,492,492
492,554,491,493,491
492,622,490,494,493
492,633,491,494,492
492,622,492,495,493
492,564,492,494,493
494,460,491,494,492
492,403,491,494,493
492,374,491,492,492
494,373,490,493,492
493,381,489,494,493
494,404,491,492,491
492,456,490,493,491
493,514,490,492,491
492,592,492,493,491
493,631,492,492,492
493,627,491,492,493
491,609,491,492,492
494,515,491,494,493
492,427,490,492,492
493,391,491,493,493
493,373,491,494,492
491,375,490,492,492
491,388,492,493,493
493,424,490,492,492
492,483,491,492,491
493,544,491,492,491
493,613,492,492,493
493,633,493,492,491
492,625,491,494,494
493,573,490,493,493
493,472,490,494,492
493,410,490,494,492
492,375,491,494,493
493,373,490,492,491
492,379,490,494,492
491,398,489,492,492
494,449,490,492,491
492,507,489,493,492
492,577,490,491,491
492,631,491,494,493
493,628,489,493,492
493,615,493,493,491
492,529,492,494,492
492,434,491,493,493
492,396,491,492,492
494,374,492,494,491
494,376,491,493,493
492,386,490,494,493
492,417,490,494,492
492,472,490,493,492
493,535,489,493,490
491,609,489,493,493
492,632,490,492,491
494,624,490,492,492
494,580,490,493,493
493,485,491,493,492
493,413,490,493,492
493,377,491,494,493
492,374,491,493,490
491,380,491,493,491
492,394,492,494,493
493,442,491,492,491
492,500,490,493,492
493,567,489,492,492
494,627,490,492,493
492,631,491,494,494
494,616,492,492,493
492,543,492,493,492
493,443,491,494,492
493,398,491,493,491
492,373,493,493,492
494,373,491,492,492
493,384,491,494,491
494,410,489,493,491
492,466,490,492,492
493,527,490,493,493
491,604,490,494,492
491,633,491,493,493
494,626,492,492,491
492,589,490,494,493
493,495,492,493,493
493,417,491,492,492
493,382,490,492,492
491,372,492,492,493
492,380,491,492,491
492,387,490,494,492
492,436,490,493,493
492,494,490,493,491
492,557,489,493,494
493,623,490,492,492
492,631,492,495,494
495,620,490,493,494
495,556,490,493,493
493,453,491,493,493
492,402,491,493,492
494,371,492,495,492
492,372,490,493,493
492,382,492,492,490
492,406,491,492,491
492,459,490,493,492
492,519,490,493,491
494,595,489,493,491
492,632,490,494,493
492,629,491,494,492
491,603,491,495,493
492,509,491,493,492
493,423,491,494,491
492,387,489,494,491
492,370,490,492,492
