Sensor0,Sensor1,Sensor2,Sensor3,Sensor4

494,496,498,496,226
495,496,496,498,844
496,496,8,498,496
208,495,496,497,491
748,496,496,497,494
494,494,496,498,496
226,495,496,496,498
844,496,496,499,493
306,496,498,501,496
341,496,498,502,495
803,495,496,496,494
220,497,497,489,491
599,500,497,498,491
586,499,497,501,501
197,496,497,510,497
845,486,498,499,490
383,510,495,496,505
286,509,497,489,511
825,506,493,488,504
226,488,495,496,490
451,497,496,497,490
701,496,497,484,496
205,516,499,487,502
767,494,494,511,499
467,513,494,501,491
232,475,497,497,499
841,491,494,461,490
283,496,496,491,496
359,493,497,484,501
784,498,495,500,495
214,492,496,492,494
632,499,495,492,493
560,493,496,492,493
212,494,497,495,495
841,492,497,492,491
364,493,497,493,493
302,494,497,492,494
829,495,496,489,487
224,493,497,498,482
483,495,498,501,487
664,495,496,498,493
199,495,496,492,491
790,494,498,497,490
447,494,498,500,489
236,495,497,498,486
838,495,497,495,498
269,494,498,497,492
372,496,498,496,495
755,498,498,492,491
209,496,497,495,493
687,494,497,494,494
519,498,497,495,500
205,495,496,497,495
838,496,496,498,496
330,497,498,496,497
310,496,498,495,494
820,496,496,498,494
222,497,497,494,494
541,494,496,497,493
627,497,498,495,493
206,495,496,496,496
846,497,497,496,498
411,497,497,500,497
262,495,498,495,496
847,495,495,494,493
252,496,496,496,494
414,494,497,496,495
738,496,497,500,496
213,495,497,497,495
737,494,497,495,493
495,493,499,496,494
220,495,498,491,489
842,497,496,496,495
305,494,497,498,497
346,492,498,493,493
798,495,496,497,494
222,496,496,497,495
586,494,497,497,495
585,496,497,497,496
197,495,495,499,493
847,496,497,500,495
379,494,497,498,492
284,496,498,500,493
831,495,495,499,495
226,496,497,498,496
451,495,497,496,496
685,493,496,498,496
201,495,497,508,492
775,494,498,502,491
458,496,493,497,501
221,490,498,502,493
838,494,495,505,488
277,494,497,495,489
367,494,495,495,493
765,500,495,497,496
208,491,497,493,505
637,497,496,470,496
540,491,496,495,494
206,491,498,468,494
842,501,494,489,494
360,489,497,497,497
306,496,496,488,501
829,493,496,503,499
227,491,494,491,508
493,501,495,495,492
664,501,496,541,494
209,492,494,488,499
803,493,494,489,494
447,494,496,495,494
241,490,497,494,501
840,494,496,496,498
265,494,496,493,495
377,493,496,492,494
762,495,497,492,498
219,496,496,490,497
686,496,496,496,495
524,495,496,495,491
213,495,497,490,490
848,496,496,490,498
341,497,496,492,490
316,494,496,496,485
829,495,498,498,491
216,495,498,496,493
528,497,498,497,493
631,496,498,494,492
202,495,497,498,492
829,498,496,496,492
423,495,497,496,494
249,497,497,494,495
846,496,498,497,497
263,496,498,497,494
386,497,499,496,494
753,496,497,493,497
214,496,498,495,490
707,495,498,496,492
511,495,499,499,496
211,495,498,498,496
841,497,497,495,496
330,496,497,496,496
330,497,498,496,492
811,496,496,497,496
220,496,497,498,493
557,497,496,499,489
614,497,497,496,494
206,495,496,499,493
829,497,496,497,496
411,494,496,499,498
266,496,496,498,493
838,495,497,495,496
252,496,496,498,492
417,494,497,497,494
734,496,497,498,495
211,495,497,495,496
743,495,496,496,493
492,494,498,497,494
215,494,496,498,502
847,496,496,496,500
298,496,496,495,495
336,494,496,498,497
805,496,496,498,493
209,496,498,496,494
588,495,497,493,494
589,495,497,496,495
193,495,497,497,493
837,496,496,497,492
380,495,498,497,496
274,495,496,498,494
832,496,495,497,496
232,497,497,505,494
441,497,498,500,496
717,499,497,489,507
208,503,496,492,494
762,494,497,500,496
479,498,495,489,502
220,499,495,500,490
845,487,493,523,496
289,490,496,553,490
350,493,495,468,494
794,490,497,513,494
209,494,496,488,494
625,490,496,490,496
575,499,496,515,490
203,491,496,522,502
844,495,495,492,497
369,494,495,498,500
286,490,496,489,496
828,493,497,493,499
231,492,496,496,496
467,497,497,485,497
688,494,495,490,495
205,495,495,491,491
784,492,495,501,493
461,496,496,494,495
234,492,496,494,495
845,496,496,492,496
280,495,496,494,493
363,497,496,495,493
786,495,496,495,496
218,496,496,496,493
645,493,497,497,492
547,497,495,496,488
194,495,498,495,487
842,495,495,497,482
347,495,497,494,493
289,494,495,494,487
819,496,496,497,492
213,495,496,497,486
483,496,497,497,491
657,497,496,497,486
202,497,499,497,495
803,497,498,498,490
448,497,495,493,491
238,496,498,497,493
845,496,496,497,491
264,495,496,497,492
372,497,497,496,492
769,497,497,496,489
213,496,498,496,492
677,496,497,497,494
537,497,497,495,494
210,496,497,495,492
843,497,497,497,492
349,496,497,497,498
312,497,498,496,496
827,497,495,497,493
225,498,497,496,492
524,495,496,501,494
640,498,496,495,496
209,496,499,495,495
814,495,497,498,495
425,496,495,500,493
253,495,498,499,493
841,497,498,499,494
258,496,497,495,494
388,496,497,497,495
752,496,498,497,502
213,497,496,496,496
707,497,496,500,491
515,498,497,497,497
218,496,496,496,497
848,496,497,498,493
328,496,497,498,494
326,495,496,497,494
817,496,495,497,496
218,496,496,500,494
547,496,498,496,494
625,497,496,497,492
205,495,497,498,495
837,495,496,496,487
406,496,497,496,495
264,495,495,495,494
835,497,496,498,496
248,496,496,496,495
422,495,498,499,493
726,497,497,496,496
209,495,495,498,492
747,497,495,498,495
489,495,496,494,492
219,496,495,497,494
841,497,496,492,495
308,497,497,493,486
344,496,498,489,497
806,497,498,489,494
214,494,497,543,491
596,488,496,520,500
581,499,496,514,489
195,493,494,516,495
841,500,496,504,482
373,504,496,472,501
277,503,488,480,481
830,494,493,481,495
225,496,498,500,496
442,489,493,490,487
702,491,495,481,502
199,494,495,474,494
765,491,495,495,501
467,493,496,503,494
220,500,494,492,496
841,494,495,523,482
280,494,496,493,498
354,493,497,493,510
785,492,497,485,492
218,494,497,498,494
640,490,498,494,489
553,493,496,481,495
203,494,497,497,490
849,492,496,496,493
362,491,496,493,495
294,494,497,480,493
827,493,498,495,494
219,493,497,495,497
471,494,496,496,495
678,495,498,495,496
202,493,498,494,492
791,493,497,492,496
452,493,496,496,493
228,494,498,495,493
846,494,496,495,491
265,495,497,495,495
364,493,498,499,488
776,495,498,498,492
206,494,497,495,492
674,495,496,500,490
533,497,495,506,488
202,496,498,505,490
848,495,497,500,493
341,495,498,498,490
304,496,496,495,490
830,495,497,494,492
212,496,498,497,490
506,495,498,498,489
645,497,497,499,496
201,496,499,497,499
817,496,498,495,494
427,497,497,496,494
246,496,498,498,491
845,496,498,497,494
263,497,498,494,490
394,496,498,498,493
755,496,497,498,494
210,496,498,498,493
727,496,496,497,490
510,497,497,496,492
217,495,498,499,493
846,495,497,497,496
322,495,497,498,498
335,496,496,498,496
810,496,497,497,493
219,496,497,497,495
564,495,496,497,495
607,495,497,499,493
198,495,498,494,492
836,495,496,496,496
403,494,497,496,493
267,495,497,497,493
837,495,497,496,501
237,496,497,499,494
416,495,496,496,493
724,495,496,495,498
199,496,497,497,495
753,496,495,502,496
484,497,496,499,497
205,494,496,497,494
837,495,497,500,492
296,496,495,497,492
333,494,496,497,499
800,495,496,494,497
209,495,497,500,494
599,495,497,496,495
584,493,497,497,490
199,493,496,496,493
842,494,496,497,493
379,496,496,497,495
281,495,498,497,494
839,495,496,490,495
226,493,497,505,495
453,494,494,508,493
700,499,497,493,502
206,494,496,483,495
770,489,495,541,494
466,496,496,493,493
217,498,495,526,497
846,492,495,490,501
281,507,495,498,503
351,491,495,484,493
783,495,494,494,495
214,492,496,481,499
633,495,492,492,496
541,494,494,495,505
194,491,496,492,497
845,495,495,489,503
346,494,495,484,493
297,497,496,499,496
834,495,495,492,494
218,494,497,491,490
483,492,494,496,496
665,495,496,492,500
205,494,497,492,495
805,496,496,493,501
442,495,498,499,497
237,494,496,492,493
844,495,495,494,494
266,495,496,495,492
382,495,496,495,492
759,495,497,494,494
216,494,496,499,491
693,495,497,499,495
515,497,496,498,501
206,495,498,495,493
846,494,496,495,498
326,495,497,495,492
327,496,499,498,491
816,495,495,500,488
215,495,497,496,491
555,494,497,499,488
606,496,496,499,493
200,495,496,498,493
834,494,497,497,495
396,497,496,496,492
267,494,497,497,495
837,496,496,499,496
234,496,497,496,492
428,494,498,497,493
728,497,496,496,494
202,494,497,496,493
757,493,498,498,493
477,494,494,496,493
218,494,497,496,491
841,495,497,497,496
290,496,497,494,495
347,497,498,495,494
795,495,497,500,495
208,493,497,495,494
618,496,496,499,495
561,496,496,496,495
202,494,496,497,494
849,494,497,495,496
373,493,496,500,494
295,494,497,497,494
829,494,497,497,493
230,493,497,497,495
473,494,496,497,493
677,498,498,498,495
206,495,498,500,496
785,493,497,494,494
448,495,495,497,497
232,494,498,500,493
838,495,497,498,494
267,493,495,499,493
367,493,498,497,494
765,494,496,498,494
212,495,496,496,493
683,495,495,498,493
525,493,495,496,493
206,493,495,496,495
846,493,496,496,494
340,494,495,496,498
306,493,495,494,493
819,493,495,498,493
220,493,496,496,495
516,494,497,497,498
649,495,496,501,485
198,493,495,495,495
818,493,495,497,497
429,494,494,500,498
250,493,496,498,493
850,494,497,481,495
262,497,496,490,489
387,495,497,511,495
761,500,494,525,495
210,488,498,495,505
708,478,493,511,493
515,497,493,471,494
201,495,492,482,494
852,514,495,484,490
328,496,496,488,501
322,494,496,514,492
817,498,496,478,493
218,501,495,498,497
550,495,494,490,491
617,494,494,489,500
205,497,496,507,501
843,491,496,497,492
412,493,498,486,499
263,494,494,495,495
846,492,494,491,499
243,493,495,469,496
414,492,496,511,497
745,493,495,493,496
211,501,497,491,495
750,495,496,497,497
491,494,496,497,493
222,494,496,495,493
850,494,496,496,493
298,495,496,496,492
345,493,497,495,493
798,494,497,497,492
208,493,497,496,496
604,494,495,496,491
576,496,495,496,497
191,494,496,497,492
838,495,497,497,491
378,494,497,497,489
276,492,497,495,493
834,494,498,505,488
221,494,498,499,493
441,494,498,498,490
706,494,497,496,492
201,493,498,497,494
756,494,497,499,492
469,495,496,495,488
222,493,497,496,492
842,493,498,497,495
282,494,498,497,493
351,494,499,498,494
791,494,497,495,495
215,495,497,497,495
629,495,497,495,494
556,494,496,497,494
204,494,499,497,494
846,493,497,495,493
361,496,496,496,494
293,494,497,496,493
827,495,499,497,495
217,495,498,495,485
479,495,496,497,495
673,495,496,496,494
201,494,497,495,494
789,494,496,495,494
445,494,498,497,492
240,493,497,498,493
844,493,497,499,494
263,493,497,498,493
371,495,496,495,495
764,495,498,498,495
213,494,497,499,490
683,494,497,498,493
531,494,496,497,497
210,494,496,502,498
843,497,495,492,501
345,497,497,495,511
312,490,497,498,501
820,492,495,535,484
219,495,495,527,500
497,486,496,493,494
644,493,492,477,488
196,493,494,492,504
823,483,493,490,497
438,491,496,482,495
241,493,493,494,491
851,494,491,486,508
258,492,495,474,491
378,495,494,496,500
759,490,493,488,494
206,492,496,487,497
703,496,494,494,492
515,493,497,499,500
209,495,494,494,505
853,495,495,494,495
332,496,497,492,494
319,488,496,483,488
820,494,495,504,494
215,490,497,498,494
553,495,497,494,496
627,496,496,489,495
209,495,495,494,494
839,495,496,496,495
412,496,497,494,492
264,493,497,494,491
844,495,496,495,495
248,495,497,497,494
403,494,497,497,493
755,496,496,496,496
202,494,497,497,492
718,494,498,497,495
504,497,496,495,494
213,495,498,494,489
849,493,498,498,491
309,494,497,500,482
325,494,498,497,486
812,494,497,497,492
209,493,498,497,489
569,495,498,496,488
599,493,498,498,496
189,492,499,499,489
846,494,498,494,493
389,495,499,496,494
275,494,498,497,490
837,495,497,500,492
232,495,498,496,494
434,494,499,497,496
726,493,499,498,493
203,495,499,498,491
754,496,498,496,495
485,494,498,494,500
218,494,498,497,494
845,494,498,497,497
297,494,498,494,495
350,494,496,496,494
785,495,498,498,496
210,494,497,499,497
620,495,497,498,491
563,494,498,496,490
205,493,498,496,494
848,493,498,497,495
363,494,499,496,494
299,494,497,497,503
828,495,496,497,495
223,496,498,496,497
470,495,497,496,491
676,494,496,496,493
205,495,496,497,495
783,495,497,497,489
458,494,498,496,495
228,495,497,499,491
844,495,496,497,493
269,495,496,493,502
368,494,497,501,496
772,494,495,495,500
212,485,501,504,504
681,551,502,498,497
532,483,497,520,492
204,505,494,467,502
847,534,492,505,496
334,505,496,484,502
313,494,497,498,498
822,497,493,500,493
209,495,495,507,490
521,489,497,492,494
621,493,495,494,498
187,496,496,488,497
822,498,494,495,503
417,489,495,490,498
251,490,497,491,491
843,497,493,487,495
252,494,496,489,496
404,494,495,493,496
756,498,495,495,497
215,499,498,489,493
734,495,496,499,493
502,494,496,494,494
222,495,496,497,494
844,496,496,496,495
311,495,497,497,493
337,494,498,498,495
815,495,496,497,492
217,494,498,498,494
583,493,496,498,492
595,497,498,496,489
197,493,498,495,490
843,497,497,506,486
380,495,497,499,504
269,494,498,512,484
831,492,497,497,499
230,494,498,498,497
429,494,498,498,496
700,495,496,494,488
203,494,497,499,481
758,495,498,497,488
470,493,498,496,492
223,494,497,497,493
844,494,498,495,491
280,495,497,498,493
350,496,496,495,496
790,495,498,492,493
215,493,497,500,490
626,495,496,497,493
563,495,497,497,491
196,494,498,499,488
842,496,496,499,494
365,495,498,497,495
299,494,496,497,493
837,495,498,497,496
220,494,497,498,490
487,493,497,496,497
674,495,499,497,492
204,493,498,498,492
796,495,496,496,498
449,495,496,496,492
236,494,498,497,496
846,495,496,496,493
268,494,497,498,495
370,495,496,495,497
767,495,497,500,494
213,493,498,496,495
679,493,497,497,499
528,495,497,498,502
212,494,496,501,495
846,495,498,500,501
340,493,498,503,493
312,492,497,494,486
828,496,495,492,489
222,495,497,500,492
528,493,493,498,495
641,492,496,507,494
193,516,494,497,485
828,488,493,468,490
424,497,496,489,497
245,500,497,492,493
849,495,497,482,493
261,494,497,492,498
395,495,497,497,493
749,495,494,494,496
210,493,495,493,495
721,501,496,495,496
506,494,495,497,496
217,493,495,494,495
852,496,495,497,499
317,495,495,489,502
330,498,495,495,497
817,493,498,489,497
222,494,494,491,493
573,495,497,503,500
602,496,496,495,496
206,494,497,496,494
840,496,495,495,497
392,495,495,495,493
281,495,497,497,496
836,494,499,497,492
231,495,496,494,492
434,494,497,498,487
714,498,495,494,492
207,496,496,503,485
764,494,497,497,490
475,496,498,498,490
214,495,498,502,484
838,494,498,499,493
285,496,496,498,491
339,494,497,496,492
795,494,495,496,499
209,494,498,493,491
609,494,497,497,495
568,495,496,497,491
201,495,497,497,492
850,494,497,496,498
372,494,498,496,491
286,494,498,496,486
837,495,496,496,493
214,495,499,498,475
474,494,496,496,495
680,494,497,497,495
200,493,499,495,486
791,493,497,494,492
459,495,497,496,496
235,494,496,495,494
847,494,498,500,502
273,493,496,495,493
369,493,497,496,495
765,495,497,499,497
219,493,497,496,493
677,494,498,497,493
532,494,498,496,495
213,494,498,497,497
844,494,497,496,494
346,495,496,496,495
312,495,496,497,495
824,495,497,498,492
218,493,497,497,495
521,495,497,496,494
635,495,497,495,493
204,495,496,496,496
824,495,497,498,494
420,495,498,496,497
245,494,497,497,490
844,494,497,495,495
250,495,497,497,495
395,495,497,496,494
752,494,496,496,496
209,495,496,497,495
706,495,497,498,498
509,495,498,495,494
215,494,496,499,494
846,496,497,497,494
326,496,496,498,495
324,493,498,496,493
823,495,496,497,497
216,496,497,496,498
555,495,495,495,493
616,494,496,495,491
197,495,498,497,495
837,495,496,496,493
400,493,496,496,494
272,494,497,496,492
838,494,497,498,490
249,494,496,497,492
428,495,496,497,499
720,494,496,497,499
205,493,498,497,494
743,496,496,498,502
482,497,495,495,499
218,495,497,495,493
840,494,497,498,494
292,496,496,496,496
339,493,496,497,495
797,495,495,493,493
214,495,498,502,492
603,494,497,501,492
572,494,498,503,494
191,494,495,494,491
843,499,497,507,500
371,499,497,516,496
288,495,496,519,498
839,499,497,498,493
227,502,495,488,497
456,498,494,481,498
703,500,496,488,502
202,499,496,484,501
777,500,494,482,497
465,497,495,491,500
226,488,494,484,494
844,498,497,507,508
278,494,495,494,496
362,492,494,480,498
773,497,494,483,499
213,495,496,493,498
659,495,495,492,492
538,497,496,492,495
211,495,497,491,499
851,496,496,493,494
353,495,496,494,491
307,496,497,492,495
828,496,498,493,494
220,497,496,495,495
502,496,495,495,493
659,497,497,496,488
199,494,495,498,493
808,495,497,496,495
437,495,496,498,488
231,494,497,499,492
850,495,495,496,489
261,494,497,499,484
377,494,497,500,494
758,494,497,496,500
210,492,497,499,488
694,492,497,498,491
515,493,496,495,494
201,494,498,494,488
850,494,497,498,491
328,493,498,495,491
317,493,498,495,493
818,494,497,495,493
212,494,497,497,493
543,493,496,495,492
624,495,497,497,493
196,494,498,500,490
836,493,497,497,490
403,495,498,496,492
257,493,497,496,492
848,493,499,497,496
243,496,497,498,496
402,495,496,497,494
748,495,496,493,492
211,494,498,497,494
724,495,496,498,494
504,497,498,496,495
221,494,496,496,495
843,494,498,496,495
312,494,497,497,493
335,493,497,498,495
813,495,496,497,494
214,496,497,497,495
579,495,497,497,496
598,495,498,495,495
195,494,496,496,494
852,494,496,498,494
386,496,497,494,492
271,496,497,497,492
843,495,496,496,496
219,496,496,495,495
443,495,496,498,501
705,496,495,496,495
204,495,498,497,493
766,496,497,498,496
476,496,496,496,496
215,495,496,494,495
852,493,497,495,493
292,493,497,496,494
353,495,496,496,494
798,494,497,494,497
210,495,496,497,494
613,495,497,497,494
572,496,496,495,493
206,494,495,496,494
852,495,496,495,499
373,495,500,500,489
288,495,497,495,493
835,495,495,495,503
232,495,497,498,502
465,495,496,496,489
689,496,497,502,501
204,494,498,506,499
778,507,498,531,487
462,509,495,498,487
219,509,497,486,491
850,486,498,478,501
278,501,494,525,485
360,498,493,491,489
782,497,494,497,492
212,491,497,515,497
651,495,492,491,496
553,497,494,489,494
203,503,496,488,496
855,494,495,497,497
357,498,496,493,498
305,499,494,490,495
836,493,495,493,490
221,495,496,489,505
503,492,495,497,492
663,494,495,496,499
205,495,497,487,495
805,497,497,495,493
450,494,495,495,495
235,495,495,495,494
849,495,496,494,496
269,495,495,497,493
371,495,497,495,487
774,496,496,496,496
212,495,496,496,490
677,495,497,501,490
517,495,495,499,486
202,495,497,502,486
850,496,496,496,493
334,494,498,499,490
316,495,497,497,494
819,495,496,498,495
215,494,498,494,493
540,493,497,497,493
620,494,497,496,488
200,493,497,496,492
841,495,497,496,488
408,494,498,496,493
260,493,498,499,497
838,494,497,500,490
237,494,496,494,499
403,494,498,496,495
735,494,498,496,494
196,493,497,496,492
735,495,497,499,493
491,496,500,497,500
210,495,497,496,492
846,494,497,497,494
302,495,497,497,494
331,496,497,495,497
810,496,497,495,492
216,496,498,497,492
584,495,499,496,493
591,494,498,494,500
198,495,497,494,493
845,494,496,497,493
380,495,496,496,495
272,495,497,499,495
840,496,495,496,492
221,494,497,496,495
447,494,497,497,494
705,495,498,496,492
205,494,497,495,494
766,495,497,498,491
468,494,496,498,494
227,494,497,499,497
844,494,497,498,492
279,494,497,499,495
356,493,498,499,491
784,495,496,495,495
212,495,498,498,493
646,496,497,498,498
548,493,496,496,495
198,495,497,496,492
849,495,497,489,494
344,494,497,492,493
299,495,497,500,492
828,495,499,496,500
211,494,497,496,492
500,495,497,498,501
650,495,495,497,495
197,494,498,499,492
817,494,496,506,502
437,494,496,493,496
238,496,497,511,501
848,497,495,500,494
259,496,493,499,490
384,499,497,476,500
760,496,497,476,495
208,494,496,497,496
697,496,493,496,490
523,493,495,491,500
213,497,494,503,492
858,501,495,500,495
327,496,495,492,496
329,502,494,492,498
824,500,498,494,496
219,494,495,491,504
558,497,496,495,497
615,496,497,485,494
197,493,495,496,495
851,495,496,490,499
401,492,496,491,494
268,495,495,501,499
850,495,498,491,498
238,494,496,490,495
415,495,497,489,492
742,497,495,494,489
208,496,497,493,495
758,494,496,494,500
495,495,495,495,492
219,495,495,495,494
855,495,496,495,494
304,494,496,495,494
341,495,497,495,492
810,495,495,495,494
213,495,497,495,493
596,495,495,498,493
590,497,496,496,496
194,495,497,496,493
852,496,496,499,484
381,496,498,495,491
278,496,497,499,492
838,493,496,502,492
229,494,498,500,487
447,495,498,502,486
707,495,497,497,491
199,493,497,499,486
765,493,497,502,489
468,494,496,498,489
221,493,497,497,489
841,495,498,502,493
279,495,497,498,493
352,495,496,495,492
783,495,496,497,495
212,493,498,497,492
629,493,496,499,493
558,494,496,496,491
200,495,498,495,491
845,493,498,498,496
363,494,497,497,495
291,494,497,496,494
833,494,497,495,496
225,493,497,495,496
471,495,496,496,495
685,494,496,497,492
198,493,499,498,494
787,496,497,497,497
456,495,498,496,494
224,493,497,496,494
847,495,497,496,497
270,495,496,496,496
355,494,497,497,492
777,495,497,494,496
214,495,497,495,494
646,494,498,497,494
546,496,496,497,497
197,494,496,494,494
850,494,497,495,495
357,494,496,495,494
295,495,496,496,494
833,495,498,496,495
220,494,497,495,495
480,493,496,497,492
675,495,497,496,494
202,495,497,496,495
795,496,497,499,495
445,496,496,492,506
232,495,498,497,495
849,496,496,498,493
268,495,497,495,495
367,496,497,493,492
776,495,498,496,496
210,495,496,494,494
669,496,498,502,496
539,494,496,501,492
206,499,498,501,487
852,498,497,507,491
346,500,495,505,490
313,498,496,494,492
826,506,496,501,506
213,493,494,508,496
519,507,497,494,499
644,495,497,501,505
194,506,498,479,501
832,493,493,496,503
407,495,497,514,490
236,499,495,485,498
847,497,496,489,500
248,493,496,491,503
385,493,494,495,498
757,495,496,489,497
205,496,496,487,500
724,495,496,497,499
510,496,497,497,494
207,495,495,495,494
855,494,496,494,493
318,496,496,494,493
326,496,496,493,495
820,494,496,495,493
214,494,496,495,489
556,495,498,497,489
612,494,496,496,489
195,495,497,494,484
849,494,496,498,491
395,495,497,499,496
260,494,496,495,492
836,494,497,495,489
236,495,497,497,486
415,494,496,499,488
722,494,497,496,491
199,494,496,496,491
749,493,497,498,489
489,495,497,493,489
208,494,497,496,488
844,493,498,498,491
289,495,498,497,493
339,494,496,496,492
799,495,496,496,488
204,494,498,496,494
598,494,497,496,495
582,496,497,499,494
190,495,497,496,490
847,496,496,496,495
379,495,498,495,493
278,494,496,497,487
838,495,496,498,495
222,495,498,494,495
444,493,496,495,493
712,495,498,497,489
203,494,497,496,494
769,495,498,496,496
475,495,497,496,494
221,495,498,496,500
848,495,496,496,495
286,495,496,495,496
354,493,497,495,497
784,494,496,498,497
215,496,496,494,496
633,495,496,497,494
567,494,496,496,494
196,495,499,499,492
850,494,497,494,494
356,496,496,493,494
288,494,496,497,496
840,494,495,497,494
211,496,497,498,496
482,496,496,495,496
678,495,497,496,492
197,494,496,495,492
793,496,497,497,496
448,497,496,496,495
224,495,498,495,494
854,493,496,498,495
274,495,498,490,496
367,496,496,499,500
784,496,496,490,504
212,497,495,491,492
680,499,494,520,502
540,501,494,469,502
202,498,497,495,501
852,500,497,496,487
346,485,500,509,494
305,493,495,490,496
823,485,494,491,499
213,496,494,476,490
518,498,493,484,496
646,498,496,499,496
199,501,496,502,495
819,493,495,493,498
420,497,496,493,492
252,494,495,496,496
847,495,495,491,493
251,496,497,494,495
393,494,496,496,492
755,497,496,497,493
213,495,496,497,492
717,495,495,497,491
507,499,496,496,486
217,494,496,500,490
849,496,497,500,496
322,495,497,504,486
322,497,496,492,489
816,496,498,499,487
204,496,497,498,489
539,494,497,495,489
618,495,496,496,490
192,495,496,496,493
832,494,498,496,487
400,495,498,493,491
255,494,496,495,491
845,495,497,497,490
240,495,498,498,493
412,494,497,496,493
747,495,498,494,494
196,495,499,496,492
747,494,498,499,493
493,497,496,495,495
210,494,496,496,494
851,494,497,498,497
301,495,498,497,497
339,494,498,498,499
813,494,497,494,495
212,494,498,495,495
597,495,497,495,497
586,495,497,496,499
195,495,499,495,494
852,496,496,497,494
372,495,497,497,495
279,495,497,496,494
835,496,496,497,495
232,496,497,496,495
452,495,498,499,495
698,496,498,496,495
203,495,498,496,495
783,494,496,497,496
463,495,496,498,496
221,495,496,497,497
844,496,496,494,492
273,495,496,498,496
353,496,498,496,497
780,495,498,498,494
198,496,498,497,494
664,496,496,495,492
536,497,498,497,499
200,494,498,496,493
846,495,496,496,500
337,495,496,497,495
301,495,496,492,498
829,496,495,497,497
210,494,497,501,495
518,496,498,485,495
653,495,498,514,492
199,496,495,501,486
815,500,497,511,490
433,502,495,536,502
243,493,497,512,494
848,492,495,519,498
254,503,495,493,496
383,505,496,479,494
756,499,496,497,496
206,495,496,481,500
717,496,493,478,496
506,493,495,503,499
201,496,494,488,494
849,498,494,487,503
310,497,495,491,504
324,493,497,482,497
812,496,495,489,490
210,492,497,495,498
572,495,495,493,493
594,505,495,493,497
184,497,498,489,492
849,495,496,494,497
383,495,496,494,497
268,495,495,494,496
846,495,496,494,496
234,495,496,497,496
441,496,495,497,486
714,496,495,495,489
204,495,496,498,486
775,495,497,498,488
470,495,495,497,492
216,495,497,498,480
852,496,496,496,496
270,494,498,496,498
348,493,496,496,490
785,495,498,497,491
203,494,496,497,492
634,495,497,497,499
547,498,498,496,504
198,495,496,495,488
843,494,497,497,493
359,495,497,498,489
293,494,498,497,493
830,494,498,496,489
221,495,498,498,495
478,495,499,496,494
681,494,497,500,491
194,495,499,496,495
789,494,496,495,492
446,495,498,497,495
232,494,498,495,494
849,494,495,495,492
263,494,497,499,494
369,494,498,500,499
773,496,498,494,494
209,493,496,499,493
672,494,496,496,493
533,494,497,495,494
204,494,496,497,493
847,495,497,497,496
337,495,497,495,495
307,494,497,497,495
822,494,495,496,495
218,493,497,497,500
526,494,496,496,498
634,495,497,497,493
193,493,496,496,494
839,493,498,497,495
420,494,497,494,495
246,493,496,497,492
840,495,496,499,494
250,496,496,497,494
389,496,496,494,496
749,495,497,497,497
202,495,497,498,494
724,494,496,496,493
502,494,497,497,496
206,495,496,499,495
850,494,496,500,494
318,495,497,495,501
330,496,497,498,490
819,496,495,507,500
215,497,497,493,510
576,499,497,497,496
602,493,497,489,500
201,493,494,501,501
852,496,497,548,496
398,485,496,521,499
270,493,494,486,497
849,479,494,492,502
234,501,495,499,503
423,494,496,495,491
729,495,496,494,498
201,499,495,494,502
765,495,494,487,495
479,498,497,492,499
219,500,496,482,491
858,496,495,492,496
290,496,495,488,498
344,497,495,492,497
806,495,496,488,499
210,495,496,494,493
608,494,496,494,494
581,496,497,495,493
196,496,496,496,492
855,497,496,497,494
378,495,497,496,497
283,494,496,503,488
839,495,498,497,491
224,495,497,502,502
444,495,496,496,494
705,496,497,493,485
197,494,497,501,492
764,495,498,496,493
462,494,496,496,495
216,495,497,496,492
843,495,498,496,488
275,494,497,499,491
350,495,497,495,494
782,496,497,496,494
211,496,497,496,496
637,495,498,495,488
555,493,498,496,493
205,493,499,497,492
846,495,497,498,490
359,495,497,494,491
294,494,498,495,493
839,494,498,494,493
219,493,498,495,494
478,494,496,498,492
682,495,497,494,489
202,493,496,495,495
798,493,496,496,498
450,493,498,499,491
225,495,499,497,491
852,494,496,498,495
264,495,499,493,495
368,493,497,501,496
776,495,498,496,495
206,494,498,496,494
668,494,497,496,495
540,495,496,496,497
204,494,498,497,495
848,494,497,496,498
347,495,497,495,492
300,494,497,495,492
831,494,496,497,496
214,494,497,496,495
510,494,497,496,495
653,495,496,496,495
201,495,498,499,496
822,495,495,497,494
434,496,496,495,495
243,495,497,497,495
853,495,497,496,498
258,494,497,497,495
380,494,498,495,495
760,496,495,496,494
206,494,498,499,499
709,494,497,493,495
516,495,496,498,486
210,497,496,511,495
853,494,497,512,495
323,503,497,487,502
322,498,495,500,493
828,489,496,503,492
205,487,498,488,495
555,495,496,497,494
616,492,496,501,486
187,489,496,493,488
842,493,494,494,497
398,497,495,501,495
258,504,495,499,498
851,494,495,491,497
235,495,495,503,492
418,493,495,492,499
736,494,494,493,498
203,498,495,503,493
753,496,496,492,495
492,494,498,496,494
210,495,495,496,496
846,496,495,497,497
300,495,495,500,487
333,498,496,496,492
815,495,496,497,493
208,495,497,495,494
592,495,496,497,490
595,497,496,502,489
192,494,497,499,489
856,493,496,496,494
380,495,495,499,489
266,494,497,497,493
842,495,497,495,490
220,496,497,494,498
433,493,496,498,494
714,495,499,498,489
193,494,499,496,496
764,494,497,497,491
471,494,496,496,485
211,493,497,497,493
846,494,496,494,499
271,494,496,495,494
346,493,498,497,491
786,494,496,497,494
206,494,497,495,494
633,494,496,496,492
558,495,498,493,490
202,493,499,500,503
854,494,497,495,498
356,495,496,498,492
291,494,496,497,491
839,493,498,495,493
221,495,496,496,495
487,493,498,496,495
675,493,497,497,496
201,493,496,497,494
799,494,496,494,493
452,493,498,498,497
230,494,497,496,499
851,493,495,496,495
272,496,497,497,493
367,492,496,496,492
774,495,497,499,494
212,494,497,496,488
687,493,497,497,495
536,494,497,495,495
201,494,497,497,493
859,494,496,495,496
344,494,496,497,495
306,494,497,496,493
838,495,498,496,493
218,492,497,498,496
518,495,496,498,494
655,490,496,495,501
199,493,497,499,492
830,495,496,504,499
434,501,496,495,483
243,497,497,495,493
851,500,495,505,501
264,500,496,514,491
382,494,496,557,493
769,495,497,488,490
200,489,497,495,498
693,502,495,499,495
523,488,494,494,502
202,489,494,484,495
853,493,495,497,497
328,501,494,489,495
312,489,494,496,497
829,495,496,484,500
209,508,497,491,499
521,496,494,494,498
640,501,497,492,499
189,493,497,489,491
826,499,495,492,493
429,492,498,494,499
242,494,495,499,497
850,496,496,496,499
255,494,496,492,496
397,494,496,497,502
753,496,495,494,493
207,495,497,494,495
738,495,496,494,492
502,495,496,495,493
207,495,496,497,490
850,495,495,498,489
303,496,497,498,488
337,497,495,496,486
816,495,497,499,492
205,494,498,494,485
588,494,497,501,489
587,497,498,502,490
188,494,496,497,489
846,493,497,498,494
371,494,496,496,490
264,493,499,508,494
841,494,496,497,493
217,494,498,496,489
442,494,499,497,482
699,495,497,502,486
192,495,499,496,491
770,493,496,496,495
465,495,498,494,496
223,494,496,494,492
853,495,498,497,495
272,494,497,498,492
358,495,497,497,489
790,495,497,499,496
209,494,498,496,493
648,494,497,496,496
553,493,498,500,483
201,494,497,495,495
847,495,497,496,493
356,495,499,495,493
295,495,498,497,501
835,494,498,495,493
215,495,498,497,494
496,495,496,496,493
656,495,495,497,495
200,495,496,496,495
811,495,497,496,490
433,495,497,495,495
237,495,498,497,498
850,494,496,494,499
260,493,497,496,495
381,493,496,495,493
763,495,498,496,497
207,494,497,495,494
707,496,496,496,495
508,494,498,495,494
207,495,496,498,494
847,496,496,496,498
322,494,496,494,492
322,496,498,496,493
816,494,496,499,494
213,496,496,497,495
551,495,495,496,494
616,495,497,495,494
189,494,498,499,497
837,494,496,495,496
403,495,498,497,495
256,495,496,497,502
849,495,498,497,492
240,495,496,501,495
415,495,495,508,489
739,496,497,514,503
197,494,498,524,492
739,495,497,514,506
497,498,498,520,494
211,496,496,482,497
848,486,497,496,499
300,485,495,505,496
334,493,495,490,492
817,492,494,489,502
213,500,496,478,491
595,496,495,493,496
584,495,495,492,498
184,494,493,490,495
858,496,495,492,498
375,495,495,497,495
268,494,495,490,485
845,499,493,489,496
216,495,495,466,496
435,497,495,499,493
710,498,497,487,495
188,495,497,495,493
773,493,495,489,496
467,494,495,494,495
209,494,497,494,494
855,495,497,497,495
275,496,497,494,494
348,495,497,496,493
800,497,495,497,490
205,496,497,497,489
634,495,496,497,489
561,495,496,499,489
199,495,496,499,487
855,495,497,496,491
353,496,496,502,490
293,495,497,497,489
838,495,497,499,490
211,493,497,494,485
481,493,497,496,491
677,495,498,496,491
195,495,496,495,488
788,494,497,496,485
452,493,497,496,495
232,493,496,498,492
843,494,496,495,484
258,495,497,496,491
361,493,498,496,494
767,495,497,494,493
206,496,498,497,497
678,494,497,494,493
530,493,498,495,493
193,495,498,497,493
853,496,496,496,489
335,494,497,493,497
308,493,498,494,494
824,495,496,497,495
208,494,497,497,497
522,495,497,492,492
639,494,498,498,497
198,493,497,497,493
838,495,497,497,495
421,495,497,495,495
243,494,497,496,491
848,494,496,495,497
255,495,497,496,491
388,495,497,496,494
753,495,498,496,495
207,494,496,494,496
715,495,496,499,498
514,496,497,496,496
208,494,496,499,495
854,493,496,499,497
322,496,496,499,491
322,494,496,496,494
820,494,497,496,495
212,494,496,495,496
550,501,500,493,497
625,504,503,513,496
190,503,498,493,488
853,494,492,487,493
408,481,495,493,498
259,499,493,454,482
851,490,491,496,502
250,494,503,494,503
417,493,493,489,498
739,503,496,487,508
200,500,493,492,491
759,501,493,489,494
495,510,498,491,495
215,500,496,495,494
850,497,496,490,500
291,494,496,490,491
338,494,495,492,498
811,493,496,494,501
206,498,496,492,497
601,496,496,495,496
584,496,497,495,493
198,494,497,495,498
855,494,496,496,499
376,496,498,496,497
274,495,496,495,491
840,496,497,494,489
229,496,496,497,488
455,494,498,496,490
699,495,496,499,491
194,495,495,496,489
778,494,497,495,494
470,494,495,496,489
211,495,496,497,491
854,495,495,498,490
272,494,497,497,497
344,493,497,500,490
784,495,497,497,493
195,495,498,498,492
636,494,498,500,494
552,493,499,496,490
189,494,497,496,494
851,493,498,497,490
356,494,497,496,492
290,493,499,494,494
841,495,496,495,494
222,494,498,495,494
477,494,498,496,494
675,495,497,497,490
202,495,496,492,494
798,494,496,497,491
447,494,499,495,489
230,495,498,495,494
844,494,497,493,494
263,494,497,495,491
373,495,499,496,493
770,495,498,497,497
216,493,498,497,493
681,493,498,498,502
524,494,497,495,493
211,494,496,496,493
847,494,497,497,495
338,494,496,494,491
315,495,496,497,493
823,494,497,496,494
214,494,498,495,492
526,494,496,494,493
638,494,497,495,498
193,495,499,497,493
826,496,496,495,500
413,496,496,500,492
244,495,496,498,490
842,495,498,496,493
241,496,498,498,494
388,495,499,496,501
755,496,497,495,496
205,496,498,496,496
729,494,496,495,496
507,495,497,495,496
217,495,497,498,494
852,496,497,495,494
328,495,497,494,496
333,494,497,495,498
825,496,497,495,492
221,494,498,497,495
566,496,495,495,491
615,497,498,498,490
199,495,498,496,494
846,496,496,499,494
396,494,496,496,494
271,495,498,496,495
846,494,495,497,493
241,495,497,500,498
420,494,496,491,491
733,503,499,506,497
201,505,504,481,497
751,484,500,470,491
489,477,496,491,497
218,485,496,504,492
857,497,496,496,494
300,489,496,505,487
340,493,496,496,512
824,499,494,491,493
216,509,496,484,497
603,494,494,492,481
591,507,494,493,500
189,498,496,476,497
851,500,495,496,492
382,496,494,491,498
276,493,496,497,493
844,496,497,489,501
216,494,496,494,492
451,494,498,499,494
705,499,496,492,499
199,498,496,504,498
776,497,495,496,498
476,497,497,497,494
213,494,496,495,493
855,497,496,495,498
279,497,497,497,494
346,498,496,508,487
787,497,496,505,505
197,495,496,502,490
626,493,496,501,490
558,495,496,496,484
188,493,498,498,490
841,496,496,497,487
358,495,496,497,484
285,492,496,499,485
832,493,497,495,485
213,495,497,496,491
466,493,498,496,486
686,494,498,495,497
200,495,496,494,491
786,495,497,494,492
459,495,498,497,490
223,494,498,499,490
851,495,496,496,495
263,495,497,495,499
355,495,497,496,490
776,495,498,498,493
210,495,498,495,495
666,495,497,495,492
538,496,498,495,496
199,494,497,498,493
852,493,497,495,492
344,495,498,497,497
307,495,497,496,493
828,494,499,498,492
215,495,497,497,495
518,494,496,496,491
651,495,498,493,496
194,494,499,495,494
830,494,497,500,497
420,496,498,496,493
250,494,497,496,491
848,495,496,497,500
252,496,497,493,500
380,494,498,496,496
758,495,497,497,495
205,493,496,496,486
725,494,497,498,494
515,496,496,494,494
211,494,496,497,494
850,494,497,498,490
316,493,496,494,501
328,496,498,497,492
818,495,496,497,499
208,494,495,498,486
571,495,496,496,497
596,496,496,496,493
195,494,498,496,491
850,494,497,495,491
391,496,496,495,499
268,495,497,496,490
846,495,496,500,492
235,504,501,501,502
423,501,497,484,497
732,492,497,497,498
199,492,495,487,495
754,515,496,483,488
483,498,494,474,496
216,502,497,493,503
853,488,496,495,497
290,497,498,487,501
339,495,496,493,500
797,497,496,495,508
200,491,496,498,497
608,495,495,520,495
574,499,495,495,495
188,495,494,492,494
851,490,495,490,497
375,493,497,495,495
278,495,495,494,502
846,496,495,499,496
218,494,496,495,495
452,494,496,494,495
699,495,495,496,495
196,494,496,495,491
778,495,496,495,497
465,495,497,495,490
222,495,496,500,489
855,496,496,496,492
277,498,496,503,480
356,494,497,500,483
789,496,496,496,498
204,494,497,496,493
639,495,497,498,490
552,496,498,496,494
200,493,497,496,496
857,495,498,496,497
352,493,496,496,498
292,495,496,497,492
839,495,499,498,495
208,492,497,496,493
475,493,497,499,511
676,494,498,496,495
194,494,498,495,493
801,495,497,495,494
444,495,498,495,500
229,495,497,495,494
851,496,498,497,498
252,494,497,496,493
370,493,497,496,491
776,494,498,496,499
210,495,497,495,492
679,495,496,497,489
530,494,498,497,495
205,494,496,500,492
855,496,497,495,494
348,495,497,497,494
312,494,496,496,495
830,495,498,499,496
217,494,497,498,495
509,495,496,496,496
648,496,498,496,498
202,494,497,493,494
820,496,497,499,495
426,494,497,495,493
242,495,496,495,497
851,496,496,496,494
258,494,497,498,491
376,495,496,496,499
764,496,496,497,493
205,496,498,498,495
709,494,497,496,493
514,494,495,496,492
204,495,496,498,507
851,495,496,493,493
321,495,496,499,498
320,495,496,503,508
823,498,498,514,509
209,501,496,534,481
559,493,494,506,496
624,507,496,495,504
194,489,498,500,491
849,495,492,502,498
402,501,498,488,502
266,497,496,514,497
862,494,494,491,499
245,494,497,506,495
420,490,494,500,503
736,501,495,507,500
200,494,495,495,501
756,501,496,502,495
495,503,494,494,495
215,493,497,498,498
858,494,497,490,502
300,493,497,498,493
340,496,496,504,501
813,495,495,496,491
212,494,496,495,491
611,496,496,493,498
581,495,495,495,493
193,497,496,496,494
855,496,495,497,493
370,496,495,498,491
278,496,495,497,488
844,495,498,493,488
226,494,496,496,487
454,494,498,498,490
702,496,497,496,495
198,495,497,500,486
771,495,496,498,489
461,496,496,494,485
211,495,496,499,490
848,494,497,497,491
272,494,498,495,486
348,494,496,499,491
790,494,497,494,494
204,494,497,499,494
643,494,498,498,493
545,495,496,496,495
199,492,497,493,491
850,495,497,496,493
352,494,497,497,498
299,494,496,496,495
836,494,498,494,494
211,494,497,493,496
494,496,496,494,497
669,494,497,495,495
199,493,497,495,495
813,494,497,496,496
445,495,496,495,493
227,494,497,496,495
852,494,496,496,494
267,495,497,496,491
377,494,498,496,493
773,494,497,496,499
206,495,498,497,493
704,493,497,495,497
527,494,497,496,494
199,494,497,498,491
852,494,496,496,498
335,495,495,497,495
316,495,496,496,496
829,496,496,495,491
216,495,497,496,491
537,495,496,497,495
639,496,496,496,488
197,494,497,495,493
839,495,497,495,496
420,495,496,494,493
254,495,496,497,494
850,494,497,494,493
253,493,497,496,494
395,495,496,496,497
759,495,496,493,495
203,495,498,497,497
734,495,496,498,497
509,496,498,494,495
208,495,496,496,495
854,496,497,497,492
313,494,498,496,494
327,495,497,496,494
820,495,495,494,496
210,495,497,496,499
565,495,497,494,496
615,495,496,494,491
191,496,497,501,489
847,498,496,502,488
406,497,496,526,497
262,491,498,515,493
854,497,492,472,498
244,504,497,492,495
415,500,491,493,496
739,496,492,487,493
201,493,494,505,486
763,501,495,502,489
494,497,496,494,501
205,491,494,498,493
856,500,494,480,498
297,493,496,484,503
336,492,495,504,489
812,495,495,488,497
208,499,495,490,498
599,495,494,490,497
585,497,495,492,499
193,497,496,496,491
860,496,495,479,493
379,495,495,494,494
272,495,495,493,495
850,496,494,495,497
223,494,496,495,494
449,495,496,497,494
711,496,496,497,485
197,495,496,497,486
780,495,495,503,486
468,495,497,499,491
212,494,496,500,487
857,496,497,497,490
272,495,496,498,491
347,493,497,495,486
789,495,497,497,496
203,494,497,495,488
635,494,496,495,492
553,494,496,497,491
194,494,499,498,491
852,493,497,503,496
351,493,498,497,494
286,495,496,497,494
840,494,496,493,492
215,493,497,497,496
476,493,497,495,493
677,494,496,495,496
193,493,498,497,491
796,493,496,497,497
449,495,497,496,493
222,494,496,497,488
852,494,496,496,496
263,495,496,498,494
361,494,497,495,494
779,495,497,496,494
202,494,497,496,494
675,494,496,497,495
536,495,498,492,494
208,494,497,496,494
855,493,496,496,495
345,495,497,497,494
307,495,498,496,494
830,495,499,497,496
218,493,497,495,497
521,495,498,494,498
646,495,498,495,492
197,495,497,498,494
831,495,496,495,495
418,495,496,496,499
250,493,497,496,494
856,495,496,496,487
251,494,496,495,496
398,495,498,497,493
754,495,496,495,494
200,495,498,497,489
740,494,496,495,489
501,496,498,495,496
208,494,496,495,495
851,496,497,497,496
302,494,496,492,495
333,495,497,494,496
814,496,495,493,493
212,496,499,497,496
592,503,492,493,504
589,501,496,481,500
197,507,495,505,497
856,501,496,503,498
378,496,496,487,490
