Sensor0,Sensor1,Sensor2,Sensor3,Sensor4

9492,493,477,490,493
491,492,541,491,492
492,493,616,489,492
492,494,636,491,494
491,491,628,493,494
491,2,493,477,490
493,491,492,541,491
492,492,493,616,489
492,492,494,636,491
494,491,491,628,493
494,491,491,582,493
494,492,493,480,491
493,492,492,410,491
493,491,492,376,491
495,491,494,367,490
493,493,494,376,490
494,493,492,393,490
493,491,493,444,491
493,492,493,504,491
493,492,494,577,492
494,491,492,632,492
494,491,493,633,492
493,492,494,622,491
496,494,495,536,491
494,493,493,439,491
493,492,493,396,490
493,493,494,369,490
493,493,493,372,491
494,493,492,383,490
491,490,494,414,491
494,492,493,468,490
492,491,492,533,491
493,490,492,609,493
493,491,493,636,491
492,492,491,630,492
492,492,495,587,493
495,492,492,491,491
493,491,493,415,491
494,493,492,381,490
494,494,493,367,490
493,492,491,376,492
494,493,493,388,489
493,491,493,438,492
493,491,492,498,492
493,491,493,563,490
494,491,492,630,491
494,492,493,634,492
493,491,492,624,491
495,493,492,552,492
495,492,492,449,491
494,492,492,400,492
494,493,494,369,489
493,491,492,368,491
495,494,492,379,491
492,491,494,405,490
492,492,493,461,490
493,492,494,524,491
492,490,492,603,490
494,490,494,635,490
494,491,492,632,492
494,490,491,600,493
494,491,492,504,492
493,492,493,420,491
493,491,493,385,491
495,493,494,367,489
493,493,493,374,490
494,492,493,386,489
494,494,493,429,491
492,491,492,490,491
493,492,493,555,492
493,491,492,625,492
493,490,493,635,492
492,492,494,623,490
492,492,495,567,492
495,492,493,459,492
494,491,492,404,491
493,493,493,371,490
494,492,491,370,491
495,492,491,378,492
492,492,495,400,493
493,490,491,455,490
493,491,492,516,491
492,490,493,591,491
492,490,493,633,489
493,492,492,632,492
493,493,493,609,490
493,491,493,516,491
494,492,493,428,491
494,492,491,390,492
496,492,491,370,490
493,491,493,373,493
492,490,492,384,490
495,491,494,422,490
492,491,493,482,491
493,491,493,545,490
493,492,493,617,490
492,491,494,635,491
495,492,491,624,490
492,492,492,577,493
494,491,492,472,491
494,491,492,408,491
493,492,492,374,490
493,492,493,366,490
495,490,492,378,490
493,492,493,397,490
493,492,492,448,491
493,491,493,507,491
492,491,494,584,491
494,491,494,631,490
493,491,493,632,492
492,490,493,616,493
493,491,493,529,491
494,493,493,436,491
493,491,493,393,492
495,490,491,369,490
494,493,492,373,491
494,491,491,383,491
495,492,491,416,491
494,492,493,473,491
493,491,492,537,492
494,493,492,613,492
492,492,494,636,491
493,492,494,627,490
494,493,495,583,493
494,491,493,485,491
494,492,492,412,491
493,492,492,378,492
495,492,492,369,492
493,490,492,376,492
493,493,493,393,490
491,490,492,441,490
494,492,492,501,491
492,491,493,571,490
492,491,494,629,490
493,492,492,633,491
491,492,491,623,491
495,491,494,540,491
494,492,493,444,492
494,492,492,398,493
493,490,492,370,494
492,491,493,370,491
494,492,492,380,490
493,492,491,411,492
493,492,493,468,491
493,492,493,529,491
494,492,492,607,491
495,493,494,636,490
493,490,493,629,491
494,492,494,592,492
493,492,493,496,492
493,492,492,416,491
493,492,494,383,492
495,491,495,368,490
494,490,492,373,491
494,493,492,390,490
494,492,491,435,491
493,492,492,493,491
492,491,493,560,492
492,490,492,626,491
494,492,493,634,490
492,492,494,622,490
492,492,494,556,491
493,492,493,454,491
493,492,492,402,492
494,493,492,371,491
492,492,494,371,492
493,491,492,380,492
493,490,491,404,492
493,491,492,460,490
493,492,493,521,491
493,491,491,600,492
492,493,494,637,491
494,493,493,632,492
495,493,491,603,491
492,492,493,508,491
494,492,492,420,491
493,492,492,385,492
493,490,492,368,491
492,491,493,372,491
492,492,491,386,491
495,492,494,428,490
493,491,491,486,491
492,492,492,553,490
493,492,492,622,490
494,491,491,636,492
494,491,491,624,490
492,493,492,569,493
494,493,493,463,491
493,491,492,405,491
492,492,494,370,490
492,492,493,368,489
494,491,493,378,490
494,493,492,399,491
492,491,492,454,491
494,492,493,515,491
493,490,491,589,492
493,490,493,634,491
495,491,494,631,491
495,491,491,614,490
492,493,494,522,491
494,492,492,431,491
493,492,492,391,492
493,491,492,371,491
495,491,493,372,490
493,490,492,384,492
494,491,492,422,491
492,491,491,480,491
493,491,492,542,491
494,492,492,618,490
493,492,494,637,492
493,491,492,628,490
494,494,493,581,491
495,493,493,476,491
494,492,493,409,490
493,491,492,376,493
492,493,493,368,491
492,491,493,377,491
492,491,494,394,490
491,491,493,446,491
493,492,493,506,491
493,493,492,577,492
492,493,493,633,491
494,492,492,634,492
494,491,491,619,492
495,493,494,533,491
493,491,492,437,491
493,493,492,393,491
492,492,493,367,490
492,492,494,372,490
493,492,493,382,490
493,493,492,413,491
492,492,492,472,491
493,490,492,533,490
494,491,491,612,491
494,490,492,637,492
493,491,493,626,491
495,493,492,585,491
492,492,492,489,491
494,492,493,413,491
493,493,494,379,490
493,493,493,369,491
495,492,493,374,490
494,492,491,392,489
492,492,493,439,491
494,491,493,500,491
493,491,492,566,492
492,490,493,629,492
495,492,494,635,490
494,490,492,621,493
494,494,492,547,490
494,493,493,448,491
494,492,492,399,492
495,491,491,370,490
493,492,493,371,492
493,490,492,380,490
494,490,492,406,491
492,491,493,464,491
493,491,493,524,490
493,490,491,604,492
493,493,493,637,491
492,491,493,630,492
495,492,491,597,493
495,491,492,501,492
495,491,492,416,490
493,493,493,382,492
492,493,491,368,491
493,492,493,372,490
493,492,494,386,489
492,493,493,432,490
493,491,492,490,490
493,492,492,558,490
492,491,491,626,492
494,491,493,634,492
492,491,493,623,491
492,490,493,560,492
493,493,492,458,491
493,491,493,403,492
494,490,491,368,490
493,494,492,371,491
495,493,492,379,491
494,491,491,400,489
492,492,492,459,491
493,491,493,516,491
493,490,492,594,491
492,490,493,633,491
492,491,493,629,490
494,491,491,608,489
493,494,494,514,493
494,492,492,424,491
494,493,492,389,491
495,492,492,370,492
495,491,493,372,489
493,491,492,385,493
493,493,492,425,491
493,491,492,483,490
493,492,494,548,490
492,491,493,618,491
493,492,493,636,491
493,491,493,627,490
494,490,492,571,492
494,493,492,467,490
493,492,492,408,490
494,492,491,373,490
493,491,493,366,491
493,490,491,377,489
493,492,491,398,492
492,490,492,450,491
492,491,492,510,491
492,490,491,583,490
493,490,492,631,490
494,491,491,632,490
492,491,494,612,492
493,490,493,526,491
493,491,491,432,490
494,492,491,390,489
492,491,491,371,491
494,491,493,370,490
492,491,493,382,490
491,490,493,417,490
492,490,492,475,491
493,492,492,540,489
492,490,493,617,491
494,490,494,636,489
493,493,494,628,488
493,492,494,581,490
493,492,493,481,491
494,492,493,412,489
492,490,492,375,491
492,493,492,369,490
494,493,491,377,491
494,492,490,395,490
492,491,493,444,491
494,491,492,503,490
494,490,491,573,492
493,490,492,630,491
492,491,494,632,490
492,491,491,621,491
493,492,495,538,493
494,493,492,439,491
494,493,492,396,490
494,494,493,370,490
494,492,491,372,492
495,491,493,379,490
493,490,492,412,492
493,492,492,468,491
493,491,493,529,491
492,491,494,607,490
492,492,494,636,492
494,492,493,630,491
494,493,493,589,492
493,493,492,492,491
495,493,492,417,491
494,491,492,381,493
494,493,493,367,490
492,491,493,374,491
494,491,492,386,490
492,492,493,435,490
492,492,493,497,490
492,491,493,562,492
492,490,492,628,491
494,492,494,634,490
494,490,491,622,493
494,491,492,553,492
493,492,492,451,491
493,491,492,399,491
495,492,491,368,490
492,492,492,370,492
493,493,492,380,490
494,494,492,407,491
494,492,492,462,490
493,492,493,520,490
494,490,492,602,490
493,493,492,635,491
492,492,494,629,490
493,493,495,600,490
492,493,494,507,492
495,492,493,420,490
493,491,492,385,492
495,493,491,369,491
495,491,491,375,491
494,491,492,387,492
493,493,493,430,491
493,491,492,489,490
493,491,493,554,489
492,491,494,622,489
493,493,493,637,490
494,493,492,626,491
494,490,493,565,491
494,493,493,463,492
493,491,493,404,492
494,491,492,371,492
494,491,493,369,492
492,491,493,379,492
495,491,494,400,489
492,491,492,457,491
493,491,492,515,491
494,493,492,592,490
494,492,492,635,492
493,492,494,631,493
494,491,492,611,490
493,494,492,517,492
494,492,492,428,491
494,492,493,389,490
493,491,491,371,492
494,493,492,373,490
493,491,492,383,491
495,492,491,423,491
494,491,492,480,491
494,491,492,546,491
493,489,491,617,490
494,492,493,635,491
492,492,491,628,492
493,492,494,574,490
494,492,493,473,491
493,492,493,410,491
493,491,493,372,490
494,494,491,368,490
492,492,491,377,492
494,491,491,397,493
493,491,492,448,491
493,491,492,508,491
494,492,494,579,490
495,491,492,634,491
494,493,492,633,491
495,493,492,619,491
496,493,492,533,491
493,492,492,434,491
494,492,493,394,490
493,490,491,369,492
493,491,492,370,491
492,492,493,381,491
491,490,494,414,490
494,491,492,473,490
493,492,493,537,492
492,489,492,613,490
494,492,491,637,491
494,491,491,629,492
494,490,494,584,490
493,491,492,485,492
493,492,492,414,492
493,491,493,375,490
492,491,494,367,489
493,493,493,377,492
493,490,492,392,490
494,493,493,440,491
492,492,492,502,491
494,491,492,570,492
494,491,492,630,492
493,493,492,635,492
493,492,494,620,492
495,491,492,543,491
494,492,493,444,491
493,493,492,397,490
494,493,492,371,490
494,492,493,368,490
492,491,492,380,491
493,493,494,409,492
493,491,492,465,491
493,491,492,526,490
492,491,493,604,491
494,491,491,635,490
493,493,493,629,491
492,493,492,594,491
496,493,492,498,491
495,493,493,419,491
493,491,493,381,490
494,491,491,367,490
495,493,492,373,491
492,492,493,385,489
492,493,494,433,489
492,492,493,494,492
493,491,492,561,490
494,491,494,625,490
494,491,492,635,493
494,491,492,623,492
493,490,492,558,492
493,492,492,456,491
494,492,492,400,490
493,492,492,373,492
495,492,493,370,490
494,493,492,379,490
494,494,492,405,490
494,491,493,457,491
493,491,492,519,490
492,492,494,598,492
492,489,493,633,491
492,492,494,629,490
492,492,494,606,493
496,490,494,509,491
494,492,493,424,492
494,492,491,387,491
495,493,491,369,492
495,491,492,375,492
493,492,493,384,493
493,490,492,427,490
493,492,492,486,491
493,491,493,549,490
492,492,494,620,489
494,493,493,637,491
494,491,494,623,491
495,493,492,572,490
493,492,493,466,492
494,491,491,406,491
493,491,492,372,493
493,491,493,370,491
495,491,493,376,490
493,491,491,401,492
493,492,493,452,490
493,491,492,512,490
494,492,492,588,490
492,491,494,632,492
494,490,492,632,490
494,493,493,613,493
493,491,493,522,491
494,492,493,432,491
493,492,492,393,492
494,492,494,368,490
494,491,493,372,491
494,492,491,384,491
495,491,491,421,491
494,491,492,479,490
493,491,492,542,490
493,492,492,615,492
492,492,492,639,492
493,493,494,626,490
494,493,494,579,490
494,493,493,479,490
494,492,492,410,491
494,492,491,374,490
492,491,492,370,492
493,489,492,376,492
493,491,493,396,491
492,491,492,447,491
494,491,492,504,490
493,491,492,578,489
493,492,493,632,490
494,492,491,634,491
494,492,491,620,490
492,492,495,536,493
494,492,493,439,490
493,491,493,394,491
492,491,493,368,491
493,491,494,371,489
493,492,494,382,490
493,489,492,412,490
494,492,492,471,490
493,490,493,534,492
494,490,491,611,492
494,491,493,636,491
493,492,492,630,492
495,491,494,586,490
496,491,492,490,491
493,492,492,415,491
494,493,492,379,490
493,493,493,369,490
492,491,493,376,492
495,491,494,388,489
492,490,492,439,491
493,491,492,498,491
493,491,492,564,490
491,492,492,631,491
492,492,493,634,491
493,490,493,623,490
494,494,492,549,491
494,492,492,447,491
494,493,492,400,491
494,491,494,369,490
493,490,492,369,491
494,493,492,381,490
492,490,494,405,490
493,492,493,463,490
493,492,494,524,491
492,490,492,604,490
494,493,494,636,490
492,491,493,631,493
494,490,491,598,493
494,491,493,503,492
494,492,492,420,490
493,492,493,383,491
495,492,491,368,490
493,492,493,374,490
494,493,492,386,489
494,493,493,431,490
492,491,492,491,491
494,492,493,556,489
492,490,492,625,492
492,490,493,634,491
492,492,493,623,490
492,492,495,563,493
495,492,493,458,491
494,493,492,403,491
493,493,492,372,490
494,493,491,370,491
494,492,492,379,492
494,492,494,402,490
493,491,492,455,490
493,492,493,517,491
492,491,493,592,490
491,492,494,634,490
494,494,493,632,492
492,491,491,609,491
495,491,494,514,491
494,493,493,427,491
494,491,492,389,493
495,491,491,369,492
493,493,492,375,491
492,491,493,384,491
495,492,494,424,490
492,491,493,483,491
492,492,492,546,490
493,493,493,618,490
494,492,493,635,490
494,491,491,626,489
493,494,494,575,494
493,491,492,469,492
494,491,492,407,491
492,492,494,374,491
495,492,493,367,490
493,491,492,376,492
493,493,493,399,490
494,492,491,449,491
494,491,492,509,491
492,492,494,581,492
493,491,492,633,491
495,493,494,630,491
492,491,494,614,491
492,492,494,527,490
493,492,493,434,491
494,492,492,393,491
493,491,492,368,491
495,492,491,373,492
494,490,491,382,492
494,490,491,415,491
492,491,492,475,490
493,492,492,537,491
491,491,491,615,491
491,492,494,636,490
493,493,492,627,490
494,494,493,583,490
492,492,493,481,491
494,492,492,410,490
493,493,492,377,493
494,490,492,367,492
492,491,492,374,491
492,492,491,395,491
495,491,493,440,491
493,492,492,502,490
493,492,493,573,490
493,493,492,630,492
495,492,491,634,490
493,493,495,620,493
494,490,493,539,491
494,493,492,441,491
493,491,493,395,491
493,491,494,368,490
493,492,494,370,489
494,491,492,381,490
494,493,493,409,490
492,491,492,469,490
493,491,492,530,491
493,490,491,608,491
494,491,493,637,490
494,490,493,627,491
494,492,491,592,490
492,493,494,494,491
493,491,492,416,491
493,493,493,381,492
492,490,492,369,492
495,491,494,374,490
492,490,492,390,493
493,490,492,435,492
493,491,492,495,491
493,492,492,564,491
491,490,494,625,492
494,492,493,636,490
494,493,492,623,491
494,493,491,554,491
494,493,492,451,490
494,493,493,399,490
492,490,491,370,493
492,493,493,369,491
491,491,493,377,491
492,490,493,403,490
493,491,493,459,491
492,491,492,520,490
492,492,491,599,491
492,493,492,637,491
494,491,491,630,492
494,490,491,602,492
495,494,494,507,491
493,491,492,420,490
494,492,492,384,490
492,491,494,367,490
493,492,493,373,490
493,492,492,384,492
491,490,492,430,490
494,491,492,488,491
494,492,492,554,491
493,491,492,623,493
493,491,493,634,491
493,492,494,623,491
495,491,491,566,490
493,492,491,463,491
493,492,493,404,490
494,492,493,370,489
493,492,491,368,490
494,492,493,377,490
494,490,491,401,489
493,492,493,454,491
493,491,492,514,491
492,490,492,587,491
492,490,493,635,491
494,491,493,632,490
494,490,492,610,493
494,494,492,520,491
494,492,492,429,491
494,492,491,391,492
493,492,495,368,492
492,490,492,373,490
494,493,493,382,490
491,491,494,420,490
492,491,493,480,491
493,491,493,543,488
493,490,492,617,492
494,492,491,638,490
493,493,495,627,492
493,491,492,579,493
493,491,492,474,492
493,492,492,409,490
493,494,493,372,491
492,492,491,369,492
492,492,494,377,490
493,493,493,396,489
493,492,492,446,490
492,491,492,506,491
493,491,491,577,489
492,492,491,632,491
492,491,493,632,492
491,490,493,616,492
492,491,491,534,491
493,492,493,438,491
494,491,492,394,490
493,494,494,370,490
494,493,491,373,492
495,491,491,382,491
495,491,491,413,489
492,492,492,473,491
493,492,493,535,490
491,491,493,610,491
491,492,494,636,490
493,493,493,628,490
493,491,492,587,490
494,492,492,485,491
493,492,492,415,490
494,491,492,379,492
495,491,492,368,493
493,491,492,376,489
493,491,493,389,491
495,492,491,440,490
492,491,493,500,490
492,491,493,568,489
492,493,493,628,491
492,491,494,635,491
494,491,494,620,490
492,491,492,546,492
493,491,493,447,491
493,491,492,398,491
493,491,493,368,491
494,491,491,373,490
493,492,494,379,492
493,490,493,409,490
494,492,492,466,490
494,491,492,525,491
494,491,494,603,489
493,491,492,637,492
495,492,491,630,490
492,493,495,594,491
491,492,494,499,491
493,491,492,418,491
493,491,492,384,489
492,493,492,367,491
492,492,491,377,491
493,491,491,388,492
494,490,491,433,491
493,492,493,492,489
493,491,493,558,490
493,492,492,623,489
492,492,494,635,489
493,492,494,624,489
492,493,493,560,490
494,493,492,456,491
493,492,492,402,491
493,492,494,368,491
494,491,492,369,491
492,490,493,378,491
492,491,493,402,490
494,491,492,458,490
493,491,492,520,491
493,493,493,597,490
493,493,492,636,492
494,493,492,631,492
494,493,494,604,489
494,491,492,512,491
493,492,492,423,491
493,491,493,387,490
492,490,493,369,490
492,492,494,373,492
493,491,493,385,489
493,490,492,426,491
494,492,493,484,490
494,492,492,552,491
494,490,491,621,492
494,490,492,635,490
495,493,492,624,490
492,490,491,572,491
496,493,493,465,491
494,492,493,406,490
494,492,493,371,489
495,492,493,367,490
498,492,491,379,490
497,492,494,400,492
497,492,492,452,491
496,492,492,511,491
494,491,493,586,490
497,493,494,632,490
491,490,492,631,492
490,493,492,614,490
493,494,492,525,491
496,493,492,432,490
494,492,493,390,492
493,491,492,368,490
489,492,493,370,490
490,491,493,382,490
491,491,494,418,490
492,491,492,476,490
493,491,492,541,491
493,493,493,616,492
493,491,493,637,491
495,491,491,628,491
495,491,491,583,493
496,492,492,478,491
496,493,492,411,491
495,492,491,376,490
494,492,494,366,489
496,494,495,377,490
496,492,492,394,489
498,491,493,443,490
499,492,492,504,490
494,491,492,575,491
489,490,492,631,491
489,491,493,632,491
489,491,491,620,491
493,492,495,537,490
493,492,491,440,491
493,493,492,395,490
494,494,493,370,490
494,492,491,372,491
494,491,491,380,490
492,492,491,413,492
491,492,492,468,490
492,491,492,531,490
491,490,493,607,491
492,492,494,636,490
494,491,492,629,490
494,493,494,589,493
493,491,492,491,490
492,492,492,416,491
491,491,492,381,492
494,490,494,367,489
493,492,493,375,491
495,492,491,391,490
496,492,494,436,490
496,491,493,499,491
498,493,493,565,492
497,491,493,629,491
497,493,494,634,490
496,492,492,622,492
499,493,492,552,492
501,493,493,451,491
500,492,492,399,491
498,494,492,370,491
493,491,494,370,492
487,489,493,378,490
487,493,493,406,490
490,491,492,461,490
491,491,492,521,490
491,492,491,603,491
494,492,493,634,492
493,491,493,628,491
491,491,493,598,491
492,491,493,504,491
495,493,492,420,490
494,492,492,385,492
497,494,493,368,490
499,493,492,375,491
498,492,492,387,492
495,492,494,428,490
492,491,492,490,491
490,491,492,553,491
489,490,493,621,490
492,492,494,635,490
493,493,494,624,490
493,493,492,564,492
493,493,493,461,491
498,492,492,404,491
501,492,492,372,492
504,492,493,370,492
504,491,493,378,491
505,494,492,401,491
495,491,492,456,490
493,492,493,514,490
486,493,494,591,489
484,492,492,635,490
491,491,494,629,490
495,492,491,612,490
492,493,494,517,492
492,493,493,427,492
492,492,492,390,492
492,490,492,370,491
491,491,493,372,489
491,490,491,385,493
492,491,492,423,490
491,492,493,481,491
492,491,492,547,491
494,491,492,619,491
493,492,493,637,492
495,490,494,625,490
497,491,492,576,492
501,493,493,473,492
503,493,493,410,492
503,495,493,374,489
502,493,494,368,491
500,492,491,376,489
494,493,495,396,488
487,492,493,448,490
482,489,491,508,491
486,488,491,581,489
490,489,493,631,490
493,490,491,632,491
493,490,492,616,492
493,490,492,530,492
492,492,492,434,491
493,492,493,394,492
498,492,494,367,489
498,493,493,371,489
500,493,493,383,489
499,494,492,417,490
499,491,492,472,491
494,492,492,537,490
486,490,494,613,491
491,491,493,636,491
496,491,494,626,492
496,491,493,585,491
496,493,493,482,492
489,491,491,413,491
488,492,493,374,489
489,491,494,368,489
491,493,493,377,490
493,491,493,390,489
495,493,491,441,490
492,490,493,501,490
495,490,492,571,490
496,491,492,631,490
496,490,492,633,491
491,491,494,618,491
491,492,492,544,491
492,492,493,442,491
495,493,493,397,489
497,493,495,369,489
499,493,492,369,489
501,492,492,382,492
500,491,494,408,490
497,492,492,468,490
498,492,492,528,491
490,490,493,606,492
485,491,492,636,490
489,492,495,631,492
493,490,494,591,489
494,493,494,496,491
495,494,494,418,491
500,495,493,382,493
505,497,494,369,491
508,494,495,376,492
515,494,493,390,492
507,492,492,436,491
496,493,492,494,490
492,493,492,560,491
492,491,493,627,491
493,491,493,634,489
499,492,493,621,489
482,492,494,556,490
485,492,493,453,492
490,491,492,400,490
494,493,491,369,492
490,491,491,370,492
499,491,492,379,492
504,492,492,405,492
503,492,493,459,490
504,494,493,520,490
500,492,492,600,489
483,489,493,633,490
475,491,492,630,490
478,490,492,603,492
484,490,492,509,491
492,492,492,422,491
494,491,490,385,492
499,493,491,368,491
499,493,492,373,492
499,495,492,384,490
498,493,493,426,491
496,493,492,485,491
496,490,492,550,489
488,490,493,618,489
485,491,492,635,490
491,493,494,622,490
496,494,494,571,492
500,494,495,464,492
497,494,493,406,491
494,492,494,371,493
487,491,493,368,492
487,492,492,377,489
488,493,492,402,493
489,492,493,452,490
492,492,494,512,490
495,493,493,590,490
499,492,495,632,490
500,491,493,632,490
500,493,492,612,493
503,492,494,521,492
503,493,494,432,492
504,494,495,393,492
501,491,495,368,490
492,490,493,373,492
492,492,492,384,491
490,491,491,421,490
479,490,492,479,490
477,489,492,542,491
484,491,493,616,492
486,491,492,638,493
490,492,494,625,493
489,492,495,578,492
491,493,494,477,491
495,493,492,411,489
497,495,494,376,489
497,493,495,370,492
502,493,493,377,493
497,493,493,395,492
491,491,493,445,488
487,490,492,505,488
483,491,492,579,491
486,491,494,631,489
490,494,493,633,492
495,494,492,620,491
497,492,494,534,493
496,497,493,437,495
495,492,493,394,496
494,490,492,368,495
488,491,494,369,491
492,493,494,381,492
502,496,491,415,491
502,494,495,471,490
506,493,493,535,490
504,495,492,610,489
493,491,491,637,491
484,490,492,627,489
498,493,492,588,493
495,493,493,488,491
492,493,493,412,491
488,494,494,376,491
481,491,494,368,491
479,489,492,374,492
487,492,492,389,493
486,490,491,440,495
489,492,492,499,497
490,491,492,568,497
491,490,494,628,493
493,492,493,633,491
493,493,492,623,488
491,493,495,546,491
494,494,493,448,493
492,493,493,399,493
494,494,492,369,494
497,493,491,370,492
500,493,494,380,490
500,492,491,407,490
490,491,492,463,489
481,490,492,523,491
487,490,491,604,490
490,491,494,637,496
492,490,493,631,499
493,494,493,596,501
489,494,493,502,500
491,493,493,419,495
493,492,492,383,492
497,493,495,368,486
498,491,493,372,485
493,492,494,385,488
488,492,494,432,490
494,493,493,491,489
495,494,493,559,492
501,494,493,627,492
502,494,492,636,494
496,493,492,625,495
496,492,493,564,495
495,495,494,457,493
503,495,494,405,489
503,495,494,369,488
491,492,494,369,491
484,494,494,380,491
486,492,491,403,492
483,491,492,457,489
484,491,493,518,489
490,491,491,596,489
493,492,492,636,491
492,491,493,630,491
489,492,491,605,491
487,493,492,515,491
492,494,493,425,492
493,494,493,388,490
496,496,495,370,489
498,493,494,373,489
492,491,491,384,489
490,492,494,427,491
499,491,491,484,491
498,493,492,548,492
500,493,494,619,493
501,495,494,638,493
494,495,494,627,491
496,491,493,573,490
482,492,492,468,489
492,493,492,408,490
492,492,492,374,489
484,491,493,367,491
491,491,492,378,491
492,491,493,397,490
494,492,493,449,490
495,492,493,510,490
486,491,492,584,492
485,494,493,634,491
488,493,494,634,493
490,492,492,617,494
490,492,492,528,492
489,492,493,434,488
491,492,493,391,491
492,493,492,371,494
489,492,493,373,493
490,494,493,383,492
495,497,493,419,492
499,495,494,477,493
499,493,495,540,491
500,492,496,615,489
494,489,493,636,492
492,491,494,627,491
497,491,495,583,490
499,492,493,483,490
488,492,493,411,491
471,489,493,377,490
488,494,492,370,491
496,494,491,378,492
496,494,492,393,490
495,495,492,444,491
485,493,492,503,490
486,489,492,573,490
494,490,494,631,489
499,493,494,634,489
497,492,493,621,489
500,495,494,538,492
490,492,493,443,491
483,492,492,397,491
490,490,491,370,492
486,490,492,370,492
487,492,492,381,490
491,491,493,408,489
489,492,492,468,489
492,491,494,529,490
497,494,494,607,493
499,493,492,636,494
497,493,492,629,494
503,496,497,591,491
503,495,494,494,492
501,494,493,416,492
483,493,493,379,492
490,492,492,368,491
486,490,493,375,491
487,491,493,388,489
491,493,492,435,490
491,492,492,494,490
484,492,493,562,491
490,492,491,629,492
498,494,494,635,492
512,494,495,623,492
515,496,495,553,492
508,498,494,452,491
485,490,493,400,491
477,489,493,368,489
481,491,493,369,492
490,494,492,380,491
500,494,491,407,491
495,492,492,461,489
486,490,493,520,489
496,490,492,601,487
495,492,493,635,490
493,492,494,629,490
487,493,494,599,490
478,493,492,507,494
479,492,492,420,493
485,491,493,384,494
495,493,491,369,495
494,492,492,374,495
495,493,493,385,492
496,494,492,428,491
491,490,493,487,489
492,492,493,554,487
499,493,494,622,488
499,494,492,635,488
493,493,492,625,489
488,491,494,565,492
489,494,493,461,494
496,494,493,406,495
501,492,492,370,494
489,491,493,367,493
484,491,492,380,493
498,493,494,400,490
500,491,492,455,491
486,491,493,514,491
494,493,492,592,490
499,494,492,635,490
494,493,494,630,492
472,490,492,610,489
491,491,493,518,491
496,491,492,428,492
487,492,493,388,490
488,491,492,371,492
489,493,492,373,493
487,492,492,385,492
492,493,491,424,492
503,493,492,480,490
511,493,493,545,491
517,493,495,618,490
496,491,493,634,494
482,492,491,627,494
470,491,494,576,494
479,492,492,472,494
486,492,493,410,491
492,490,493,374,488
504,494,494,367,487
512,495,493,380,491
518,495,493,398,492
514,493,494,447,490
484,492,493,507,489
471,491,493,578,491
483,490,492,634,490
487,493,493,635,491
487,492,492,619,491
487,493,491,531,492
498,493,493,436,493
506,494,494,394,492
503,494,493,371,493
505,491,494,370,490
467,489,493,379,491
465,490,494,413,492
485,489,491,472,491
489,491,491,535,493
486,491,492,614,494
489,491,491,637,492
489,490,492,628,491
491,493,496,586,489
497,492,493,486,492
502,494,493,415,493
508,495,495,379,492
506,494,494,369,493
501,496,494,376,496
483,492,493,393,493
480,491,494,440,492
481,490,493,503,494
494,490,491,571,495
503,491,492,630,492
504,494,492,637,492
505,494,494,622,494
501,493,495,545,492
480,492,493,447,492
488,492,493,398,489
491,492,491,370,486
493,491,494,370,487
497,491,492,379,489
483,494,493,409,490
478,490,492,465,490
480,490,491,525,489
486,490,493,607,491
491,490,493,636,490
491,491,493,629,491
491,492,493,596,491
492,493,493,499,491
494,493,494,419,490
497,494,495,383,493
499,493,493,368,490
507,495,494,375,489
507,493,494,387,490
492,492,494,433,491
488,491,492,494,492
498,491,492,561,491
483,489,493,623,492
495,492,493,637,492
503,493,494,624,492
500,493,493,559,492
497,494,493,456,491
483,491,493,401,494
475,490,490,370,498
472,490,491,369,496
487,491,490,378,497
490,493,490,403,492
492,491,492,457,490
497,492,492,516,487
500,493,493,596,489
485,489,494,634,489
484,491,495,628,489
488,492,491,607,490
490,492,494,511,490
490,492,492,423,490
493,492,492,388,491
496,492,492,369,491
507,492,493,374,490
516,496,495,386,494
517,494,494,428,490
499,493,493,485,490
472,489,493,549,489
461,487,493,619,489
487,491,492,637,490
493,491,494,625,493
501,494,492,570,494
501,496,494,468,495
506,495,493,407,495
489,491,491,370,497
481,489,491,369,495
479,490,492,376,491
487,489,490,400,491
489,491,493,451,493
490,491,492,511,490
492,491,491,586,488
492,490,494,635,490
494,490,493,632,488
493,492,494,614,491
497,494,495,525,492
512,495,495,433,492
519,496,494,394,491
502,495,495,370,491
494,489,493,373,490
476,489,491,383,490
478,490,490,420,491
484,490,491,476,491
483,491,493,541,491
483,490,494,614,494
491,493,493,638,491
484,493,494,628,490
487,492,494,580,490
490,493,492,478,491
493,491,492,412,492
498,491,494,373,492
500,493,493,370,493
507,492,493,377,493
502,491,493,393,494
490,494,492,446,492
494,490,492,505,491
488,488,491,575,489
488,491,494,632,489
499,493,492,634,491
494,491,491,617,491
489,491,492,538,493
478,490,493,440,493
492,493,493,395,492
496,492,492,368,491
485,491,493,369,488
485,491,493,379,490
483,489,491,413,488
488,490,491,469,490
489,492,493,533,491
492,492,491,612,492
498,493,493,637,492
505,494,494,631,491
501,491,494,589,491
514,493,494,490,492
489,493,494,415,492
491,495,494,380,491
495,496,495,367,491
497,491,492,377,490
491,489,493,386,488
482,489,491,438,490
485,491,490,497,491
488,487,492,563,493
482,491,492,629,493
488,492,494,635,496
494,491,493,622,492
500,494,494,551,492
489,492,493,448,492
483,492,492,399,490
495,492,494,368,488
493,491,492,370,488
495,493,493,379,490
491,491,494,406,490
493,494,494,463,491
499,494,494,525,491
502,490,494,603,490
475,487,492,634,491
480,491,491,632,491
491,490,491,601,490
495,490,492,504,490
495,493,493,419,492
495,493,493,384,491
504,494,493,366,490
492,492,494,374,490
493,492,493,386,490
484,493,492,430,492
486,492,493,490,491
496,492,493,556,492
511,495,493,627,493
512,494,494,637,494
507,493,493,624,491
490,489,491,563,490
455,489,492,457,490
478,490,491,402,491
484,491,494,370,491
493,492,492,370,495
499,493,492,379,496
499,493,494,401,496
499,491,492,454,495
482,490,493,516,494
487,491,493,592,491
496,491,494,634,491
494,495,492,632,493
501,496,496,610,491
508,493,494,516,490
491,495,492,427,487
490,493,493,390,489
498,491,491,370,488
487,492,493,373,490
484,489,492,384,489
481,490,493,422,489
489,490,492,482,490
486,489,492,547,489
489,491,493,617,488
491,491,493,636,491
494,491,491,625,493
494,492,492,577,495
492,493,494,472,493
500,494,492,409,491
502,493,492,373,489
508,491,494,367,487
484,488,491,376,487
477,490,494,397,489
499,493,492,451,493
508,493,493,509,495
507,494,495,584,495
482,491,494,632,493
481,492,493,631,494
490,491,495,616,493
488,490,494,529,491
485,491,492,434,487
488,491,493,393,488
485,490,490,368,487
488,491,492,373,490
496,492,492,383,492
502,493,492,418,492
518,495,495,474,491
514,494,494,538,492
510,493,492,614,490
487,491,493,635,490
471,489,492,627,490
475,492,492,582,492
472,490,492,483,489
484,491,492,412,491
489,491,491,377,495
492,492,492,367,494
493,491,492,376,492
500,492,491,393,489
500,492,494,442,491
505,494,494,501,489
484,493,493,571,488
501,494,494,631,491
504,492,492,632,489
496,492,492,621,492
494,493,495,541,491
487,491,492,441,491
480,490,492,395,491
478,489,492,368,491
487,490,493,369,493
492,490,492,382,491
493,493,491,409,493
493,492,492,467,491
489,492,493,529,491
483,489,491,607,491
489,492,492,636,488
488,491,494,628,490
493,493,493,590,490
500,495,496,496,490
511,493,495,418,489
515,494,493,381,492
500,491,492,369,491
490,491,494,373,490
481,491,492,388,492
491,490,493,435,493
486,490,492,494,495
480,490,491,561,492
481,490,494,629,494
494,490,493,635,491
501,495,493,625,492
507,498,494,558,493
509,496,495,454,494
515,495,495,401,490
503,493,493,371,489
482,491,493,367,490
471,487,492,376,489
461,487,492,402,487
478,490,492,460,490
490,490,493,520,489
488,488,491,599,491
491,493,492,637,490
492,492,491,632,492
495,492,492,605,493
496,495,494,508,491
496,493,492,421,491
485,492,493,384,494
488,490,493,367,492
489,491,494,374,491
489,491,492,384,492
495,493,492,430,490
509,492,494,489,490
522,495,493,554,491
524,495,494,624,493
500,493,495,634,491
453,490,493,625,492
479,491,495,567,490
480,488,491,463,492
485,491,492,405,491
490,492,492,372,491
489,493,491,370,495
490,493,494,376,494
499,490,490,400,491
494,492,491,452,494
494,492,492,513,491
492,491,493,587,491
487,491,491,635,493
497,494,494,632,491
499,490,494,612,490
481,491,493,521,489
484,494,494,430,492
502,494,493,393,491
503,495,496,370,493
511,494,495,374,489
497,491,494,381,487
476,489,494,419,488
484,490,493,479,489
479,491,492,543,489
484,489,492,615,489
488,491,491,637,490
491,492,492,627,493
493,491,493,581,492
497,492,494,478,491
512,494,494,412,491
503,496,496,374,490
501,497,493,370,489
479,491,492,375,488
473,489,491,397,488
491,490,491,447,490
493,490,491,506,490
489,490,492,578,492
487,490,491,631,494
490,492,493,632,491
498,493,495,619,489
509,494,493,537,492
523,500,497,440,491
520,496,496,396,490
491,494,492,369,490
478,489,490,370,491
459,486,490,381,493
483,488,492,413,494
486,489,491,470,494
485,491,492,534,491
485,491,493,609,487
487,491,493,637,488
492,493,492,630,490
491,491,494,588,490
495,492,494,487,490
492,491,492,414,491
490,491,492,377,492
491,491,493,367,491
489,491,491,376,491
494,492,495,389,492
497,490,492,440,490
498,492,492,499,490
493,493,492,567,490
492,492,493,627,489
489,492,492,634,492
490,493,494,623,490
493,491,493,546,493
496,494,494,448,493
507,494,494,400,491
504,492,494,369,492
489,489,492,370,489
477,491,492,378,490
476,489,490,408,490
486,491,492,464,489
489,491,492,525,490
491,492,493,603,490
490,490,494,635,491
491,490,492,629,490
491,493,495,595,491
490,493,494,501,492
490,494,493,419,493
493,491,492,384,490
498,491,495,367,487
499,491,493,375,490
506,492,494,386,492
502,492,494,432,491
492,492,492,491,489
487,492,493,559,491
480,489,494,624,491
494,492,492,636,492
488,490,491,624,494
486,492,492,564,492
500,493,493,456,491
508,494,493,403,489
501,495,494,369,489
493,491,493,366,489
480,490,493,377,489
483,490,494,403,491
487,490,492,456,489
495,492,492,519,491
503,491,492,596,490
491,492,493,635,492
492,492,493,631,495
491,492,492,607,495
484,491,493,514,493
502,493,492,425,492
496,491,492,385,490
478,491,494,367,489
489,492,493,372,490
492,491,491,384,489
492,490,494,425,491
493,491,492,483,491
488,490,492,549,493
489,491,493,620,494
499,492,494,639,492
510,491,494,625,487
499,491,492,575,491
481,492,493,466,489
474,491,492,406,489
486,491,491,373,490
487,490,494,367,491
489,490,492,378,490
490,492,492,397,493
488,490,492,449,493
489,491,493,510,495
491,491,492,586,496
494,493,493,634,493
492,491,494,632,496
494,491,491,617,492
498,493,492,527,487
504,494,494,433,486
512,494,494,392,490
515,494,495,370,489
515,497,496,372,488
489,492,494,381,488
482,491,493,416,488
477,488,490,474,489
470,486,490,537,489
483,489,490,613,489
490,491,492,637,491
494,490,492,627,492
497,491,493,583,493
492,492,492,481,492
483,491,492,411,492
484,491,492,377,491
487,491,492,368,490
493,491,491,377,489
491,491,492,394,488
491,491,493,443,488
498,492,493,503,489
500,492,493,574,491
498,491,493,630,489
488,492,494,633,489
494,490,492,622,492
493,493,494,539,491
494,492,493,442,491
501,493,493,397,491
503,494,492,371,491
507,493,493,371,491
481,489,492,380,489
466,487,492,408,490
484,491,493,469,491
484,491,493,529,489
480,491,493,607,490
500,492,492,638,491
504,490,494,630,491
508,493,494,589,489
499,491,491,493,491
475,490,492,415,491
481,491,492,379,494
489,493,492,368,494
493,492,493,372,494
490,491,492,388,490
491,492,493,436,488
489,491,492,496,488
488,491,492,562,488
488,490,491,629,491
492,492,494,635,489
490,490,493,622,490
491,490,493,551,490
493,492,492,451,490
492,492,493,401,492
494,491,491,368,490
492,492,493,370,491
497,492,492,381,491
502,494,492,408,494
502,493,493,462,493
494,491,493,522,490
491,490,492,600,489
502,493,492,636,489
502,493,494,630,487
491,492,494,599,486
479,493,494,507,491
483,487,492,420,489
484,490,493,384,491
489,492,491,369,491
487,490,493,374,491
490,490,492,385,492
494,493,492,431,491
495,491,492,489,491
497,492,494,556,489
489,491,494,623,489
488,492,493,636,491
491,493,492,626,491
492,491,494,565,491
497,493,493,463,491
509,495,495,407,492
514,495,495,372,494
509,494,494,368,489
492,491,493,379,490
464,487,493,398,488
478,488,491,456,491
486,490,492,515,489
491,492,492,591,489
493,493,491,635,490
490,492,494,631,492
488,488,491,609,490
491,493,493,518,493
491,491,492,428,493
489,491,493,388,491
492,491,492,371,492
497,492,492,373,490
493,491,492,382,489
495,492,491,423,489
492,491,492,480,489
494,492,491,544,490
494,490,491,617,488
490,492,492,635,489
495,493,492,628,492
498,493,496,576,490
508,496,496,474,491
506,496,497,410,490
498,492,494,374,489
483,491,491,365,489
473,490,490,378,491
489,489,489,397,493
490,488,491,446,491
487,490,493,508,490
489,490,493,579,490
491,491,491,633,490
488,492,493,634,489
489,492,492,617,489
492,493,492,532,490
491,491,493,436,491
492,492,494,392,490
491,491,491,370,491
491,490,493,370,490
491,491,493,380,490
490,491,495,414,488
492,490,492,475,490
492,492,493,536,491
491,491,492,614,490
494,492,492,638,492
503,492,493,629,492
513,493,497,587,490
516,495,495,487,493
507,495,494,414,490
475,490,493,375,489
469,488,493,366,487
486,491,492,375,490
485,489,492,392,487
487,492,492,439,486
487,491,493,501,486
491,489,491,570,489
491,489,491,629,491
491,493,492,635,490
492,492,493,620,490
497,493,492,543,492
498,494,494,446,493
489,492,492,397,492
489,493,493,369,491
491,491,493,369,490
488,490,491,380,491
492,493,495,408,491
493,491,492,466,491
496,492,492,525,490
495,492,494,604,491
488,491,492,636,490
492,492,494,628,492
494,492,493,596,491
500,493,493,498,491
493,493,494,418,491
492,493,493,382,489
497,490,491,367,489
497,493,493,374,490
491,491,494,386,489
487,490,493,433,490
490,489,492,494,491
495,489,493,561,491
491,489,492,625,492
488,492,492,637,492
494,490,491,624,493
493,492,491,559,492
488,491,492,455,492
482,491,492,400,492
490,491,491,370,492
495,491,494,369,491
495,492,493,379,490
497,494,493,403,489
499,491,494,459,489
501,492,493,520,489
507,495,495,600,491
513,494,495,637,490
506,492,493,629,490
480,490,493,605,491
470,491,493,510,492
497,493,493,423,492
500,494,495,388,489
502,494,494,369,487
481,490,491,372,487
466,489,493,384,489
490,490,491,425,488
494,492,491,486,490
493,491,491,550,491
481,490,491,619,491
486,491,491,634,489
490,490,491,626,491
493,492,493,570,492
493,491,493,467,490
493,492,494,407,491
495,491,491,372,492
495,491,492,368,490
492,493,493,376,492
492,493,492,401,490
494,492,493,452,490
500,493,493,512,490
498,493,494,586,489
495,492,493,633,491
489,491,491,630,490
484,492,492,616,493
492,492,492,525,493
497,493,492,431,492
499,494,493,391,490
498,492,493,368,490
496,493,492,372,488
492,492,495,383,488
488,492,494,419,489
488,492,493,476,490
489,492,492,541,489
489,489,492,617,490
492,491,494,635,490
490,490,493,628,492
490,489,492,581,493
494,491,493,478,492
498,492,493,412,490
495,491,494,375,492
490,491,494,367,489
486,493,492,377,490
493,491,491,395,490
496,491,494,443,489
496,492,493,505,491
492,492,493,575,491
493,491,492,631,490
492,492,494,632,490
495,493,494,618,492
500,492,492,537,490
496,493,492,438,491
490,493,492,395,490
491,492,492,370,491
492,490,492,371,492
492,490,492,379,491
493,493,493,412,491
491,493,492,469,490
490,498,493,531,490
492,498,494,608,490
495,499,493,637,490
498,498,494,627,490
494,497,494,591,491
500,493,494,489,491
502,492,493,416,491
490,492,492,379,492
490,491,491,365,490
487,487,493,374,490
488,489,491,391,491
498,494,494,437,489
499,492,493,499,490
504,491,493,565,490
506,490,494,627,490
504,494,492,636,490
487,496,493,620,493
482,491,494,549,491
494,491,494,450,491
493,490,492,398,490
484,492,491,372,491
491,494,493,370,490
497,495,492,378,490
500,500,492,409,490
501,499,492,462,490
497,501,492,523,490
492,498,494,603,492
493,488,492,635,491
491,494,493,629,490
492,493,494,597,491
492,489,494,503,491
484,497,492,420,491
484,495,493,385,493
490,497,492,368,491
494,499,492,375,492
492,497,492,386,493
492,493,492,430,491
492,492,493,491,491
492,490,492,557,491
490,488,494,622,489
492,487,494,635,490
491,484,493,624,491
494,489,492,564,491
492,490,492,460,491
492,488,492,402,490
492,489,491,371,492
492,492,491,369,492
491,494,493,376,491
492,496,492,404,490
491,492,493,455,490
494,484,492,515,489
495,490,495,593,489
497,493,493,636,490
497,492,492,629,490
492,494,492,612,492
495,494,495,515,492
499,497,493,427,492
498,497,493,388,492
489,491,493,367,491
497,489,492,374,489
493,489,494,384,492
490,482,492,424,490
489,488,493,483,490
488,492,492,548,491
491,492,491,620,491
492,497,493,637,490
490,494,494,625,492
495,498,491,573,491
494,496,493,470,491
494,488,493,408,491
495,492,493,373,493
497,491,493,370,491
500,493,494,376,490
501,498,491,400,493
504,494,493,450,491
502,494,493,509,491
491,489,492,582,490
484,487,494,634,492
486,489,493,631,489
485,493,493,616,489
480,493,492,530,491
492,492,492,434,491
492,491,493,394,491
492,489,494,367,491
495,488,492,371,491
493,492,492,382,491
495,490,493,415,490
491,492,492,475,490
485,493,494,538,490
487,490,492,613,492
490,494,493,639,491
491,495,492,630,492
496,494,492,586,493
495,499,494,484,492
495,499,493,412,491
496,500,493,375,491
495,497,494,368,489
502,489,495,377,490
503,495,492,394,492
506,499,494,444,490
503,498,493,502,490
500,499,492,574,491
506,498,491,631,491
492,484,491,632,489
483,484,491,618,491
481,486,492,542,491
489,485,493,442,490
489,487,494,396,489
488,490,494,369,489
491,490,491,371,490
488,489,493,378,491
489,490,491,408,490
489,491,492,468,490
491,489,493,529,491
491,489,493,607,492
492,489,492,637,492
493,493,495,629,490
492,490,492,593,490
493,493,493,496,490
494,493,494,418,490
496,491,493,383,490
497,492,494,368,492
497,491,493,376,490
498,492,493,386,491
489,490,492,434,490
476,490,492,494,491
481,490,491,562,491
488,492,495,626,492
492,490,492,636,490
496,495,492,624,490
498,498,492,557,491
498,496,493,454,492
498,499,494,400,491
497,504,493,371,494
497,513,493,370,492
495,514,494,378,491
495,503,495,404,490
492,481,493,458,491
494,474,493,520,489
492,483,492,598,490
490,485,492,637,491
491,486,492,632,492
491,487,492,604,493
490,490,492,507,490
489,490,493,421,490
494,493,491,384,489
495,495,494,368,489
496,496,493,375,490
496,495,492,384,492
495,493,491,429,490
496,494,492,487,490
493,485,492,552,491
490,489,491,622,491
490,491,494,635,490
489,489,495,622,490
494,493,493,568,490
493,495,493,465,491
493,490,494,404,490
493,499,493,372,490
494,502,492,370,492
495,502,494,376,489
494,495,492,402,489
494,504,493,453,491
495,489,494,513,490
492,492,495,588,490
491,491,495,635,492
495,492,493,633,491
497,494,494,612,492
497,479,492,521,491
495,484,493,430,490
495,487,492,392,492
491,491,494,367,491
491,494,493,375,490
497,490,494,382,489
495,489,494,420,489
493,489,494,479,490
492,490,493,544,489
493,482,492,616,491
492,490,492,638,490
486,492,493,627,492
492,488,492,580,493
495,488,494,477,492
495,491,493,410,491
496,502,494,373,491
493,505,492,370,494
493,512,494,377,491
494,527,494,398,492
495,527,493,448,492
493,520,494,506,492
495,528,494,580,491
497,523,494,634,494
500,526,494,632,490
496,483,494,618,488
492,471,490,534,491
494,472,493,438,490
495,489,492,395,490
496,492,493,369,489
495,473,491,372,490
496,483,493,383,491
498,477,492,413,489
495,481,492,473,491
495,480,493,534,490
491,480,493,609,488
489,474,493,637,488
491,497,494,629,489
492,496,492,588,489
494,500,493,488,492
496,508,492,415,491
498,514,492,380,492
499,502,493,369,492
496,490,492,376,490
495,488,493,388,491
493,483,492,439,489
488,476,492,499,489
492,483,494,567,489
492,490,494,630,491
493,492,494,636,491
496,497,495,622,490
493,499,491,548,492
494,502,492,446,491
494,499,492,399,491
493,500,493,369,493
495,484,491,370,490
492,480,494,380,492
493,481,493,407,490
494,490,493,464,490
493,494,492,526,490
494,496,493,602,489
493,497,492,637,491
494,494,493,631,491
493,483,493,594,491
492,491,493,501,490
495,494,493,419,490
494,498,492,382,489
494,501,492,369,491
493,483,491,375,490
495,489,491,388,492
496,491,492,433,492
494,491,493,491,491
494,491,493,557,490
495,492,492,624,491
493,492,493,634,489
495,494,494,624,489
494,495,495,561,491
495,495,492,457,492
495,494,492,402,491
494,493,494,368,491
496,493,491,369,491
494,491,492,378,491
493,491,492,403,491
495,493,492,456,493
494,492,492,518,494
494,492,495,594,490
493,494,493,634,488
494,493,492,632,487
495,491,494,604,488
496,493,493,514,490
494,493,493,427,492
495,492,492,387,492
494,492,493,368,491
492,493,493,375,491
495,492,493,383,489
493,492,492,426,490
493,493,493,484,490
494,494,492,549,490
495,494,491,621,492
494,493,492,636,490
495,494,493,624,491
494,491,493,574,491
495,491,493,466,491
494,492,493,406,489
494,493,495,371,489
492,491,491,368,491
494,494,493,378,491
492,491,493,400,491
495,492,491,451,490
494,492,493,511,491
494,492,492,584,488
493,494,492,632,489
494,493,492,633,491
493,494,494,613,491
493,494,494,526,491
495,493,493,434,490
494,492,492,392,490
495,494,492,368,489
493,493,491,373,489
494,491,491,382,490
494,492,492,417,491
493,492,492,477,495
493,492,491,541,497
492,492,494,614,497
494,492,493,638,495
495,494,492,628,493
496,494,492,583,486
495,493,493,479,483
494,493,492,411,488
495,494,493,375,487
494,490,493,366,488
493,491,493,375,488
493,492,494,393,488
495,489,492,444,488
493,494,493,504,489
493,492,492,576,489
495,492,491,631,490
495,492,491,634,491
494,491,493,621,489
494,492,493,538,491
495,495,493,442,490
494,492,493,395,490
494,493,494,368,489
494,494,493,372,489
494,493,492,380,491
491,492,491,413,490
495,492,493,468,490
494,491,491,531,491
494,491,492,608,491
494,492,494,637,490
495,491,491,630,489
494,492,495,591,492
495,492,493,492,490
494,494,492,415,490
495,493,492,380,489
495,494,493,366,489
493,491,491,375,491
494,493,493,388,492
493,491,492,436,490
494,491,492,495,490
493,492,493,562,490
495,491,491,626,489
494,493,493,634,491
494,492,492,624,491
496,493,492,553,491
496,493,493,450,490
494,493,492,401,492
494,493,494,368,492
495,492,493,371,490
496,492,493,378,489
494,490,494,403,489
494,491,494,461,489
494,492,492,523,490
494,493,492,602,489
493,491,494,636,491
495,491,492,631,492
495,491,492,601,491
494,491,493,506,490
495,492,493,419,490
495,492,491,386,491
496,492,494,367,489
494,492,492,373,488
495,493,492,385,489
495,491,493,428,490
495,493,492,488,489
494,492,493,556,491
494,490,492,623,491
493,491,493,634,490
493,492,493,623,489
493,491,491,569,492
496,492,493,460,490
495,492,492,404,490
495,493,492,370,489
496,492,491,368,491
496,491,492,379,489
494,492,494,401,491
494,490,492,454,489
494,491,492,514,490
493,492,493,588,489
493,492,494,634,489
495,491,493,632,492
496,493,491,611,491
494,492,494,520,491
496,493,492,428,490
496,491,492,390,492
495,491,491,369,490
495,494,493,371,490
494,493,491,384,491
493,493,494,423,489
494,493,493,480,490
494,492,492,546,489
495,492,493,618,491
493,490,493,637,491
495,490,494,626,489
494,490,492,577,493
495,491,492,472,491
495,492,493,409,490
494,492,492,375,491
494,491,493,367,491
494,491,493,378,490
495,493,491,398,490
496,492,491,447,490
495,492,492,507,489
494,492,492,580,491
494,494,493,633,491
493,492,494,632,490
494,492,494,617,490
495,493,495,531,491
496,492,492,437,491
495,492,492,392,490
494,492,492,371,490
496,491,491,372,491
496,490,491,380,491
495,490,492,414,490
493,492,493,473,489
494,490,492,535,490
495,491,491,612,489
494,492,493,637,490
496,493,492,628,490
496,493,492,584,491
494,491,492,484,490
496,493,493,413,490
495,491,492,377,492
496,490,492,366,490
494,492,493,375,489
496,491,491,393,489
493,492,493,440,491
495,491,493,503,489
495,491,492,571,490
496,492,491,630,491
496,492,494,634,490
495,491,493,619,493
496,494,493,544,490
495,492,493,444,490
494,491,493,397,490
495,492,494,367,489
494,493,493,370,491
494,491,492,381,490
496,491,494,407,489
495,491,492,467,490
494,491,492,527,491
495,491,492,605,491
494,492,492,638,490
494,491,494,629,491
496,491,495,592,489
495,493,493,498,490
496,492,492,417,490
495,494,493,381,491
495,494,491,368,491
495,493,493,374,491
495,490,492,387,492
494,488,492,432,490
494,490,492,494,490
495,490,492,560,489
494,492,491,627,491
495,493,493,637,491
496,492,491,624,492
497,492,491,558,492
496,492,492,456,491
495,491,493,401,491
495,489,492,369,488
494,492,494,368,489
494,492,493,377,489
495,493,494,402,488
494,492,492,460,491
495,492,492,519,489
494,491,492,596,489
496,491,492,636,491
495,490,491,631,491
495,490,492,605,489
496,493,493,510,491
496,492,492,423,489
496,492,493,386,490
494,492,494,368,490
495,493,492,374,489
496,491,494,384,491
496,492,491,429,489
494,491,493,486,490
495,490,492,552,491
494,489,492,621,491
494,491,493,635,490
494,493,492,628,492
496,493,495,570,489
496,491,492,467,491
495,493,493,407,491
496,492,492,372,490
497,492,491,369,489
495,492,493,378,492
495,490,493,398,489
495,491,492,452,490
495,490,492,511,490
494,490,493,584,489
494,491,491,635,491
495,492,493,633,491
494,491,493,615,490
497,493,492,525,491
497,492,492,431,491
496,491,492,391,490
495,493,491,369,491
494,493,491,372,491
494,492,493,382,489
494,491,494,419,489
494,491,493,476,490
495,492,492,542,490
494,490,493,618,491
496,491,494,636,489
496,490,493,627,492
494,490,492,580,492
495,491,493,477,491
496,492,492,412,490
495,492,493,374,491
497,491,492,368,489
496,493,493,378,490
496,492,491,395,489
497,492,491,443,490
494,491,492,505,490
495,492,492,575,488
494,490,492,631,490
494,492,493,632,489
494,492,495,617,489
497,492,492,538,490
496,492,493,438,491
496,492,492,395,490
496,493,492,371,490
496,491,491,371,492
496,490,492,380,491
495,494,493,413,489
494,491,492,469,490
495,492,492,532,489
494,491,494,609,489
494,492,493,637,490
496,493,492,628,491
494,491,492,590,491
498,492,493,488,490
497,492,492,416,491
495,491,492,379,492
495,490,491,366,491
496,493,491,376,490
494,491,493,390,492
496,490,493,438,489
494,492,493,498,489
494,491,492,565,490
495,492,493,626,489
494,490,492,635,492
495,492,493,622,492
495,490,492,549,491
495,491,492,449,490
495,491,492,398,490
495,492,494,371,491
495,491,493,370,490
495,491,492,377,490
496,493,492,408,491
495,491,492,463,490
495,492,492,522,490
494,493,493,602,491
494,490,493,636,491
497,492,494,629,489
494,493,495,597,490
495,493,493,502,490
495,492,492,420,491
495,492,492,385,490
494,490,492,365,491
496,491,491,375,491
495,490,492,386,492
495,490,492,429,489
495,492,492,490,490
494,490,492,556,490
496,491,494,623,489
495,492,493,636,490
495,492,492,624,490
496,494,491,564,491
495,492,493,458,490
495,491,491,401,490
495,493,492,370,492
495,491,493,367,490
494,491,493,377,489
494,492,491,403,491
495,491,493,455,489
495,491,492,516,490
495,491,492,594,489
496,492,492,635,491
496,491,492,630,489
496,493,493,609,493
495,490,492,515,490
495,492,492,425,490
494,491,494,388,490
494,491,494,367,489
494,490,493,372,491
495,492,492,386,491
493,489,493,424,490
495,492,493,483,489
495,491,492,548,490
494,489,491,618,492
494,490,492,637,490
495,491,494,625,490
496,492,491,576,490
495,492,493,471,491
495,491,493,408,490
496,493,492,373,490
494,491,493,370,491
496,490,493,376,489
495,491,492,398,491
494,490,492,449,490
494,490,491,508,491
494,491,491,583,490
494,492,495,632,491
495,491,493,633,490
496,493,492,617,490
497,492,492,529,491
496,492,492,432,490
495,492,493,392,492
494,493,494,367,489
494,491,493,370,490
494,491,493,381,489
493,491,494,416,489
494,491,493,472,490
494,491,492,539,489
495,492,492,613,490
494,492,492,638,491
495,491,492,628,492
496,490,491,585,493
496,494,493,482,490
495,491,492,413,491
496,491,491,374,490
494,491,494,369,489
494,491,493,377,490
495,492,492,391,491
493,490,491,443,489
495,490,492,503,489
495,491,492,572,491
494,490,492,631,491
494,491,494,632,491
496,491,491,622,490
495,492,495,543,492
496,491,493,442,490
495,492,492,397,490
496,493,492,371,490
496,491,491,371,491
496,492,493,380,489
494,489,491,410,490
495,492,492,467,490
494,491,492,527,489
493,490,493,605,490
494,492,493,636,491
495,490,492,630,490
495,490,492,590,492
497,493,493,495,490
496,491,492,417,491
495,491,491,381,492
495,493,494,367,491
494,491,493,375,491
496,492,493,384,489
494,492,494,434,489
494,491,493,495,490
494,491,492,560,490
494,493,492,628,491
494,492,493,635,492
496,490,493,622,492
495,491,493,556,491
494,491,492,453,491
495,491,492,401,490
496,492,494,369,489
493,490,492,369,492
495,493,492,380,490
495,493,492,406,490
495,491,492,459,489
494,491,493,519,490
495,490,491,598,489
494,492,493,634,490
493,491,493,630,489
494,492,494,600,490
494,492,492,509,491
496,492,492,423,489
495,491,492,385,490
496,494,491,369,490
496,491,492,375,491
495,490,492,385,489
494,493,492,428,491
494,490,493,488,490
495,491,493,551,489
493,492,494,621,489
494,493,494,638,491
495,493,492,626,491
494,491,494,568,491
496,492,492,462,491
495,491,491,405,491
495,490,492,371,493
494,490,492,368,491
493,490,491,378,491
496,492,495,399,488
495,490,492,453,489
494,491,492,513,489
494,492,492,590,489
495,492,492,634,489
494,492,493,632,491
495,490,493,611,490
495,490,493,520,490
495,492,493,431,491
494,492,493,391,490
494,491,491,371,491
494,493,494,374,492
493,490,492,384,490
496,492,491,421,490
494,491,492,480,490
494,491,492,543,491
495,490,493,616,489
495,491,494,636,490
496,491,492,627,489
495,493,495,578,489
495,493,494,477,490
495,491,493,410,491
494,491,493,376,490
496,494,493,367,489
494,491,491,377,491
495,491,492,396,491
493,490,492,446,491
494,491,492,505,489
494,491,493,576,490
495,491,491,631,489
494,493,493,633,490
495,493,492,619,490
496,494,492,532,490
495,492,492,438,490
496,491,493,394,490
495,490,491,369,492
494,491,493,370,491
493,491,494,381,491
493,490,494,412,491
495,491,492,472,490
493,492,492,535,491
493,492,492,612,490
496,492,492,639,491
495,490,492,629,492
495,493,493,586,489
494,491,493,488,490
495,492,493,413,491
495,492,494,377,490
493,491,494,368,489
494,492,493,375,491
494,491,492,391,489
495,491,493,438,490
495,492,492,498,490
495,491,492,569,491
495,490,492,630,491
494,492,492,634,491
493,492,493,623,491
496,492,494,544,491
495,492,493,447,491
494,492,493,399,490
494,493,493,370,489
495,491,493,368,489
496,491,492,381,489
494,492,494,408,491
494,491,492,465,490
494,490,492,525,490
493,490,494,605,491
496,492,494,636,490
495,490,493,629,492
496,492,492,597,490
496,492,492,501,490
495,491,492,420,491
494,491,493,381,491
494,490,492,368,490
495,492,493,372,490
493,491,494,385,489
492,492,494,432,489
493,491,492,491,490
494,492,492,558,489
492,490,493,625,491
495,491,491,635,491
494,490,492,624,492
494,490,492,562,492
494,490,492,456,490
495,492,493,402,490
493,491,491,371,492
493,492,494,368,489
494,493,493,379,490
494,492,492,403,490
493,490,493,455,490
494,491,492,517,490
493,491,491,594,492
494,490,493,634,491
493,492,494,630,490
494,493,491,609,493
497,493,494,514,491
495,492,493,425,490
495,492,492,387,491
496,494,493,370,491
496,491,492,373,491
494,493,493,384,493
495,491,493,425,491
494,491,492,483,491
494,491,493,547,490
493,491,494,618,490
494,492,494,637,490
494,490,492,625,490
495,494,493,572,492
494,492,492,469,491
495,492,492,407,491
495,492,492,374,492
496,490,493,368,491
496,491,493,376,490
495,493,492,400,490
494,492,493,449,491
493,492,492,510,490
494,492,493,585,492
493,490,492,633,491
495,492,495,633,490
494,490,492,616,493
496,491,493,526,491
495,492,492,434,491
494,492,492,392,491
494,492,494,367,491
495,491,492,372,490
494,492,493,382,490
495,494,492,418,490
495,492,493,475,490
494,492,492,538,489
493,490,491,616,491
493,492,494,637,491
493,491,493,626,490
493,491,494,581,491
494,492,493,481,491
495,491,491,411,490
495,493,492,376,493
494,494,492,368,491
496,493,492,377,491
496,492,492,395,492
495,491,493,442,490
495,492,493,502,490
493,492,492,573,491
493,491,494,630,490
494,493,494,633,489
494,494,494,620,493
495,491,493,539,491
495,492,493,440,491
495,492,492,397,491
496,492,492,370,491
495,491,492,371,492
495,491,492,380,490
495,493,493,408,491
493,491,493,469,490
494,491,492,529,490
493,492,494,607,489
493,493,494,637,490
494,490,493,627,492
495,493,492,592,491
494,492,494,494,491
495,491,492,416,491
495,492,492,380,492
494,491,492,368,490
495,492,493,373,490
493,491,492,391,492
493,492,493,436,489
494,492,492,497,489
494,492,492,564,490
492,490,494,626,491
495,491,493,636,491
495,493,493,623,493
494,491,494,553,492
495,492,493,451,491
495,492,494,401,491
494,492,492,372,492
494,493,494,369,492
494,491,493,381,490
495,492,491,407,490
495,491,492,461,490
494,492,492,521,490
493,491,491,600,491
495,493,492,636,490
493,492,493,629,489
493,492,494,598,490
494,493,494,507,491
496,492,493,422,491
495,493,493,384,492
494,491,493,370,491
496,492,492,374,492
495,491,492,385,492
495,490,494,430,490
494,491,492,487,490
494,492,492,556,489
493,491,495,623,490
494,492,493,636,490
496,493,492,625,491
495,494,493,565,491
494,492,492,462,491
495,491,493,404,490
494,490,492,370,493
495,491,492,367,490
493,491,493,376,490
495,491,491,403,489
494,491,493,456,491
495,492,493,515,491
494,492,493,592,490
495,493,492,635,491
495,492,494,631,489
494,490,493,612,493
495,494,494,518,491
495,491,492,428,491
494,491,493,388,490
493,491,494,367,491
494,490,492,374,490
494,493,492,382,491
492,494,492,425,491
494,491,492,481,491
495,491,492,545,492
494,490,492,618,493
494,492,492,638,491
493,492,494,628,492
495,492,495,576,490
494,492,493,472,490
494,492,493,409,489
494,493,493,373,492
493,493,491,369,491
493,492,494,376,492
494,491,491,397,493
494,490,492,446,491
494,491,492,506,490
494,491,492,578,490
493,490,491,633,491
495,493,494,634,490
494,493,492,618,490
495,494,492,532,490
495,492,492,436,490
495,492,491,394,490
494,493,494,369,492
494,491,493,370,492
493,491,493,380,491
493,491,494,412,490
493,492,492,475,491
494,491,493,535,490
493,491,493,612,490
495,491,492,638,492
495,491,491,628,493
494,491,492,587,489
495,494,493,486,492
495,492,492,412,490
494,492,494,376,490
492,491,494,367,489
494,493,494,376,490
494,492,492,391,492
495,492,492,440,490
494,491,493,502,490
494,491,492,571,492
494,490,492,630,491
494,491,493,636,490
495,493,494,620,491
493,493,491,546,492
494,493,494,446,491
494,492,493,397,490
494,493,493,369,490
495,493,492,371,490
493,492,494,380,492
496,490,494,407,489
494,491,492,466,491
493,491,492,526,491
493,492,493,603,490
493,492,492,639,492
494,492,493,630,492
493,492,493,596,491
496,493,492,499,491
495,492,492,417,490
495,492,492,381,489
493,492,491,367,492
494,493,492,374,490
492,492,493,386,490
492,491,493,433,490
494,491,492,492,490
494,490,492,560,489
493,492,493,625,491
493,491,492,637,491
495,491,491,624,492
496,491,491,559,493
495,492,492,456,491
495,492,493,402,490
493,491,493,367,490
496,492,491,369,490
493,492,494,379,490
494,493,493,403,489
494,493,492,458,491
494,492,492,519,491
494,492,494,596,489
494,491,493,636,492
493,492,493,630,491
493,492,493,605,491
496,492,492,514,491
494,492,492,424,491
495,492,493,387,489
494,494,494,369,490
495,492,491,374,490
495,491,493,383,489
492,491,492,427,491
493,492,493,484,490
494,491,493,551,490
492,490,493,620,491
493,491,493,636,489
494,493,493,626,492
494,490,494,572,490
496,492,493,466,491
495,493,492,408,491
495,492,491,373,492
496,491,491,367,491
494,493,494,378,491
493,491,493,400,490
495,492,494,450,490
493,492,493,511,490
493,492,493,585,490
494,493,492,633,492
493,492,492,634,492
494,493,494,612,493
495,491,492,525,491
495,491,492,431,492
494,491,492,390,490
496,494,492,367,490
493,492,491,372,492
495,493,493,383,489
494,494,493,419,490
494,492,492,477,490
494,492,492,540,490
492,491,494,614,491
494,490,491,637,490
495,493,493,626,490
492,490,494,580,491
494,492,493,479,491
495,492,492,412,491
494,492,493,375,489
494,490,492,367,490
495,492,492,378,491
495,491,491,396,492
495,490,492,443,489
493,492,493,505,491
493,490,492,576,490
495,491,494,630,490
493,493,494,634,489
494,493,494,619,490
494,490,492,536,491
494,493,493,440,491
494,491,492,394,491
495,492,491,370,491
494,490,492,370,492
494,490,493,379,492
493,490,492,413,490
494,490,493,469,491
494,492,492,532,489
493,492,494,609,489
493,492,493,636,491
495,492,492,629,490
493,492,494,592,492
496,492,494,490,491
494,493,492,415,492
494,491,492,379,493
494,490,492,367,493
493,492,491,376,492
492,492,494,387,492
494,490,491,436,489
493,492,493,497,489
493,492,492,565,490
494,492,492,625,489
493,493,492,635,492
494,492,493,622,490
494,490,493,548,491
494,492,492,449,491
493,491,492,399,490
493,491,493,367,491
494,491,492,371,490
494,492,492,378,490
493,493,492,407,490
494,491,492,463,490
494,491,492,522,491
494,492,493,600,489
493,490,493,636,491
494,491,491,628,490
492,492,494,598,489
492,492,494,504,491
494,492,492,420,491
494,491,493,385,491
495,490,493,366,491
495,491,491,375,491
494,491,493,387,492
493,489,491,430,491
493,492,493,488,491
494,491,493,557,491
494,491,493,621,489
492,491,493,635,489
493,492,494,624,489
492,493,494,564,489
494,491,492,461,490
494,491,493,404,491
493,490,492,370,488
494,492,490,370,490
494,491,491,379,491
494,490,490,399,488
493,492,492,455,491
493,490,492,514,489
492,490,493,590,490
491,491,493,634,489
493,492,493,631,490
493,489,492,610,489
494,494,492,516,491
494,491,492,428,490
495,490,492,390,491
495,491,491,371,492
493,490,492,373,489
495,491,493,382,491
495,492,490,424,489
493,491,493,481,490
493,492,494,547,490
493,492,494,618,490
494,492,492,635,490
493,492,492,628,491
495,490,492,574,492
495,493,493,471,490
494,492,493,409,490
494,492,491,373,489
493,490,493,366,490
495,491,492,375,490
492,491,490,398,490
494,491,492,448,490
494,491,492,508,490
494,490,493,579,488
493,490,492,631,491
494,491,491,633,490
492,492,494,615,490
493,492,494,530,490
494,491,493,437,490
494,491,492,393,490
494,493,493,367,490
492,491,491,372,491
494,491,492,381,491
493,489,492,416,491
493,491,492,473,491
493,491,492,536,490
492,491,494,614,492
494,490,493,637,490
494,493,492,628,491
495,493,492,586,491
496,493,493,482,491
494,492,492,413,490
493,492,493,376,492
494,490,492,366,491
493,491,493,375,490
492,491,493,390,490
495,491,491,440,489
492,491,492,502,491
493,491,492,570,489
493,493,493,630,490
494,492,491,634,491
494,491,494,618,489
495,491,491,543,490
494,492,493,443,490
494,490,492,395,490
492,491,493,368,490
492,490,494,369,489
493,492,492,380,491
493,493,493,410,490
492,490,493,466,490
493,491,492,528,490
494,490,491,607,492
494,490,492,636,490
494,493,492,628,491
492,492,491,595,492
496,492,493,495,490
493,492,493,416,489
493,492,493,382,490
493,489,491,366,491
494,492,491,376,490
493,492,493,388,492
494,490,491,433,491
493,491,492,493,491
493,490,492,561,489
494,493,493,624,490
492,491,491,636,491
493,492,493,622,489
493,494,494,555,490
494,493,493,453,491
494,492,492,401,490
492,491,493,371,489
495,490,493,369,489
493,490,492,377,491
493,490,492,403,491
492,491,493,458,491
493,492,491,519,490
492,492,494,597,491
494,491,493,635,490
495,493,492,631,491
495,492,492,605,491
496,491,491,508,490
493,491,492,422,490
494,492,492,386,490
493,490,491,366,490
492,492,494,372,490
492,492,494,384,490
494,490,491,427,489
493,492,493,487,490
492,490,491,552,490
494,491,491,622,490
494,491,492,636,492
493,490,492,624,492
493,493,493,570,490
493,491,493,465,491
493,492,492,404,489
493,492,494,369,489
492,492,494,370,490
494,492,493,377,491
493,491,491,401,490
494,491,493,452,490
494,491,492,512,491
493,491,492,587,491
493,491,493,633,491
494,491,491,633,489
493,493,494,615,492
495,491,493,522,491
494,492,492,430,490
494,492,492,392,490
495,493,493,367,490
493,490,491,372,492
493,492,493,384,491
492,490,492,419,490
493,492,492,478,490
493,491,492,541,489
492,490,494,617,491
493,490,493,637,489
494,490,493,625,491
495,493,491,581,491
495,492,492,477,491
494,492,491,411,491
493,493,492,374,492
494,490,493,368,490
495,492,493,374,490
493,492,494,392,489
493,493,493,444,489
492,492,492,505,491
493,492,492,577,490
492,490,494,631,491
494,491,492,632,491
493,491,493,618,493
493,491,493,536,491
494,492,492,437,490
493,491,492,395,492
495,493,494,368,490
494,493,492,371,490
495,493,493,382,490
495,493,491,414,491
493,491,492,468,490
493,491,492,533,489
493,493,492,610,492
493,491,493,635,490
492,492,494,628,489
493,491,491,589,492
494,493,493,489,490
493,492,492,415,490
494,492,492,379,491
495,493,491,368,491
494,490,492,376,490
493,492,492,388,492
492,491,492,439,490
493,490,492,498,490
493,492,493,564,489
492,493,494,627,490
494,491,493,633,491
495,493,492,623,490
492,492,495,550,492
495,491,492,448,491
495,492,491,399,491
493,491,492,370,492
492,491,491,370,491
495,492,493,378,490
495,490,491,408,489
493,492,492,462,490
493,492,493,524,490
494,492,491,604,491
492,490,493,636,491
494,491,494,630,490
494,490,491,596,493
493,491,493,500,491
494,492,492,419,491
493,491,491,385,492
493,492,494,367,492
492,491,493,375,490
495,492,491,386,490
495,492,491,431,491
494,491,492,491,491
493,492,492,555,492
492,494,492,625,491
493,491,493,634,490
493,493,494,622,489
493,494,495,563,490
494,493,493,459,491
494,490,491,403,490
494,492,494,369,490
492,490,491,369,492
494,490,492,378,491
493,490,492,402,491
492,492,492,456,490
493,491,492,516,491
493,491,491,593,489
492,492,492,635,490
494,493,492,632,491
494,492,491,606,491
492,491,492,516,492
495,492,492,426,491
494,491,492,387,492
493,490,492,367,491
492,492,494,373,490
494,490,491,385,489
492,493,494,425,491
493,491,493,484,491
494,493,492,549,491
495,491,492,620,492
495,491,492,637,492
493,492,493,626,491
493,491,493,573,491
495,493,492,469,492
494,492,493,406,491
493,493,494,372,490
492,492,494,369,492
492,490,491,377,490
494,491,493,396,490
494,491,491,449,491
494,491,492,509,490
493,491,492,583,491
492,492,493,633,491
492,491,493,633,491
494,492,494,615,490
492,492,494,527,491
493,492,492,434,490
493,492,492,393,492
492,493,492,369,491
493,492,493,372,492
494,491,492,382,493
494,490,491,416,492
493,492,493,475,491
493,491,493,539,491
494,491,494,612,491
493,491,492,638,492
494,493,492,628,492
495,494,492,584,491
496,493,492,483,491
494,491,492,411,491
494,491,492,375,489
493,493,492,366,491
492,491,493,374,490
492,492,494,390,489
492,491,492,443,491
494,492,492,502,490
493,491,492,571,490
493,492,492,630,491
494,491,491,633,492
494,491,492,621,490
493,494,494,541,492
494,492,493,442,491
493,491,493,396,490
492,491,493,367,490
493,492,493,370,490
493,493,493,381,490
492,490,492,409,490
494,492,492,467,490
493,491,492,530,491
493,490,491,606,492
494,492,493,636,491
492,491,492,631,492
495,493,495,590,490
495,491,492,496,491
493,492,492,415,490
493,493,492,381,490
494,494,492,368,490
492,492,493,375,492
494,490,493,387,489
493,490,492,434,492
493,491,492,493,491
492,491,493,559,490
491,491,492,629,492
494,492,492,635,491
492,491,493,624,491
494,493,491,556,492
495,493,492,452,491
494,492,491,401,491
493,490,493,369,489
493,491,493,367,490
495,493,492,380,490
492,491,494,404,490
493,493,493,459,490
494,492,493,521,491
492,490,492,600,490
495,492,494,634,490
492,490,492,631,492
493,490,492,602,493
494,491,492,508,491
494,492,493,423,491
493,491,493,384,492
495,491,491,369,490
493,493,492,374,490
494,492,491,385,490
495,493,491,427,490
493,490,492,486,491
494,492,493,553,489
492,490,492,622,492
492,490,493,634,490
492,492,494,624,489
492,492,495,569,493
494,491,492,463,491
494,492,492,406,490
492,492,492,373,490
495,491,490,369,492
494,490,492,378,492
493,493,494,400,489
492,491,493,451,490
494,492,493,514,491
493,491,494,588,489
493,492,494,634,490
494,493,492,631,491
492,491,491,614,491
496,492,494,520,490
494,491,492,430,491
494,491,492,390,492
493,490,492,368,491
494,493,492,374,490
493,492,494,383,492
495,490,495,422,489
493,491,493,479,490
493,492,492,544,490
494,492,492,617,490
494,492,494,636,489
494,490,492,625,490
494,494,493,578,492
493,491,493,475,492
494,492,493,409,490
493,492,494,376,492
494,490,493,367,490
494,492,493,375,490
494,492,491,397,491
495,491,492,445,491
494,491,492,505,491
493,492,493,578,492
492,490,493,632,491
495,492,494,633,489
493,493,494,618,490
493,494,493,533,491
494,493,493,437,491
492,492,492,394,491
492,492,494,367,491
494,490,492,371,492
493,490,492,380,491
492,490,493,412,491
492,491,493,473,491
493,491,493,534,490
493,490,492,612,492
493,492,492,638,491
494,491,491,628,492
495,492,491,588,492
492,492,494,487,492
494,492,492,412,490
493,493,493,377,491
492,491,493,367,490
493,492,494,374,490
493,493,492,392,492
493,492,492,440,490
493,491,492,500,490
493,491,492,570,492
494,490,491,629,492
494,491,493,633,491
495,493,492,621,491
492,491,491,547,492
495,492,494,447,491
493,491,493,398,490
494,493,493,368,489
493,493,491,371,491
492,491,494,379,491
495,490,491,406,489
492,492,492,465,491
493,491,492,524,491
492,490,493,602,491
492,491,492,638,492
494,492,493,629,490
493,490,492,596,490
494,493,493,500,491
494,491,492,418,490
494,491,492,383,490
492,491,495,368,493
493,490,492,374,490
494,491,494,385,491
492,491,494,431,490
492,491,493,491,491
493,491,493,558,492
493,493,493,626,490
493,492,494,637,492
494,490,492,625,493
495,490,492,562,492
494,491,492,457,491
494,491,493,404,491
494,491,493,368,491
496,491,491,370,489
493,493,493,379,490
494,493,493,402,490
494,492,492,456,491
493,491,492,518,491
494,490,494,593,489
492,491,493,635,491
493,490,493,631,491
492,491,493,606,492
492,493,492,516,491
493,491,493,425,491
494,491,492,389,490
493,494,493,370,490
494,491,491,374,491
495,491,492,384,489
492,492,491,426,492
493,492,493,483,490
493,492,494,550,491
492,491,494,619,491
493,492,494,636,490
494,493,494,626,492
493,491,493,575,491
495,493,492,468,491
494,492,493,409,491
494,491,491,374,492
496,491,492,368,492
494,493,493,378,490
492,490,493,396,490
494,492,492,450,491
492,491,493,510,490
492,491,493,582,489
492,492,494,633,491
492,491,492,634,492
494,492,494,613,490
496,491,492,528,492
494,492,492,433,492
494,491,492,391,492
494,494,493,370,491
493,492,494,372,492
495,492,494,382,489
492,493,493,418,490
493,492,493,475,491
493,492,492,538,491
494,491,494,613,490
494,490,492,636,491
494,493,492,627,491
492,491,493,581,491
492,492,493,480,491
494,492,493,413,491
493,491,493,376,490
493,490,492,366,491
494,492,492,378,491
494,491,491,394,492
495,490,491,442,491
492,491,493,502,491
492,490,492,573,490
494,492,493,630,490
492,492,494,633,489
492,492,493,619,489
493,494,492,539,492
494,492,493,441,491
493,491,492,394,490
495,492,491,370,491
494,490,492,370,492
493,490,492,379,491
493,490,492,411,490
494,492,493,467,491
493,491,492,529,491
493,492,494,608,489
493,492,492,637,491
495,492,491,629,492
493,493,495,589,493
495,491,492,492,491
493,492,492,416,491
493,491,493,379,491
492,490,492,366,490
493,492,491,376,491
494,492,493,388,490
493,490,492,435,489
493,493,493,497,490
493,491,492,564,491
494,491,491,628,490
493,492,493,635,491
492,490,492,622,490
495,491,493,550,490
493,492,493,451,491
494,491,493,400,490
493,492,494,368,489
493,490,493,369,491
494,492,491,378,490
493,491,491,408,492
493,490,492,462,491
493,491,492,522,491
493,490,492,601,490
494,490,494,634,490
494,491,492,630,490
494,494,494,601,490
494,494,493,507,491
494,492,492,420,491
493,492,493,386,491
495,491,494,367,489
493,491,492,373,492
492,491,493,384,492
492,490,493,428,490
493,492,492,487,491
492,491,493,554,491
493,490,491,623,489
494,493,492,637,491
494,492,491,625,492
496,491,491,567,492
495,492,493,461,490
494,491,491,404,492
495,493,492,369,491
492,492,494,368,490
493,491,494,377,490
494,493,493,399,492
493,491,492,455,490
493,491,492,513,491
493,491,492,592,491
494,490,492,635,493
493,491,493,630,492
493,494,492,613,491
492,492,494,518,492
494,492,492,427,490
493,492,493,390,490
493,493,494,369,490
494,492,491,371,491
492,492,491,384,492
494,491,494,421,490
493,491,492,480,490
493,491,493,544,491
492,490,493,617,492
493,491,493,635,491
493,491,492,628,490
493,493,492,578,493
493,493,493,474,491
493,492,492,410,491
494,491,492,375,491
496,492,494,367,490
492,490,492,377,491
495,492,491,394,491
492,491,494,446,491
493,492,493,506,491
493,492,494,578,492
492,491,493,635,492
494,491,493,631,491
494,491,492,619,493
495,491,492,533,493
494,492,492,436,492
493,492,492,394,490
492,491,494,371,491
495,490,494,370,490
493,493,493,382,489
493,493,493,415,490
494,492,493,471,490
493,491,493,534,490
493,490,492,613,490
492,492,493,636,491
492,491,494,627,491
492,491,494,584,492
492,492,493,487,491
494,492,493,415,491
493,490,492,377,492
493,491,492,369,490
495,491,492,377,492
494,491,491,392,492
492,493,493,439,491
492,490,493,500,490
494,492,493,567,490
492,491,495,628,491
492,492,494,635,491
494,493,493,621,493
493,494,493,547,491
493,491,493,446,491
494,492,492,398,492
494,491,492,371,492
493,490,492,369,492
492,490,493,380,490
495,493,494,407,489
492,491,492,465,491
493,491,493,526,490
492,492,493,605,489
493,492,491,636,492
492,492,494,628,492
493,490,491,593,490
493,493,492,498,492
494,493,492,419,491
492,491,493,382,491
492,488,491,368,491
494,492,493,374,490
493,491,493,385,490
494,493,492,434,490
494,492,493,494,491
494,491,492,559,490
492,492,494,626,491
492,490,492,636,492
495,492,494,622,490
492,492,495,559,490
493,492,494,456,491
494,491,493,402,491
494,491,492,370,489
493,492,492,368,490
492,492,491,380,492
494,490,491,405,493
492,490,492,459,492
493,490,493,518,490
493,490,493,594,491
494,491,491,636,490
493,493,493,631,489
493,493,493,607,490
494,493,492,513,491
494,491,492,424,490
494,491,493,386,490
493,490,491,368,492
493,490,494,373,491
492,491,493,384,491
492,492,491,427,492
492,492,493,486,491
493,490,492,551,490
494,492,492,621,490
494,492,492,638,492
494,491,492,626,493
494,491,495,571,490
494,492,493,468,492
494,491,492,406,490
493,492,494,370,490
492,491,494,368,489
493,492,493,377,492
493,490,491,400,489
494,492,493,450,492
493,491,492,512,490
493,491,491,586,491
494,491,492,633,492
493,493,492,632,491
492,491,494,613,491
495,492,491,523,491
493,492,492,432,491
492,492,493,392,490
493,493,493,368,492
492,491,491,373,491
494,492,494,382,490
494,490,491,419,492
494,491,492,477,491
493,491,493,540,491
492,490,493,613,491
495,491,492,637,490
493,493,493,628,492
492,494,492,583,491
495,493,492,480,491
493,492,492,412,491
494,492,494,374,490
495,491,492,368,490
494,492,492,374,491
492,491,494,392,490
491,491,493,444,491
492,491,492,504,491
493,490,493,575,489
492,490,492,631,491
494,491,491,634,491
494,491,491,621,491
495,491,492,540,492
494,492,493,440,491
493,491,493,397,490
494,492,493,367,491
493,492,494,370,490
493,493,494,381,490
493,492,494,411,490
494,491,492,469,491
493,491,492,532,490
492,491,494,609,492
494,491,493,637,492
493,491,494,628,492
492,491,493,591,491
496,493,494,492,491
493,492,492,416,492
493,492,493,379,489
493,493,494,367,490
494,492,492,376,491
492,491,493,385,491
495,491,492,436,490
492,491,492,496,491
493,490,492,563,491
492,490,493,627,491
491,491,491,635,492
494,492,494,622,490
494,490,492,553,491
494,492,493,449,491
494,493,493,400,491
494,493,492,371,491
495,491,491,368,490
493,493,492,379,491
493,493,492,407,491
492,490,493,460,491
493,492,493,521,490
492,492,494,600,490
494,491,492,636,491
494,493,492,630,491
492,491,492,601,492
495,492,492,505,492
495,492,492,421,491
493,490,492,384,490
494,491,492,367,491
495,491,491,375,490
492,492,493,384,490
492,493,493,430,490
492,492,493,488,491
493,490,492,555,490
494,492,493,622,490
492,491,492,636,492
493,490,492,624,492
493,490,493,566,492
493,491,493,462,491
494,492,492,405,491
493,492,494,372,493
494,490,493,369,490
494,493,493,378,491
494,492,492,402,491
495,491,493,453,490
493,491,493,515,491
493,492,493,591,492
492,490,494,632,491
493,493,494,631,490
493,493,495,610,493
495,491,492,518,490
493,493,492,428,491
493,491,491,389,491
495,492,491,369,491
494,490,491,373,492
494,493,493,383,489
493,490,492,421,490
493,491,493,481,491
493,490,493,543,489
492,491,494,617,489
493,493,493,637,490
494,492,493,624,491
492,494,492,578,491
493,492,493,472,491
494,492,492,409,491
493,491,492,373,492
493,490,492,367,491
495,492,491,375,490
493,492,491,398,492
494,492,493,447,491
493,492,493,507,490
493,492,493,581,490
494,490,493,631,490
495,491,492,634,490
494,493,493,617,493
494,490,492,530,491
494,492,493,436,491
493,491,493,395,492
495,491,495,367,489
493,490,493,371,492
494,492,491,383,490
494,492,491,416,491
494,492,492,473,491
494,491,492,536,490
493,492,493,612,492
493,490,493,638,491
494,491,493,626,490
492,491,494,583,490
493,492,494,486,491
494,491,492,413,492
494,492,492,378,491
492,490,493,368,492
495,491,491,376,492
494,491,492,392,492
494,490,492,439,490
493,491,492,500,491
493,492,492,571,491
492,491,494,628,491
493,493,493,634,490
494,493,493,622,490
492,490,493,542,492
495,493,492,444,491
493,491,492,397,492
494,490,491,369,493
494,491,493,369,491
492,491,493,379,491
492,491,491,410,491
492,491,493,464,491
493,491,492,527,490
493,492,492,605,490
494,492,492,637,492
494,491,491,627,490
493,492,491,594,493
494,493,494,498,491
494,491,492,417,491
493,491,493,380,490
492,490,494,367,490
494,490,492,375,490
494,492,492,386,492
491,490,492,435,491
494,492,492,493,491
494,492,492,561,492
494,490,494,626,491
495,491,493,634,491
495,492,491,625,490
492,492,494,557,491
494,492,493,454,491
493,493,494,403,490
494,493,493,368,493
493,491,491,370,491
494,492,494,379,490
494,490,491,404,492
493,490,492,458,491
493,491,492,519,491
