Sensor0,Sensor1,Sensor2,Sensor3,Sensor4

396,491,495,494,493
372,492,492,491,493
374,491,495,3491,492
453,490,493,492,494
514,490,492,490,491
592,0,489,493,493
493,380,490,494,493
492,402,491,492,491
492,453,490,493,492
494,514,490,492,490
491,592,492,494,490
493,632,492,492,491
493,631,491,491,491
491,613,492,492,492
494,518,491,494,491
492,426,491,492,492
492,387,490,494,493
493,370,491,494,492
492,373,492,492,491
492,385,493,496,494
495,422,490,494,491
492,480,490,493,490
492,544,491,492,489
492,617,492,492,490
493,636,492,494,492
491,625,492,491,490
494,578,491,493,491
492,472,492,494,491
491,406,491,492,491
493,373,491,491,492
491,371,490,492,491
492,377,490,494,493
492,395,492,491,491
493,446,491,492,490
492,506,491,492,491
493,582,490,493,492
493,630,491,492,492
492,635,492,493,491
494,617,490,492,492
495,530,491,493,492
494,435,490,493,491
492,392,490,494,493
493,370,490,492,491
491,375,491,494,491
491,383,490,495,492
491,415,491,493,491
492,471,490,492,490
492,533,489,493,491
490,612,487,490,489
492,635,490,493,489
491,628,492,494,491
491,587,493,495,492
493,486,492,494,493
493,411,491,494,492
493,378,491,492,491
494,368,491,494,492
494,376,491,494,494
495,392,491,492,492
494,439,492,495,492
493,500,491,493,492
493,572,493,494,490
493,630,491,494,492
494,633,492,493,492
492,625,491,495,491
494,543,490,494,492
492,445,491,492,491
493,396,490,493,491
494,368,490,493,492
493,372,489,492,492
494,383,492,494,490
494,407,489,492,492
492,466,490,493,491
493,526,490,493,492
494,603,490,492,493
493,637,489,492,490
493,630,490,494,492
494,595,492,493,492
492,498,490,493,492
492,415,489,493,492
492,381,490,493,493
492,369,492,492,492
491,377,491,493,492
493,387,491,494,492
492,434,492,494,492
492,491,491,494,491
492,560,491,492,492
495,626,493,493,490
492,635,490,495,490
494,622,490,493,491
493,557,491,493,492
493,454,491,493,491
494,401,490,493,490
492,371,490,494,492
492,370,490,492,492
492,382,491,494,492
491,405,491,495,491
492,458,491,494,492
494,517,491,493,491
492,598,492,493,492
493,634,492,493,491
492,632,493,494,490
492,606,492,496,493
492,512,491,493,491
492,422,491,494,490
493,383,490,493,491
491,371,492,494,489
491,375,492,494,490
492,386,492,495,492
494,424,489,494,491
491,483,489,492,491
493,551,491,492,490
491,621,491,492,489
492,634,491,493,491
493,625,491,493,491
493,573,491,495,492
492,465,491,494,493
492,406,491,493,492
494,370,490,493,492
492,371,491,495,493
493,380,492,492,491
492,400,491,494,491
493,450,489,493,491
493,512,491,494,490
491,588,493,494,491
491,631,492,493,493
493,634,492,492,492
494,614,490,496,493
492,523,490,493,491
493,430,491,493,491
493,389,491,493,490
493,372,491,494,491
494,373,490,492,491
491,385,491,493,490
493,418,490,492,490
492,476,491,493,491
492,539,489,492,491
493,614,491,494,491
492,636,490,494,492
492,628,492,494,491
494,581,491,494,491
494,479,493,495,492
493,409,491,493,493
493,376,491,492,491
494,369,493,494,491
492,378,489,493,492
494,394,489,493,492
492,443,490,493,491
493,503,490,493,491
492,577,491,495,492
494,630,489,493,491
493,633,492,491,490
493,618,493,493,490
492,536,491,494,493
492,438,490,492,490
492,393,491,494,491
494,368,489,492,492
493,374,490,493,491
493,382,490,493,493
494,410,489,493,491
492,469,491,493,492
493,531,491,493,490
492,610,490,493,492
493,637,491,495,493
493,629,490,495,493
494,590,493,493,491
492,491,490,492,491
491,413,491,493,491
492,379,490,493,493
492,369,491,493,492
491,376,490,492,492
493,388,490,495,491
491,434,490,492,491
492,495,490,493,491
491,566,491,494,489
491,626,491,492,490
492,634,490,494,490
493,620,492,494,492
492,550,492,493,492
493,447,492,493,492
494,397,492,493,493
493,370,490,494,493
492,371,490,492,491
493,382,490,495,491
493,404,489,494,492
491,463,489,492,490
492,521,490,493,491
491,602,490,491,491
493,633,491,493,490
490,628,489,492,492
491,600,491,495,492
492,504,490,494,492
492,418,491,493,491
493,381,489,491,491
491,371,492,493,492
493,374,492,493,490
492,387,492,494,490
491,430,491,493,491
492,486,491,492,492
493,556,491,493,490
494,621,490,495,492
493,635,492,492,491
493,625,492,494,489
492,565,491,493,491
492,460,491,493,492
491,403,490,492,490
492,370,490,494,490
493,370,489,493,491
492,379,490,493,492
494,399,489,492,492
492,455,490,493,491
492,513,489,492,489
491,591,488,492,492
492,634,490,493,491
492,632,490,494,492
491,609,492,492,491
492,518,492,494,492
492,424,492,493,493
492,388,492,495,493
492,371,491,495,491
491,375,491,495,492
494,383,490,495,492
491,424,491,492,490
491,479,489,493,491
491,547,491,493,490
490,618,491,493,490
490,635,491,494,490
493,624,489,491,491
491,577,491,493,492
493,470,490,493,491
491,407,490,492,490
490,373,491,495,491
491,369,489,493,492
493,377,492,493,491
494,395,488,493,490
492,446,491,493,491
492,506,491,492,490
493,578,490,492,491
491,631,491,494,492
492,634,492,492,491
493,618,490,495,492
492,531,491,494,491
491,434,491,493,491
491,390,490,493,493
491,369,491,492,491
491,374,491,492,491
494,381,491,491,490
494,414,490,492,490
492,471,491,492,490
492,534,490,493,491
491,611,490,492,491
491,636,492,493,493
494,629,490,494,494
494,585,490,494,493
493,485,491,493,492
492,412,491,493,492
492,377,492,492,490
492,370,490,493,492
491,378,490,492,491
491,392,489,494,492
491,438,491,492,490
492,499,490,493,491
494,569,491,494,493
492,631,492,494,491
492,634,493,494,490
492,621,493,493,494
495,543,492,493,492
493,442,492,494,493
493,393,490,493,493
495,369,490,494,493
494,374,491,495,493
493,382,490,494,491
493,408,492,494,492
493,465,491,493,491
492,527,490,493,492
492,607,490,493,491
492,637,491,494,492
491,626,491,491,490
493,595,491,495,491
493,496,493,493,493
493,416,491,494,493
492,383,492,495,492
492,369,492,492,491
493,374,492,494,492
492,385,492,492,490
492,433,489,493,493
494,492,489,493,491
492,561,491,494,491
493,622,490,492,491
492,635,491,492,492
493,621,491,495,492
490,558,490,494,492
493,453,490,494,492
492,400,490,494,491
491,367,490,492,491
491,372,492,493,492
493,378,490,494,491
491,405,492,493,490
492,458,491,493,492
492,517,490,492,491
493,594,491,493,490
492,634,490,494,492
493,628,491,492,490
492,604,492,493,490
493,510,491,494,491
492,420,490,494,490
493,385,491,495,493
491,371,490,492,492
493,374,491,492,491
493,385,490,492,490
493,425,491,494,491
491,484,491,492,491
490,553,491,494,491
493,618,489,493,492
494,635,489,492,491
493,625,489,492,491
493,569,491,495,495
492,467,492,493,491
492,405,491,494,490
494,368,490,491,491
494,370,489,492,490
493,378,489,493,491
491,401,491,494,491
493,451,491,494,491
492,511,491,492,491
493,586,490,491,490
494,632,490,493,492
492,632,492,492,490
493,614,489,494,493
493,522,490,493,492
492,429,490,494,491
492,391,491,493,490
490,372,491,492,492
491,375,489,492,491
493,384,491,494,493
491,417,490,492,491
492,476,490,492,490
493,540,490,491,490
492,614,491,492,491
491,637,491,494,491
494,626,490,495,493
492,582,491,493,492
493,477,491,493,491
492,409,490,493,491
493,372,490,495,492
491,369,489,493,492
491,379,492,494,492
494,393,490,491,492
494,444,491,492,490
492,503,491,493,491
491,577,492,491,491
495,631,491,492,489
492,634,490,494,493
492,619,489,493,493
494,537,491,494,492
493,437,490,493,491
492,393,491,495,491
493,368,490,494,490
492,372,491,493,490
492,382,492,494,490
491,412,492,492,491
492,468,490,493,492
493,531,490,492,490
491,610,492,495,492
493,635,489,493,493
494,628,489,493,492
495,588,490,493,491
491,491,491,493,491
492,413,491,493,490
491,377,490,492,492
494,369,489,493,492
494,377,490,493,492
493,391,492,494,490
494,436,490,492,490
492,496,491,492,492
493,565,488,493,493
494,626,490,493,492
492,635,491,492,489
492,621,489,493,494
493,549,493,494,492
493,446,491,493,492
493,397,490,493,492
492,370,489,493,492
492,373,491,494,491
492,379,491,493,494
492,408,491,492,490
492,461,490,493,491
492,522,490,494,491
491,603,492,494,491
491,633,489,493,493
492,629,492,493,492
494,597,491,493,491
493,501,492,493,492
492,418,490,493,491
493,382,490,495,491
491,370,489,493,493
493,376,491,493,490
493,387,489,493,493
493,430,489,493,491
493,489,490,493,492
491,555,491,492,492
493,623,490,492,490
493,634,491,494,493
492,625,490,493,494
494,564,491,493,492
494,459,492,493,492
492,401,491,493,491
493,370,490,493,491
493,369,491,494,493
492,380,490,494,492
493,402,489,493,493
491,454,489,493,490
492,514,490,493,492
492,592,491,492,490
491,635,491,494,491
492,632,492,494,491
491,610,491,495,492
494,515,490,494,492
493,425,491,492,491
493,386,492,495,491
491,372,492,493,491
492,374,492,493,491
492,386,489,493,493
493,421,491,492,491
492,481,490,492,490
492,545,490,492,490
493,617,491,492,493
494,636,490,492,492
494,625,490,495,492
491,578,491,493,492
494,472,491,494,492
492,406,490,493,493
494,373,489,492,492
493,372,491,494,492
493,378,490,493,493
492,400,490,491,490
493,447,491,494,493
492,508,490,494,491
491,584,490,494,492
491,632,490,492,492
494,633,492,495,491
494,615,491,492,493
490,529,491,494,492
492,433,491,494,492
492,393,492,495,491
494,368,491,494,491
493,374,490,493,493
494,383,493,494,491
492,416,492,493,491
493,474,492,494,491
493,537,491,493,491
492,615,492,495,494
494,637,491,493,491
493,628,491,495,494
495,585,491,496,494
494,485,492,494,492
492,412,491,493,492
494,377,492,494,494
494,369,490,493,490
491,377,492,494,490
492,394,493,495,491
492,441,492,494,490
493,499,491,493,490
492,572,490,492,491
494,629,492,494,490
492,633,492,493,491
493,622,493,496,491
491,541,491,494,492
492,442,491,495,492
494,396,491,494,491
491,371,492,494,490
493,372,492,494,490
492,382,491,493,490
490,409,490,493,492
493,466,490,492,490
495,527,490,494,490
491,605,492,492,492
494,635,490,492,492
494,629,490,492,490
491,594,493,494,493
493,496,492,494,491
493,415,491,494,492
492,381,492,496,491
491,370,493,492,489
492,376,490,493,493
493,388,493,494,493
494,434,491,493,490
492,493,492,493,491
493,560,491,492,491
493,626,492,495,492
492,636,491,493,493
494,625,493,495,492
495,556,492,495,492
494,452,492,494,492
494,400,491,494,493
494,372,491,493,491
493,370,492,495,492
492,383,490,493,491
494,407,492,495,492
492,459,491,494,492
493,519,491,493,489
491,596,489,491,491
491,635,490,492,492
493,631,489,493,490
492,603,493,494,491
493,509,492,494,492
493,421,491,494,491
491,385,489,493,491
494,371,491,494,490
492,375,490,494,491
492,386,491,495,492
491,427,491,493,490
493,484,492,493,491
493,550,492,493,493
492,621,491,492,491
494,634,490,493,492
494,623,489,494,491
494,569,492,494,491
493,466,490,495,492
493,404,490,493,491
491,374,491,491,491
494,370,489,493,493
494,379,489,492,492
494,400,489,492,489
491,452,490,491,491
493,512,491,492,491
492,590,490,494,493
493,633,491,494,493
492,633,491,495,492
494,613,493,495,494
493,522,491,495,491
492,429,491,493,492
493,389,490,494,493
493,370,491,494,491
490,375,491,491,491
493,383,492,495,493
494,418,490,492,491
491,478,491,492,491
492,540,491,491,490
492,615,492,492,491
493,635,490,494,491
491,627,489,492,491
495,582,492,494,491
493,475,491,493,492
493,408,490,493,492
493,374,489,491,490
491,371,492,494,492
494,378,490,494,491
491,398,489,493,492
493,444,490,494,491
492,503,490,494,492
493,577,493,495,490
491,631,491,496,493
493,632,493,496,492
492,620,491,501,494
493,535,492,502,494
494,438,492,500,492
493,393,491,499,494
492,371,491,492,492
495,375,492,495,493
493,383,491,492,494
492,413,491,487,493
493,468,490,486,492
492,531,490,492,492
491,610,491,494,492
494,635,492,496,491
492,628,492,494,491
492,590,492,495,492
492,490,493,493,492
493,412,492,494,492
494,377,491,492,491
492,370,493,494,490
492,376,493,495,491
491,392,492,497,492
493,436,490,498,492
492,497,490,497,492
493,568,492,501,491
491,627,491,503,492
492,634,491,502,490
493,623,489,500,494
492,548,492,499,494
494,447,491,495,492
492,397,492,493,491
492,371,493,489,492
494,371,493,487,491
493,381,492,492,493
493,406,492,492,491
492,462,491,491,490
491,523,491,489,490
492,602,490,489,490
493,635,490,490,492
491,632,491,492,491
492,597,490,494,493
492,501,491,491,491
491,418,492,492,492
493,381,493,493,491
492,371,492,495,491
493,373,490,494,492
492,389,492,494,492
494,430,490,497,492
493,487,489,499,491
492,557,488,499,490
492,622,491,502,491
491,634,489,499,493
491,624,492,496,491
491,563,492,492,491
491,457,491,487,490
491,402,492,487,492
493,369,494,492,492
492,370,496,494,494
492,379,496,491,492
492,401,495,492,492
492,455,491,494,491
491,515,489,493,491
493,591,487,493,493
491,636,487,492,491
493,629,489,491,491
492,607,494,495,491
493,517,500,501,494
493,427,503,505,495
494,390,504,506,497
493,371,505,500,494
494,375,504,492,493
492,385,498,493,491
491,425,488,489,489
492,479,482,486,490
492,549,490,490,491
494,619,493,497,493
492,637,495,501,493
492,627,496,501,494
493,575,494,504,495
494,471,491,501,494
494,408,490,493,491
494,370,492,488,492
494,369,491,484,493
493,378,490,484,489
490,399,487,490,491
492,449,489,493,491
492,508,489,495,492
493,583,489,499,496
495,633,496,502,495
495,633,501,501,498
493,617,497,500,492
493,529,495,492,492
493,432,492,484,492
492,391,490,491,493
492,370,486,491,491
494,374,485,497,492
494,381,488,494,493
491,418,489,497,492
492,473,490,495,493
493,536,490,493,493
491,613,491,490,492
493,634,491,493,490
491,626,489,496,492
491,585,493,497,492
493,482,493,489,493
493,411,494,489,492
495,374,495,488,491
492,370,497,493,493
494,378,493,492,490
493,393,491,491,491
493,440,490,494,491
493,500,488,495,492
492,571,488,496,491
493,630,490,498,493
495,633,489,497,494
493,620,491,502,494
495,541,490,508,494
493,445,490,506,493
493,395,490,504,492
491,369,489,507,493
494,373,490,497,493
492,380,489,481,491
494,408,489,481,492
492,467,488,487,491
493,526,487,486,491
492,609,488,490,493
493,636,489,494,492
492,629,487,499,493
494,592,492,504,491
493,495,494,506,494
494,418,496,510,495
495,382,497,503,495
495,370,495,496,495
493,377,494,488,492
493,388,496,489,493
490,434,494,493,490
492,494,493,490,489
491,562,490,490,490
491,625,490,490,492
493,636,488,494,494
493,621,487,501,497
494,557,489,517,496
496,453,491,514,495
495,400,490,503,496
496,369,489,496,493
494,373,492,488,490
491,381,490,483,491
490,404,491,476,491
492,459,490,488,492
492,518,490,500,494
492,599,490,506,493
495,635,491,515,493
491,632,491,493,492
494,604,492,486,492
492,508,491,482,493
492,419,490,480,491
492,383,490,487,490
490,371,491,503,494
494,375,490,512,494
493,389,492,505,495
492,428,492,502,495
492,484,491,487,491
492,551,491,481,488
490,618,489,471,489
492,634,491,483,489
493,625,492,501,492
493,569,493,508,495
495,466,493,510,495
494,406,491,503,493
494,369,491,491,490
491,372,489,472,491
492,379,490,487,492
493,400,489,500,494
492,453,491,510,493
493,511,491,487,493
493,588,492,489,496
493,636,492,504,496
493,633,492,493,490
491,613,492,478,489
493,520,500,494,493
492,428,500,486,492
491,390,499,495,492
490,372,495,506,491
490,374,491,503,493
494,383,485,494,490
491,419,484,482,491
493,476,486,496,493
492,544,490,500,493
493,617,492,502,494
494,636,492,496,494
493,626,488,487,490
490,580,491,486,492
492,474,490,494,493
492,409,491,500,494
493,375,491,511,495
494,369,490,497,494
494,379,491,496,492
492,395,491,495,492
492,444,492,483,488
491,503,494,488,493
494,577,493,494,496
493,631,494,488,495
493,634,493,488,495
494,616,489,480,491
490,536,491,495,490
491,436,489,499,491
491,393,489,502,494
494,371,492,498,491
491,373,491,507,493
493,382,493,494,490
492,412,494,487,491
492,469,495,484,492
493,531,493,496,493
492,611,494,487,494
495,637,490,491,492
495,629,485,497,493
494,587,487,492,492
493,488,489,496,492
492,414,491,493,493
492,377,490,492,491
493,369,490,500,493
492,378,491,493,493
494,390,490,487,495
492,437,491,495,493
493,498,489,495,490
492,565,490,479,490
491,629,492,486,491
493,634,491,493,491
494,620,491,493,493
492,550,492,493,493
493,446,491,507,494
493,398,491,498,495
493,372,490,493,494
492,372,491,492,494
492,381,491,485,492
494,405,492,477,489
490,462,491,486,489
492,523,492,507,491
491,605,494,510,495
493,635,493,516,498
496,630,490,511,497
494,595,490,479,492
492,501,490,496,492
494,418,491,505,493
496,383,491,511,495
497,371,490,522,494
495,378,492,488,492
493,386,492,469,488
488,429,490,468,488
490,489,491,477,489
491,556,489,504,494
495,627,491,511,495
494,637,491,502,495
495,623,491,491,494
493,562,490,463,490
491,457,491,484,491
490,401,491,497,491
491,371,492,480,490
490,369,494,476,490
492,380,495,507,492
494,403,496,511,495
495,456,494,510,497
495,515,492,502,493
492,595,488,468,488
492,631,488,469,491
492,631,489,487,493
493,606,490,495,493
494,515,492,500,493
494,426,493,510,493
494,388,491,514,493
492,372,492,499,496
494,376,490,489,494
492,384,490,475,495
493,423,493,476,493
493,483,493,482,493
493,548,495,487,491
494,619,495,490,492
493,637,494,493,492
492,626,492,499,494
493,573,488,510,494
492,472,495,506,494
494,405,493,499,494
493,372,490,493,494
493,371,490,484,491
490,377,489,469,491
492,397,488,480,491
492,448,487,485,492
492,507,488,495,491
488,584,490,484,489
488,628,490,482,491
490,629,488,504,492
489,616,490,503,496
495,527,493,507,497
497,433,491,508,496
495,394,491,524,495
494,374,491,502,490
494,373,488,458,485
490,382,492,468,491
491,416,491,486,492
492,475,491,494,494
493,539,492,502,494
493,613,492,504,492
493,638,490,490,493
493,627,491,488,493
493,583,490,487,492
494,482,492,489,491
492,410,491,484,492
494,373,492,487,494
492,372,490,487,491
493,378,492,492,492
494,393,494,507,494
494,444,494,514,495
493,501,491,523,494
493,575,487,494,490
493,629,488,470,490
492,632,489,466,494
494,621,490,487,494
494,541,491,501,492
492,441,491,499,491
491,396,491,495,492
493,368,490,490,491
492,373,493,491,493
493,383,493,489,491
491,411,493,497,491
492,467,493,488,493
494,529,493,494,493
493,608,490,501,493
494,636,493,473,489
493,626,495,463,488
491,590,498,479,491
492,496,496,497,494
493,417,496,516,496
494,382,491,513,494
494,370,487,503,493
494,376,485,494,489
491,386,486,457,489
489,433,489,474,490
491,494,489,490,493
493,562,490,497,493
493,626,490,489,494
494,634,490,491,495
491,625,492,491,491
492,554,493,490,491
491,451,494,510,495
494,402,496,535,498
498,372,496,511,496
496,372,491,482,492
491,382,490,468,490
493,403,488,464,489
491,460,491,475,491
491,521,493,478,493
490,601,494,474,495
492,635,492,485,494
493,631,492,503,489
491,600,490,493,491
492,507,494,498,494
493,421,491,517,497
495,385,489,520,498
493,373,491,505,496
493,376,492,495,490
489,384,490,445,489
491,427,492,473,488
490,485,493,481,491
493,554,494,483,493
494,621,493,487,494
493,636,492,503,493
492,627,487,507,495
496,569,489,510,497
496,464,491,493,495
494,405,497,486,491
493,371,498,470,492
494,371,500,480,494
493,382,498,479,494
494,403,496,499,493
492,453,490,501,492
492,512,489,490,492
490,591,487,486,493
492,634,488,505,494
494,634,492,515,494
495,613,493,492,495
497,522,492,504,498
498,429,491,494,490
490,388,490,471,490
492,370,489,482,489
489,375,492,479,492
491,384,493,488,491
492,418,492,485,492
493,478,492,487,491
493,544,494,492,492
493,618,494,494,492
494,635,492,488,492
494,625,491,472,493
491,581,493,477,493
493,474,492,482,493
491,407,489,489,495
494,375,489,495,498
495,373,492,496,498
496,378,491,487,496
496,398,493,468,492
493,445,490,468,491
492,508,492,510,493
492,578,490,501,491
491,630,489,480,489
491,632,491,498,492
491,617,492,494,491
491,534,491,505,495
493,437,492,504,495
493,395,495,511,495
496,369,492,493,491
493,374,497,485,492
491,384,501,473,490
493,412,499,469,491
492,471,499,486,491
492,534,497,491,492
494,612,496,494,493
494,639,490,488,493
495,627,491,494,494
493,591,495,501,494
493,490,500,497,497
493,414,505,491,498
493,377,502,454,493
493,369,496,466,495
495,376,497,495,496
495,392,496,478,492
492,438,487,491,491
491,499,481,506,489
491,570,485,503,486
494,626,487,503,489
494,634,488,508,495
497,623,491,524,502
498,549,490,517,500
494,447,489,484,496
492,396,490,469,496
492,367,488,472,495
490,372,489,479,491
489,381,491,487,487
489,407,491,482,489
492,461,491,488,491
492,523,492,488,493
491,604,493,487,492
492,634,495,490,493
493,629,499,494,495
492,598,504,502,498
496,501,503,502,495
494,417,498,492,494
492,382,493,484,493
492,371,486,497,491
493,377,479,519,496
495,387,484,499,494
494,433,486,490,490
492,489,487,465,490
492,557,487,487,491
492,622,489,482,491
491,634,491,478,494
492,626,490,485,491
493,561,492,481,493
492,456,491,483,491
491,402,491,478,490
490,371,493,499,491
491,372,491,509,494
494,380,491,505,494
492,404,490,486,493
493,456,490,488,492
494,517,490,501,495
493,596,492,496,495
494,636,492,496,493
494,629,493,473,490
490,607,494,484,492
491,513,496,493,495
492,424,495,494,491
492,385,492,485,492
491,371,490,488,492
493,375,492,485,491
492,385,489,487,492
492,425,487,488,491
492,480,489,486,492
492,548,490,490,492
494,618,489,487,490
492,634,491,484,490
492,625,493,489,490
490,574,499,490,491
492,469,499,490,494
492,406,503,487,494
492,374,499,493,493
494,370,492,508,496
496,381,495,529,498
499,401,495,527,496
494,450,496,471,492
492,508,495,469,488
490,584,487,483,494
492,631,485,477,496
493,632,485,476,494
492,613,489,479,491
494,525,488,489,489
492,431,492,488,492
492,389,488,497,494
494,371,488,517,496
493,377,490,505,494
494,382,490,495,497
494,418,490,478,492
492,475,491,467,490
492,539,490,474,488
490,614,491,488,490
490,636,493,492,493
492,627,490,488,492
493,582,488,494,496
495,480,491,509,496
494,411,491,517,496
495,376,492,511,492
493,370,490,479,490
492,375,489,474,491
489,396,491,492,491
492,441,491,501,493
492,502,492,497,493
493,572,491,491,491
490,629,490,481,493
492,633,490,490,494
492,622,489,484,491
491,538,490,464,492
493,440,490,484,491
493,395,492,498,494
494,369,492,505,494
493,375,491,501,496
494,383,489,489,492
488,409,488,460,488
489,465,491,488,492
491,527,490,496,494
492,609,493,504,495
494,637,493,498,496
495,627,491,499,492
493,588,488,477,490
493,493,490,487,490
491,415,489,491,493
494,380,492,500,490
493,369,490,473,492
491,376,492,500,494
496,391,494,515,496
496,436,496,508,495
496,495,492,503,492
494,563,490,489,490
489,624,488,471,488
488,632,488,478,489
488,620,487,466,490
492,551,491,479,490
492,448,491,483,490
491,396,491,484,491
493,366,488,484,492
492,371,489,487,493
492,381,492,493,492
493,403,491,509,496
495,463,493,523,498
496,523,495,511,494
494,599,492,480,489
492,632,488,461,489
490,629,491,481,492
492,601,489,484,490
492,505,491,485,491
490,418,491,482,490
490,383,493,491,491
491,370,494,520,496
493,376,494,531,499
495,390,494,503,494
493,426,488,450,488
490,484,486,471,489
490,553,489,478,489
492,619,489,482,490
492,634,490,488,493
493,624,492,489,491
493,565,492,494,492
493,461,499,481,492
493,404,500,492,494
492,372,510,496,496
492,374,515,496,495
494,380,515,487,491
489,403,506,498,492
492,453,496,504,492
492,512,487,495,491
491,586,472,499,492
494,632,475,491,494
495,633,483,513,500
496,611,484,514,501
497,523,488,520,496
495,428,488,481,490
491,386,486,453,489
492,370,487,465,486
490,372,487,475,488
490,383,488,485,490
492,422,491,498,491
492,478,491,511,496
494,545,492,518,495
492,619,493,473,490
491,633,489,476,489
492,624,488,472,489
494,576,492,483,490
492,472,491,482,493
492,408,491,486,494
492,374,490,494,494
492,370,491,497,491
493,377,491,488,491
492,398,490,498,492
493,445,490,507,492
494,507,491,498,492
492,580,491,468,493
492,631,493,482,491
492,633,493,489,491
490,619,495,497,491
494,530,493,496,491
492,434,489,493,492
492,392,490,500,493
492,372,488,498,494
493,374,488,481,489
492,381,490,475,493
493,414,493,491,491
492,470,493,493,490
491,533,490,490,492
493,610,489,490,492
493,635,489,499,491
491,628,487,495,493
494,587,491,488,490
492,484,491,493,491
493,412,490,496,491
494,379,491,492,490
492,369,489,482,489
492,375,491,482,490
491,394,493,495,492
493,440,493,500,493
493,499,492,501,491
492,570,489,490,492
494,630,489,505,493
493,635,488,485,489
489,619,489,460,490
490,544,491,483,491
492,442,491,486,490
491,394,491,489,493
492,370,489,492,491
494,372,489,492,492
492,382,490,491,493
492,408,490,488,491
491,464,491,489,490
491,524,493,488,491
493,604,493,487,491
493,634,492,496,494
495,628,491,499,497
497,595,489,511,496
495,500,489,499,495
494,417,492,494,493
491,384,490,480,485
487,368,489,466,485
490,374,490,483,489
491,389,493,489,490
492,430,496,488,491
490,491,496,493,492
492,560,491,495,493
491,624,492,493,492
492,634,488,487,492
493,621,486,493,489
491,559,488,493,491
494,455,489,499,491
494,400,489,503,493
494,371,488,512,491
491,373,491,480,490
492,378,493,479,490
491,403,489,493,493
493,457,491,480,490
492,515,488,475,492
494,594,488,480,492
493,634,491,493,492
491,633,491,497,491
493,605,492,498,493
492,513,490,504,492
492,423,488,497,492
492,387,490,493,495
495,371,494,491,492
491,376,493,474,489
493,384,493,477,490
492,425,492,485,491
493,482,492,493,492
493,551,490,504,494
492,622,485,510,496
496,637,488,496,491
495,625,489,484,489
494,571,490,480,490
492,467,490,484,490
491,407,491,482,491
491,371,488,479,490
493,370,491,489,489
491,379,491,485,489
491,398,492,486,491
493,450,490,488,492
493,509,489,488,492
492,586,491,492,493
494,635,492,492,491
491,632,494,492,491
490,616,493,490,492
495,524,492,490,491
492,430,490,490,492
493,390,489,489,489
492,370,489,492,490
493,373,488,498,491
493,386,490,506,492
495,418,490,501,490
491,476,492,487,491
492,540,491,478,491
491,614,492,486,490
491,634,491,501,491
493,627,491,509,496
496,582,490,517,495
494,479,487,475,490
493,408,489,478,489
491,373,488,472,490
491,369,490,484,490
493,377,489,487,490
492,395,487,487,492
492,443,490,487,490
492,502,490,493,491
493,572,489,498,492
495,631,491,505,492
494,636,492,503,493
494,618,490,496,492
492,538,491,490,490
491,439,490,479,490
492,392,491,481,492
491,373,490,482,490
493,371,492,488,490
493,383,490,489,492
492,413,490,491,490
492,466,490,490,491
491,528,488,489,490
493,606,490,490,490
492,635,493,491,492
491,628,492,489,491
493,588,492,492,491
492,491,493,492,492
492,416,492,495,490
493,380,490,501,491
493,368,488,508,492
493,380,491,504,492
493,390,490,497,492
494,436,489,489,492
492,496,489,479,492
493,565,491,490,492
494,628,491,504,494
494,636,492,500,489
490,621,491,475,488
493,551,490,485,490
491,448,493,481,490
491,397,493,484,492
494,369,491,488,492
492,374,490,489,491
491,380,488,490,492
491,404,487,489,492
492,461,491,490,492
492,520,490,491,492
493,600,490,489,493
494,635,490,492,496
493,630,490,491,493
492,602,490,493,495
492,503,491,493,495
492,420,490,491,492
491,385,492,493,492
491,370,492,492,490
493,375,490,489,488
492,386,493,489,489
492,428,491,488,488
491,487,490,488,489
492,552,491,488,489
492,620,490,494,491
492,635,489,495,492
493,623,491,495,494
494,567,490,494,492
493,461,491,499,492
492,404,491,510,493
493,372,493,504,494
494,373,491,489,492
494,379,491,483,491
495,402,489,485,491
492,454,490,485,488
492,513,490,481,489
494,589,488,483,489
492,633,492,489,491
491,632,491,487,492
494,609,492,487,492
494,519,492,490,492
493,427,491,491,491
493,390,491,492,492
492,369,489,491,490
492,376,492,492,490
492,387,493,493,489
492,422,492,493,493
493,480,491,492,491
492,545,491,493,490
490,616,488,493,492
491,636,490,486,491
490,626,491,487,494
491,576,491,491,493
494,471,491,490,490
492,407,492,491,492
493,372,493,490,490
493,369,490,490,491
493,377,490,491,492
495,397,493,489,491
492,447,490,491,493
492,505,490,491,492
492,582,491,491,490
491,630,492,490,491
493,631,489,491,492
491,619,492,492,494
495,532,494,496,493
492,434,491,490,493
492,393,491,491,492
491,372,492,495,494
492,374,490,500,498
494,383,492,500,498
491,416,492,489,494
493,471,491,487,492
493,535,489,490,490
493,610,489,489,490
492,636,491,490,490
494,630,493,492,491
494,583,491,493,491
492,486,491,496,493
491,413,491,495,494
492,376,492,497,498
491,371,490,486,493
494,376,491,487,490
491,390,488,487,493
492,441,489,489,490
492,499,490,488,484
490,566,488,486,491
492,630,491,493,496
492,634,492,492,500
494,619,490,493,502
495,544,491,495,503
493,443,491,497,503
494,397,492,500,503
494,369,491,498,497
492,373,491,497,490
494,382,490,492,487
493,408,489,488,487
492,464,489,483,489
491,526,490,490,493
492,606,491,493,495
493,637,489,494,494
490,630,491,492,492
491,595,492,491,485
491,496,491,490,490
492,417,491,493,488
493,379,489,490,483
491,369,492,483,486
493,376,491,490,488
493,387,492,489,488
491,434,490,489,489
492,492,491,493,491
492,560,489,490,492
492,624,490,491,488
491,635,492,495,487
493,621,487,496,486
492,558,491,494,489
493,453,490,494,487
493,399,489,495,487
494,369,488,484,488
492,372,490,490,488
491,379,490,487,491
491,407,492,491,493
493,457,491,492,495
492,518,492,494,501
494,596,491,495,505
494,633,491,495,505
493,632,492,494,498
494,605,495,487,492
494,509,492,481,497
493,423,491,485,497
493,386,490,491,494
491,371,491,496,493
491,377,489,498,489
491,385,488,497,488
492,427,490,489,489
493,483,491,489,491
492,550,492,491,489
492,620,490,494,492
493,634,492,493,490
492,626,491,493,488
493,571,490,491,488
492,465,491,491,485
493,404,490,490,486
492,371,491,493,491
492,369,492,495,492
493,381,493,498,497
493,402,492,497,493
492,451,490,503,490
493,509,490,493,479
492,587,490,488,485
494,631,491,493,488
493,631,492,491,497
491,615,495,489,503
492,524,494,492,509
494,430,491,491,506
493,391,491,489,506
493,369,492,493,507
495,375,492,495,500
494,384,491,494,491
491,420,491,495,486
492,477,491,498,481
492,540,489,495,487
495,614,489,494,487
494,636,489,493,499
493,627,490,489,506
492,583,494,492,511
493,479,492,495,503
491,409,491,494,499
493,376,490,492,487
493,371,491,493,483
494,379,492,493,492
493,396,490,494,498
493,444,492,495,494
494,504,491,495,490
494,577,491,494,497
494,631,493,495,497
496,632,490,496,487
493,622,491,497,491
496,537,493,500,503
494,440,492,498,496
494,395,493,497,479
493,372,491,496,490
495,373,491,496,490
492,384,493,492,489
495,411,490,487,481
492,469,489,485,484
492,531,488,487,485
492,606,490,495,487
492,637,489,499,488
493,628,492,503,482
495,588,489,503,486
494,492,491,504,490
494,414,491,490,490
492,379,492,485,491
493,370,492,473,489
492,376,490,488,492
494,390,488,491,492
493,437,489,492,490
493,496,489,494,491
494,566,490,492,490
490,628,494,493,488
493,636,491,498,498
494,624,489,495,505
495,550,491,498,504
494,450,496,499,506
496,400,500,506,523
496,372,498,504,530
495,376,495,500,514
494,384,493,500,504
493,408,489,495,492
494,460,488,492,476
492,521,487,486,470
490,600,489,486,471
492,633,489,488,480
493,628,490,491,487
494,601,492,497,498
495,504,492,494,496
492,418,492,493,498
493,383,489,491,493
494,371,490,493,496
491,377,490,492,481
492,386,489,491,482
493,431,492,493,489
493,488,490,494,498
492,556,491,495,503
494,624,491,497,506
494,633,492,494,500
491,625,492,490,493
493,562,491,493,478
492,458,489,493,481
492,403,490,494,483
491,371,490,494,487
492,369,489,493,488
492,382,492,494,489
493,400,489,494,489
492,455,491,494,490
492,515,491,493,489
492,590,492,495,492
492,634,490,493,492
494,631,492,493,490
492,609,490,496,494
493,518,491,495,493
492,426,491,495,492
493,388,490,494,492
492,371,492,495,493
491,376,491,493,493
494,385,490,492,492
494,423,491,492,490
492,480,491,494,492
492,547,489,493,492
491,620,492,493,493
494,636,490,495,493
492,627,490,495,493
492,578,492,496,493
493,472,491,495,493
493,406,491,494,491
492,371,490,493,493
492,370,492,493,491
492,379,492,494,491
491,400,493,494,491
493,447,490,493,492
492,508,491,493,492
493,581,492,494,492
491,629,490,493,492
493,631,491,493,492
494,616,491,496,494
492,528,492,494,493
492,434,492,495,493
492,391,492,495,494
494,372,492,495,492
491,376,494,495,492
494,382,494,496,493
492,418,492,494,492
493,474,493,494,492
492,537,492,494,490
491,613,492,495,491
493,634,491,494,491
493,627,489,495,491
493,586,494,494,494
494,483,494,495,494
493,413,494,494,491
493,377,495,494,491
492,370,491,495,494
494,378,490,494,491
493,393,488,495,491
492,440,489,494,492
493,501,490,493,491
493,570,491,493,494
493,629,490,493,491
494,633,492,495,493
492,618,492,494,492
493,542,492,494,493
493,443,493,494,491
492,396,491,494,494
493,370,492,492,492
492,374,492,493,492
494,381,491,493,492
494,408,490,492,492
493,466,491,494,492
493,525,491,494,491
492,606,490,493,491
493,635,491,493,492
491,631,492,495,492
493,595,492,497,493
493,498,493,496,494
493,415,492,495,493
493,382,492,494,493
494,368,491,493,492
494,376,491,493,491
493,389,492,493,491
492,435,491,494,493
493,494,490,494,493
492,563,491,493,492
494,623,490,493,493
494,634,491,493,493
495,622,490,497,491
492,559,492,494,493
494,455,492,495,492
494,400,491,495,493
494,371,490,493,493
494,374,491,494,493
494,381,490,495,492
491,407,492,494,493
493,459,492,495,491
492,517,490,494,493
494,598,490,494,492
493,635,492,495,492
492,629,492,493,491
492,605,492,496,492
495,508,493,496,494
493,422,492,496,493
493,387,494,496,493
491,372,493,494,492
493,376,492,495,491
493,386,491,494,494
492,428,492,495,493
492,485,491,494,491
493,552,491,494,490
493,620,489,495,492
494,635,491,496,493
492,626,492,494,491
493,570,491,495,492
493,466,492,495,493
492,406,493,495,493
493,372,491,496,494
494,371,492,494,493
492,382,492,495,492
494,399,491,493,491
494,452,491,494,492
494,512,492,496,492
492,590,491,492,492
494,634,493,495,490
493,632,490,495,493
495,612,491,494,492
494,523,492,495,492
493,430,492,495,493
494,391,490,496,491
490,374,491,494,493
493,376,491,495,493
493,386,491,495,494
493,420,493,495,491
491,477,491,494,492
493,542,491,493,491
491,616,491,495,491
491,636,492,495,491
492,627,493,495,491
492,581,493,495,494
494,477,493,495,492
493,409,491,495,492
493,372,491,493,491
494,371,490,494,492
494,379,491,495,492
491,398,492,496,492
494,445,490,495,492
493,505,491,494,492
493,577,489,494,493
494,630,491,495,493
493,633,493,495,490
492,619,491,494,493
492,536,494,496,493
494,438,492,495,493
493,395,492,495,493
493,371,491,495,490
493,372,492,496,491
493,384,492,495,490
492,415,490,495,493
493,469,489,494,493
493,532,490,494,493
493,609,490,495,491
494,634,490,494,491
493,628,492,496,494
494,587,492,494,492
494,489,493,495,492
493,414,492,495,491
494,378,493,496,491
493,372,491,495,493
493,377,492,494,492
492,393,491,496,492
492,440,492,495,493
492,497,492,495,491
493,564,489,496,492
492,629,490,494,492
493,633,493,496,492
492,622,492,497,493
492,550,492,496,493
492,445,491,495,492
492,397,491,494,492
493,370,489,494,491
492,371,490,492,491
493,381,490,493,490
492,407,492,494,491
492,463,490,494,492
493,524,491,494,491
491,603,490,495,491
494,634,490,494,492
494,629,491,494,493
495,597,494,495,492
493,503,495,495,494
494,419,496,495,492
493,384,494,498,493
491,371,493,495,491
493,377,491,496,492
493,387,489,495,493
493,431,492,494,492
493,489,491,495,492
492,556,492,493,492
493,623,491,494,492
493,634,490,497,492
492,624,489,494,492
495,565,492,496,492
492,457,490,495,491
493,401,489,494,492
494,371,491,493,492
494,371,490,494,492
492,382,492,494,492
495,402,493,496,491
492,455,491,495,491
494,516,491,494,491
495,593,491,494,490
494,634,492,496,491
494,632,491,495,490
492,610,493,495,493
495,515,492,496,493
494,426,492,494,491
493,388,491,497,491
492,373,491,495,493
493,376,493,495,491
492,385,490,494,494
493,425,490,494,492
493,481,490,495,493
494,546,491,494,491
493,619,493,495,493
493,636,491,494,492
494,624,491,495,494
496,574,491,496,493
494,471,493,496,493
493,407,492,495,493
493,375,492,497,492
494,371,490,495,491
492,379,490,496,490
491,400,492,495,490
492,449,491,494,491
493,506,491,494,491
492,585,490,494,492
492,630,491,493,491
494,631,489,494,492
495,616,490,494,492
491,529,492,496,492
494,433,491,495,491
493,392,491,496,493
493,370,491,496,493
492,376,490,495,493
494,385,494,496,492
492,417,491,495,494
492,476,492,493,490
492,537,491,494,492
493,612,490,495,491
492,637,491,495,490
491,627,491,493,492
495,581,492,496,493
493,482,490,496,493
492,410,491,495,492
494,375,490,493,491
494,370,489,495,493
492,378,492,496,493
494,394,490,494,489
493,441,490,495,491
493,501,490,495,491
492,573,490,494,492
493,629,490,494,492
494,635,492,496,493
493,618,492,494,494
492,541,491,496,494
494,441,491,495,493
493,397,491,495,491
492,370,493,495,493
491,374,490,493,491
493,383,491,496,492
491,411,491,495,492
492,466,490,494,491
492,527,491,495,492
494,604,490,494,492
493,637,491,495,492
494,628,492,496,491
492,593,493,495,491
492,495,492,495,490
493,415,491,495,491
493,379,492,494,490
493,371,492,496,492
494,375,491,495,492
494,387,491,493,492
494,435,491,494,491
491,493,492,494,493
493,563,491,493,490
493,626,492,495,491
492,634,491,496,491
492,624,491,497,491
492,553,490,496,492
493,452,490,495,492
494,399,490,495,490
492,371,492,494,490
493,371,491,494,490
493,380,492,494,489
491,405,490,495,492
493,460,491,495,491
493,519,491,495,491
492,598,492,495,490
494,634,491,494,492
495,630,491,494,493
493,604,490,495,491
494,509,491,495,493
492,420,492,495,492
493,384,491,494,491
494,371,491,494,492
494,378,491,496,492
494,385,490,494,492
492,430,491,495,491
493,485,491,495,492
494,552,490,493,492
494,621,490,495,491
493,634,491,496,491
491,624,488,493,490
491,570,492,497,492
493,464,491,496,491
493,405,491,495,490
493,371,493,494,492
492,372,492,495,492
494,380,492,496,492
491,399,490,494,493
494,452,491,495,492
493,513,490,494,491
494,589,491,496,491
494,633,489,495,490
493,631,492,497,493
492,612,490,496,493
493,523,491,496,493
494,429,491,495,492
493,388,492,497,491
491,370,489,494,492
492,375,492,496,491
492,385,492,497,492
492,422,492,495,491
493,477,491,495,492
492,544,492,494,492
495,615,492,494,491
492,633,490,494,489
493,625,490,493,490
494,579,492,495,492
493,476,490,496,491
494,408,489,495,491
493,374,493,495,494
492,372,491,496,491
491,379,492,495,491
492,398,492,496,492
492,445,490,495,491
492,506,491,496,491
494,577,490,495,493
494,631,491,496,493
493,634,491,496,493
494,617,493,496,494
493,534,491,495,492
493,437,491,494,493
493,393,491,497,493
492,371,490,496,493
492,374,490,495,493
495,382,492,497,493
496,413,490,494,490
492,471,490,495,490
492,533,491,494,491
491,611,491,495,490
494,635,491,496,493
492,628,491,494,492
493,589,491,497,493
494,487,491,496,493
493,413,490,495,493
493,379,490,494,493
493,368,492,494,492
492,379,491,494,493
494,390,492,497,490
492,438,492,495,491
493,498,491,495,491
492,566,490,495,492
492,626,490,494,492
492,634,492,495,492
494,620,490,495,493
495,547,490,496,493
495,447,491,495,492
493,398,493,497,494
495,370,491,495,491
494,374,491,496,492
492,382,491,497,493
492,409,489,496,492
492,464,489,495,491
492,522,490,494,492
492,604,490,493,492
494,635,492,496,491
492,629,492,496,491
492,598,492,497,491
492,502,491,496,491
492,417,491,495,491
494,382,490,494,491
491,370,492,495,490
492,376,492,495,491
492,389,492,496,492
494,429,490,495,492
491,489,490,494,491
493,558,492,495,490
492,623,491,495,491
494,634,491,494,491
494,625,491,495,494
493,561,493,495,494
493,458,492,496,491
492,401,492,495,491
494,369,492,494,492
495,371,490,494,493
494,380,492,497,493
492,402,489,495,492
493,458,490,495,491
493,516,490,494,492
494,594,489,494,492
495,634,491,495,491
492,633,493,495,494
495,606,493,497,491
493,513,492,496,492
494,424,491,495,493
493,387,490,495,493
495,374,492,495,491
493,376,490,496,491
494,385,492,497,492
492,426,490,496,492
493,481,491,495,492
493,550,491,494,492
495,618,492,496,491
493,637,491,496,494
495,626,491,494,492
494,572,489,494,492
493,469,492,496,492
494,407,491,495,491
492,374,493,494,493
495,371,493,496,491
492,379,490,495,493
495,397,489,495,493
494,449,490,495,492
493,511,491,495,491
494,584,489,494,492
493,634,492,496,493
494,634,490,496,494
494,616,490,495,494
495,528,491,496,493
493,433,491,495,493
493,391,491,495,491
494,372,491,497,492
491,375,492,497,492
492,384,493,496,491
495,418,491,495,491
492,474,491,495,492
493,540,490,493,491
495,612,491,494,493
495,636,491,496,493
494,629,491,496,494
493,582,492,495,492
493,481,491,496,492
494,410,490,496,492
493,375,493,495,492
493,369,491,494,493
495,378,491,496,492
492,397,489,494,493
494,444,492,495,492
494,503,491,495,492
493,575,491,496,494
493,631,493,496,492
495,633,491,495,491
493,619,493,494,495
494,542,492,496,492
493,440,492,496,492
493,394,492,494,492
494,369,491,496,491
492,372,489,495,492
493,382,491,494,494
493,413,490,496,492
493,467,490,494,492
492,529,491,495,491
492,608,492,493,493
493,636,492,495,492
494,630,492,496,492
495,589,491,494,493
494,493,491,495,492
493,415,491,494,493
494,381,493,494,494
493,371,491,494,492
494,376,492,496,491
492,391,493,496,491
493,435,492,495,492
493,494,490,494,492
492,561,490,493,491
492,627,491,495,493
494,635,491,495,493
493,624,491,496,494
494,554,491,496,493
493,451,492,496,492
492,398,491,494,493
495,372,493,495,491
493,372,492,494,491
493,379,492,494,491
494,405,492,493,491
493,461,492,495,491
494,520,491,495,491
493,602,491,495,493
493,637,493,496,492
492,632,492,496,492
492,604,490,494,493
494,506,492,495,493
494,419,490,495,491
494,384,491,494,490
493,369,490,494,493
494,375,490,494,491
493,388,493,495,494
493,429,491,494,491
493,488,491,494,492
493,555,491,496,491
492,623,492,495,491
493,636,491,495,493
494,624,491,494,494
492,569,491,495,492
494,462,491,495,492
494,404,490,495,494
495,370,490,494,494
494,373,491,494,491
494,381,491,496,491
496,400,490,494,491
493,455,492,496,491
493,514,492,494,491
494,589,491,493,494
493,635,492,494,492
494,631,493,495,491
494,612,491,495,494
494,522,492,496,494
494,429,491,496,493
493,389,492,495,491
492,373,493,496,494
495,375,490,495,491
493,385,491,493,490
493,421,490,494,491
493,479,490,495,492
492,546,490,493,491
494,618,492,494,491
494,638,490,496,493
492,629,492,496,493
492,580,491,496,492
493,474,491,495,492
494,407,491,495,491
492,373,490,494,494
493,368,491,493,492
494,378,491,494,492
495,395,490,494,493
494,448,492,496,492
493,506,491,495,492
494,579,492,496,493
493,634,493,496,492
492,635,493,497,492
492,620,493,494,493
495,533,493,495,492
492,435,491,494,492
493,392,492,495,491
492,372,493,494,490
493,372,493,494,490
494,383,490,494,491
493,415,493,495,492
493,470,492,494,491
493,535,491,493,489
493,611,492,494,491
493,635,490,493,491
494,631,491,496,493
493,587,492,495,493
494,488,491,496,492
492,414,492,494,490
494,377,493,495,489
494,370,490,496,491
493,380,490,494,492
495,394,491,497,493
495,440,489,494,491
493,499,490,493,492
493,567,489,493,492
492,630,491,493,492
493,636,491,494,491
494,620,490,495,494
493,547,492,494,492
493,445,492,496,492
493,397,492,494,491
493,372,490,495,492
494,371,489,494,492
492,382,490,496,492
492,411,491,495,490
493,464,490,494,492
493,524,491,495,494
493,605,493,495,490
494,636,491,496,491
494,629,489,494,492
495,595,491,495,493
494,500,491,495,493
494,419,491,494,492
492,383,490,494,490
492,368,491,495,492
491,378,491,496,491
492,389,491,497,491
491,432,490,494,491
493,491,490,495,491
494,557,489,493,491
492,626,491,494,491
493,635,492,494,490
492,624,493,496,493
495,559,491,495,492
493,457,492,495,492
494,400,491,494,492
493,372,493,495,490
493,371,492,494,490
492,379,492,495,491
496,403,488,494,491
492,458,490,493,490
493,515,490,494,490
493,597,492,494,490
494,633,491,494,491
494,629,492,496,491
492,606,490,494,493
492,513,491,496,493
493,424,490,495,493
492,389,491,496,492
492,372,492,496,493
494,376,490,495,490
492,386,491,493,492
493,424,492,494,489
492,484,492,494,491
493,549,493,493,489
492,619,491,495,493
494,636,490,493,491
491,627,491,494,491
494,571,490,494,493
494,468,491,495,491
494,406,490,495,492
494,371,491,496,491
493,372,489,495,492
492,379,492,493,493
493,400,488,494,492
493,451,490,493,491
493,509,490,494,490
493,585,491,495,492
493,634,491,494,491
494,634,491,496,492
492,618,491,496,492
492,527,492,496,492
492,431,490,494,492
493,391,492,494,493
493,371,490,494,492
494,373,490,493,492
494,384,491,493,491
494,418,490,496,491
492,476,490,494,490
493,542,492,495,491
493,614,489,494,492
494,638,490,495,493
494,629,490,493,491
495,581,490,495,492
493,482,491,494,492
493,410,492,494,491
491,374,489,493,492
495,372,490,495,492
494,379,490,495,492
493,396,492,495,491
493,444,490,494,491
492,503,491,494,492
493,575,489,494,493
494,632,490,495,493
493,634,491,494,491
494,619,490,495,494
495,538,492,495,492
494,439,491,494,493
493,395,490,495,493
495,371,490,495,493
494,372,491,494,493
493,384,491,494,491
493,410,491,495,494
493,468,490,494,493
493,531,491,495,492
493,609,491,496,491
492,634,490,494,493
492,631,491,496,492
494,589,490,496,490
493,492,492,495,492
494,416,492,495,492
493,381,492,494,493
495,369,492,493,491
494,378,491,495,493
493,389,492,494,491
493,436,491,494,491
492,496,492,493,490
493,564,489,495,490
493,626,491,495,491
491,635,492,492,491
495,621,491,493,492
496,552,493,494,492
493,451,492,495,491
492,399,489,494,493
493,372,491,494,492
492,373,490,496,492
492,382,491,494,492
492,408,492,495,490
491,460,491,492,491
493,520,491,492,489
493,601,490,496,491
494,633,490,494,493
494,630,491,495,493
494,600,491,495,494
493,505,492,495,493
493,420,490,494,491
494,382,489,496,493
492,370,489,495,490
492,376,491,495,491
493,387,489,495,494
493,428,490,493,491
494,487,490,494,491
494,553,490,493,492
495,621,490,494,493
494,637,490,495,490
493,624,493,495,494
492,568,494,494,492
494,462,498,495,493
492,404,498,495,492
493,372,505,494,492
493,371,505,492,492
492,381,507,495,494
495,402,501,494,491
492,454,498,493,491
493,514,492,494,492
492,592,487,496,491
492,633,483,494,492
494,631,481,494,490
493,611,481,496,491
494,517,486,495,492
494,427,487,494,492
494,388,487,493,490
492,373,489,495,493
493,376,489,493,490
494,386,489,496,492
492,424,490,496,492
493,480,489,495,491
493,546,489,495,493
493,618,490,494,492
493,638,491,493,492
494,626,488,494,493
495,576,489,494,493
494,474,490,495,492
493,409,490,494,491
494,374,490,496,493
494,370,489,494,491
492,379,492,494,491
492,397,492,493,491
494,447,490,494,491
492,507,490,493,491
494,579,491,494,490
492,633,490,496,493
492,634,491,495,492
492,620,491,496,492
492,530,490,495,492
493,434,491,495,493
493,393,490,493,490
492,368,490,493,491
494,372,489,493,493
494,383,490,495,490
492,415,490,495,493
494,473,491,494,491
492,537,491,496,491
491,613,491,496,491
493,637,491,494,491
493,628,491,493,493
493,587,490,494,492
493,485,491,494,492
492,410,491,494,492
493,375,489,494,492
494,370,490,495,492
493,377,491,493,491
492,394,490,497,492
494,439,490,494,491
492,499,491,494,490
493,569,491,493,490
493,629,490,495,491
491,635,489,494,492
494,622,492,495,491
495,545,491,496,492
494,443,491,495,493
494,397,491,496,494
494,369,491,494,491
492,373,492,494,494
494,382,492,494,490
492,408,491,493,491
492,464,491,493,491
493,526,490,493,491
494,607,491,495,491
493,636,490,494,491
493,629,492,496,493
492,595,491,496,492
492,499,491,496,493
493,418,491,493,492
493,380,493,495,490
492,371,490,495,492
494,374,490,493,491
493,386,490,493,492
495,432,489,494,492
494,493,492,494,493
493,560,491,493,491
495,626,492,495,492
492,636,493,495,490
492,623,492,495,491
493,560,491,495,493
493,455,491,494,491
492,401,491,495,491
494,368,490,492,492
494,371,490,494,493
493,381,490,494,493
493,405,490,492,491
492,456,490,494,491
491,517,488,492,491
490,598,491,494,489
492,633,490,493,490
493,629,490,493,490
492,606,490,495,490
492,510,491,494,493
493,423,491,494,490
492,384,490,493,490
492,369,489,492,492
494,375,491,494,491
492,385,489,494,493
492,426,490,492,491
492,483,490,494,491
492,549,490,494,491
491,620,491,493,493
492,635,491,493,490
493,622,491,495,491
491,570,490,494,492
493,464,491,493,491
492,404,490,494,492
492,372,490,495,492
493,370,489,493,490
490,379,490,493,491
494,398,492,494,489
491,450,490,495,491
492,509,490,494,490
491,585,489,492,491
494,631,491,494,490
493,632,489,494,490
492,614,494,495,490
492,524,492,495,492
493,430,491,495,492
494,390,491,495,490
491,371,489,494,493
493,373,491,494,491
493,383,492,494,491
493,417,491,494,492
493,478,490,494,493
493,541,490,494,491
492,617,492,494,493
494,638,491,495,493
493,629,491,496,494
492,583,491,496,493
493,480,491,494,492
493,409,492,495,491
494,374,490,494,490
493,369,491,492,491
493,376,490,493,492
495,393,490,493,491
493,446,492,494,492
493,504,491,494,492
494,579,491,496,493
492,632,492,495,491
492,634,492,494,490
493,621,490,494,494
492,536,492,495,493
493,438,491,494,491
494,394,490,494,492
495,369,490,494,493
494,374,490,494,491
493,383,491,495,494
492,410,491,493,492
492,470,490,492,491
491,532,491,494,489
491,609,492,495,491
493,636,491,492,492
491,630,491,492,491
494,588,492,497,493
493,491,492,495,492
493,413,490,495,493
493,378,490,494,494
494,370,490,494,491
492,378,491,496,492
494,388,489,495,491
492,438,491,495,492
493,496,492,495,491
492,564,491,495,493
493,629,491,494,492
494,635,492,495,491
494,624,491,494,493
494,552,492,495,493
493,449,492,495,493
493,398,491,494,491
491,372,492,493,492
493,372,493,493,491
493,380,493,493,490
493,404,492,493,491
493,460,489,494,491
494,523,490,494,490
493,601,489,493,491
493,635,490,495,492
492,632,491,495,491
491,601,491,497,492
492,505,492,494,492
493,418,491,495,491
492,383,490,495,494
492,369,491,493,491
494,374,490,493,492
494,385,489,494,493
493,431,491,494,492
493,489,490,494,491
494,555,491,496,492
493,625,492,495,491
492,636,492,494,490
492,623,490,494,494
494,564,492,494,492
493,460,491,495,491
494,401,490,493,493
495,370,490,493,493
493,371,491,495,493
492,380,491,493,492
494,400,491,495,491
491,453,491,493,491
492,515,491,494,490
492,592,492,494,490
493,632,492,493,492
492,633,492,495,492
495,608,490,496,491
492,518,491,494,492
493,426,490,494,492
492,388,491,495,493
492,371,490,492,491
494,377,492,494,490
493,385,489,494,490
493,422,490,493,490
493,481,490,493,490
493,544,490,493,491
492,619,493,495,493
493,638,491,494,491
494,628,492,496,493
492,578,492,496,492
493,472,491,495,492
492,407,491,494,491
493,373,489,493,490
492,369,490,495,491
491,379,491,493,492
494,397,492,494,493
493,447,494,494,493
492,506,493,493,492
493,584,491,495,491
494,630,491,494,491
492,633,491,493,490
493,618,492,494,490
492,530,491,494,493
493,435,491,493,491
494,392,491,495,491
491,368,490,494,493
493,375,490,494,493
493,384,490,495,493
492,414,489,493,491
493,474,489,493,490
493,535,489,494,490
491,613,492,494,491
493,636,491,493,491
493,627,491,492,491
494,584,491,497,492
494,485,491,495,492
492,412,491,494,494
493,378,490,495,494
492,372,491,496,491
492,379,491,495,492
495,391,489,494,491
493,440,491,494,492
492,500,491,493,492
495,570,490,493,491
495,629,490,494,493
493,634,492,493,491
492,623,490,496,491
494,542,491,496,492
493,444,491,496,492
492,398,492,495,490
491,372,493,494,493
492,373,490,493,491
494,384,491,495,491
494,406,490,493,492
494,466,490,493,492
494,527,490,494,493
492,606,490,495,491
494,635,490,495,491
492,631,489,495,493
494,595,493,495,491
493,498,492,495,492
493,416,491,494,491
494,382,491,497,492
495,369,489,494,490
493,376,492,495,494
492,390,490,496,493
492,434,491,495,492
493,493,491,494,492
494,558,493,494,491
492,626,492,495,492
493,633,490,493,492
495,623,490,492,492
495,558,490,495,492
492,454,491,495,492
495,401,490,493,491
493,370,490,496,492
491,372,492,495,491
492,381,492,495,490
492,405,493,494,491
493,457,490,494,492
493,518,491,493,491
492,599,492,493,492
494,635,490,494,493
493,632,491,495,493
492,605,491,493,492
494,509,491,495,493
493,421,491,494,492
492,385,493,495,491
492,370,492,493,491
494,375,492,493,491
491,386,491,496,492
495,426,490,494,491
492,485,491,494,492
492,551,490,494,493
493,621,491,494,492
491,636,490,494,492
494,626,493,495,491
495,570,491,495,492
493,464,491,495,492
493,404,490,494,491
495,370,491,493,492
494,371,491,494,490
492,379,492,495,494
493,400,493,493,490
492,451,491,494,492
493,512,490,494,491
492,589,491,495,490
494,632,489,495,491
494,631,489,495,491
491,616,490,494,492
495,522,490,494,492
494,431,490,494,492
493,390,492,494,490
491,371,490,494,492
494,374,490,493,491
492,385,492,496,491
491,421,491,494,491
492,478,490,494,492
492,541,490,493,491
493,615,491,495,491
492,636,490,495,493
494,627,491,495,495
496,582,490,495,494
494,478,492,495,492
493,409,491,494,492
493,376,492,493,492
494,369,493,493,491
492,377,492,493,491
494,394,492,493,491
494,444,491,495,492
493,504,490,494,492
493,578,493,495,494
494,632,491,495,493
493,634,492,495,491
491,621,492,495,492
495,534,490,495,492
493,438,491,493,492
493,392,492,493,491
493,369,492,493,492
494,373,490,492,491
493,384,492,495,489
493,411,490,493,491
492,470,492,493,491
491,532,492,495,491
491,610,491,495,492
492,637,491,494,490
493,628,490,495,493
493,588,492,494,492
493,490,490,495,491
492,412,490,494,492
494,377,489,492,492
494,370,490,494,490
492,376,492,495,493
492,392,491,492,490
493,437,491,494,491
492,496,491,494,491
492,566,492,493,490
492,627,492,495,492
494,632,488,493,491
492,623,491,494,493
494,549,490,494,493
493,447,490,493,493
493,398,490,493,491
493,368,490,495,491
491,371,489,493,492
492,380,492,493,490
492,406,491,493,492
493,461,491,493,492
493,522,491,493,490
491,603,492,494,493
494,636,492,493,491
493,632,492,495,492
492,600,491,496,493
493,504,491,494,492
492,417,491,493,492
492,382,492,494,493
494,371,491,492,491
494,373,491,493,492
494,385,489,492,492
494,430,490,494,491
492,488,490,493,492
492,556,491,492,490
492,626,492,495,492
491,636,492,495,491
492,625,493,495,491
494,564,492,495,493
492,458,492,495,493
493,404,492,493,492
494,368,491,493,493
494,372,490,494,493
493,381,491,494,492
493,400,491,492,491
492,455,490,494,491
493,515,490,494,490
491,594,492,494,490
493,632,491,492,491
493,631,491,495,492
491,610,492,493,491
493,517,491,494,493
492,425,491,494,491
493,386,489,493,491
494,369,489,492,492
492,376,492,494,492
493,385,489,493,490
492,424,490,493,491
493,480,490,493,492
492,546,490,494,493
492,619,491,493,491
494,637,493,494,491
494,625,489,493,491
491,578,492,495,491
492,470,490,494,491
492,407,491,494,491
492,373,492,492,491
493,369,492,493,491
492,379,489,494,492
492,398,491,493,491
492,447,490,493,491
491,507,491,493,490
493,583,490,494,491
492,631,490,494,492
492,634,490,492,492
494,615,492,492,491
494,529,491,494,492
493,434,492,494,492
492,392,491,493,492
492,373,491,493,493
492,376,489,494,492
491,384,490,495,492
491,416,492,494,491
494,473,490,493,491
491,536,490,494,493
494,613,493,492,492
494,636,492,493,492
494,627,490,494,493
495,584,489,494,493
493,484,491,494,492
493,411,490,493,492
494,375,491,495,491
492,371,492,494,491
492,377,491,493,491
493,393,490,494,492
492,439,491,493,490
493,500,490,493,492
494,571,489,492,491
494,627,490,493,493
493,634,490,494,491
494,621,493,496,493
492,544,492,494,492
493,443,491,494,491
493,397,493,495,491
491,372,493,494,491
493,374,491,494,493
494,380,491,493,492
491,412,492,493,492
494,466,491,493,491
493,527,490,494,493
492,606,490,495,492
493,637,490,493,492
494,629,492,494,490
495,592,490,494,491
493,495,492,494,492
492,415,491,493,491
494,379,490,492,493
491,372,493,493,492
492,375,492,493,491
493,390,490,494,492
491,435,491,494,492
492,491,491,494,491
492,559,489,492,492
491,626,492,493,493
493,635,492,492,492
494,622,491,492,491
494,554,491,494,492
493,453,491,494,492
492,402,490,493,493
493,370,492,494,491
492,374,490,495,493
491,382,492,495,492
491,405,492,495,492
492,458,492,494,492
494,519,491,493,491
493,596,491,495,493
492,634,490,494,493
494,630,489,495,492
493,603,489,494,494
493,509,491,494,491
493,421,491,495,492
493,384,490,495,491
491,372,492,493,490
492,375,492,493,491
493,385,491,495,492
492,429,490,493,490
493,485,490,494,492
493,552,489,493,492
493,620,489,494,492
491,636,491,495,492
495,623,489,492,491
491,571,493,494,493
493,463,491,494,491
493,404,491,493,491
493,369,492,493,491
493,369,489,493,492
494,380,492,493,490
494,400,489,495,491
493,451,491,494,492
493,513,491,495,491
491,589,491,495,491
491,633,492,494,493
493,633,492,492,491
494,614,491,496,493
494,522,491,494,491
493,430,491,493,491
492,389,491,494,494
493,372,492,492,493
492,376,491,493,492
494,383,491,495,491
492,422,492,495,491
492,477,491,494,491
492,541,489,493,493
493,615,491,492,491
491,637,491,494,493
494,626,490,493,493
495,579,490,494,493
494,477,491,494,492
493,409,490,493,491
493,374,491,495,492
491,368,489,493,493
492,379,491,493,491
492,397,493,493,490
492,444,491,493,492
493,505,490,494,491
493,576,490,495,491
491,631,489,493,493
493,635,490,494,492
492,621,490,495,494
492,536,491,493,492
493,439,491,494,491
493,393,490,494,491
492,371,493,492,491
493,372,490,492,491
494,381,490,492,492
491,415,492,493,491
493,469,491,493,491
492,532,490,494,493
492,611,491,494,491
492,636,492,493,490
491,628,492,493,490
495,588,490,494,491
493,489,492,494,492
492,413,491,492,492
494,377,490,492,491
493,370,490,494,493
493,377,492,493,491
493,393,490,494,492
493,437,490,493,492
492,498,491,494,491
492,568,492,494,490
491,627,491,493,493
492,635,491,492,491
494,621,491,496,492
492,546,490,494,492
494,448,491,493,492
493,398,490,494,492
492,369,492,492,492
492,374,492,495,492
494,380,490,494,490
492,407,492,493,491
493,463,492,493,491
493,522,492,493,491
494,600,491,495,492
493,636,489,494,493
493,629,491,492,493
493,599,490,496,492
492,503,491,495,493
493,419,491,494,492
493,382,489,494,490
491,370,490,494,493
492,374,491,492,491
494,387,490,492,491
495,431,491,493,491
493,489,491,494,491
493,558,490,494,490
492,623,492,495,492
492,636,492,495,491
492,625,493,495,490
491,565,494,495,493
494,457,491,494,490
492,403,490,495,492
494,368,489,492,492
495,371,489,493,492
494,381,489,494,493
494,403,489,495,491
492,455,491,494,491
492,516,490,493,492
494,595,491,494,491
493,634,491,493,490
493,631,491,492,491
494,609,491,496,493
494,516,491,494,493
492,425,491,493,492
493,387,490,494,494
494,371,490,494,492
491,376,491,493,492
494,384,492,495,491
492,424,490,493,492
492,481,491,494,491
493,546,491,492,490
493,618,492,492,491
491,636,491,495,492
494,625,490,494,491
492,576,490,495,494
494,469,491,495,492
494,408,490,494,492
493,374,490,494,492
492,368,490,492,491
492,380,491,494,490
492,397,492,495,493
492,449,490,493,492
493,509,490,493,492
490,583,490,492,490
493,629,489,494,491
492,631,489,492,491
491,617,490,495,494
493,529,491,493,492
493,433,490,494,493
492,390,490,493,492
493,372,491,492,491
493,372,490,494,492
492,384,491,495,493
492,418,490,494,492
492,473,490,493,491
492,537,490,494,491
494,611,490,491,491
491,635,491,494,491
491,628,492,495,493
491,586,491,495,491
493,483,491,494,491
492,410,491,494,490
492,375,490,492,492
492,369,492,493,491
494,377,492,492,491
493,393,492,491,491
491,441,490,494,490
493,500,490,492,490
492,572,489,492,493
492,629,490,493,492
491,634,491,494,490
491,621,490,492,492
495,542,492,494,492
494,440,491,493,491
492,395,492,493,490
492,372,492,494,491
493,372,493,493,493
493,382,491,493,490
492,410,490,493,491
492,466,491,493,490
491,526,491,492,489
492,605,492,493,491
493,634,491,492,491
491,629,490,495,490
493,592,492,495,493
493,496,492,494,492
492,415,491,493,491
493,380,490,493,490
494,370,492,494,490
492,377,489,493,493
493,389,493,493,492
492,435,491,494,492
493,495,490,494,491
492,562,492,494,493
494,624,491,493,492
494,634,491,495,492
492,621,489,493,492
495,553,490,494,492
494,453,491,493,492
493,399,491,493,491
492,372,490,495,492
494,372,490,494,490
492,380,492,495,490
492,405,491,493,491
493,459,491,493,491
492,519,491,494,492
492,598,489,492,491
492,636,492,493,492
492,631,491,495,493
492,603,490,494,493
493,510,491,495,492
492,419,491,495,491
492,385,490,494,493
495,370,492,493,491
493,374,491,493,492
494,385,490,492,491
494,430,491,494,491
494,486,490,493,491
493,553,493,494,493
493,623,491,495,493
492,636,492,494,491
492,626,493,493,493
494,568,493,494,492
493,464,492,494,492
492,404,490,493,491
494,368,489,492,492
494,372,489,493,493
494,381,490,494,490
492,400,491,495,492
492,454,491,493,491
493,513,491,494,491
491,589,492,494,491
492,633,492,492,490
494,633,491,495,492
494,611,490,493,491
492,523,492,494,492
493,428,490,493,493
492,390,490,494,494
493,372,491,492,492
493,373,492,495,491
492,385,490,492,492
492,420,493,493,490
491,478,491,493,491
493,541,491,492,491
491,618,493,494,492
493,636,492,493,491
494,625,492,496,494
491,580,490,496,492
492,475,490,494,491
492,409,490,493,490
492,373,489,493,493
492,368,490,492,492
491,379,491,493,491
494,394,489,493,493
493,445,491,493,492
492,504,489,492,490
493,576,490,495,493
492,630,490,492,492
492,634,493,494,489
492,618,492,494,490
492,535,492,494,492
493,437,491,494,491
493,392,491,495,493
491,372,491,493,492
494,373,490,493,492
493,383,490,493,493
494,414,492,493,490
492,469,490,494,492
493,532,490,492,490
491,612,492,494,490
492,635,491,493,491
494,627,491,493,491
494,588,491,496,492
492,489,491,494,492
493,415,491,493,490
492,378,490,494,493
491,371,490,495,491
492,378,491,494,491
494,390,490,494,490
492,437,492,493,492
493,498,491,493,491
494,567,490,493,491
494,626,489,493,492
494,635,492,492,490
493,623,490,495,494
494,547,491,493,491
493,447,491,495,492
492,398,491,495,492
492,372,491,495,492
494,372,490,493,490
493,380,491,494,494
492,407,490,492,490
493,462,491,493,491
493,522,490,492,492
494,602,489,492,492
493,635,492,493,492
492,631,492,492,492
495,596,492,496,491
492,502,492,495,492
492,419,492,494,491
493,382,491,495,493
492,368,490,493,492
491,377,491,494,491
493,387,489,494,493
493,431,490,494,493
493,490,490,494,491
493,556,490,495,491
491,624,490,493,492
492,634,492,492,490
494,622,492,492,491
494,560,492,493,492
494,459,492,493,492
493,402,490,493,491
492,372,491,492,492
494,373,491,494,493
493,381,492,495,493
492,404,492,495,492
492,456,492,493,490
493,516,491,495,490
494,594,489,492,489
493,633,490,493,491
493,629,489,492,492
495,606,489,493,492
492,516,491,494,492
493,426,491,494,491
493,389,491,495,493
492,372,490,495,491
491,376,491,494,491
492,386,489,493,493
492,424,491,493,492
493,483,490,493,491
494,548,490,492,491
494,618,490,493,493
493,637,490,492,490
494,625,491,495,493
492,571,490,494,492
493,470,491,493,491
492,407,492,494,491
492,372,493,494,491
493,370,491,492,492
491,381,491,493,490
495,397,492,494,491
493,449,491,493,492
492,508,491,494,493
493,584,490,494,493
493,631,491,493,492
491,633,493,494,493
494,615,491,493,490
493,527,492,494,491
492,432,493,493,491
493,391,492,495,492
491,374,490,493,492
493,373,492,493,490
493,385,490,494,493
492,418,490,494,491
492,473,489,493,491
493,538,489,492,489
492,614,492,494,493
493,636,491,492,492
494,627,490,493,491
495,581,490,493,492
494,481,490,493,492
494,413,492,493,491
492,376,490,494,490
493,369,489,495,491
491,380,492,494,490
492,396,493,495,491
492,442,492,493,492
493,501,492,494,490
492,573,490,494,493
493,629,490,492,491
494,632,490,493,492
494,618,492,493,490
492,542,491,494,491
492,441,491,494,492
492,395,490,493,492
494,369,491,493,491
493,372,489,492,491
494,381,490,495,492
492,410,491,492,490
491,467,489,493,489
493,528,490,493,492
494,607,490,492,491
493,636,490,493,492
494,629,489,494,490
491,595,490,493,492
493,494,491,495,492
493,416,490,493,492
493,380,490,492,491
494,370,489,493,493
492,378,492,494,492
493,388,489,494,490
491,436,490,492,491
492,496,489,492,491
492,562,490,492,492
494,625,491,493,491
494,637,492,495,492
494,621,492,493,494
493,557,491,495,492
493,452,491,495,491
492,400,491,495,493
494,369,489,494,491
492,372,490,494,493
492,380,491,494,490
492,406,491,492,491
492,460,491,493,492
491,519,491,493,490
493,601,490,494,490
493,633,490,494,491
491,632,489,492,492
493,600,491,492,492
493,507,490,494,491
492,420,490,494,491
493,387,490,494,493
492,369,491,493,491
493,378,492,495,491
492,388,492,496,489
492,428,492,494,492
494,486,491,493,491
493,553,491,495,492
491,620,490,493,493
494,636,490,493,492
494,624,489,493,491
493,568,492,495,492
494,462,489,494,490
492,403,491,494,493
495,369,489,492,492
494,372,490,494,492
493,379,490,494,493
495,399,492,493,490
493,454,490,493,491
492,512,491,493,493
493,592,490,494,493
493,634,492,494,490
492,632,492,495,493
494,611,490,494,491
493,521,492,495,493
494,427,491,493,492
494,388,490,493,492
495,371,490,495,493
490,373,490,492,492
492,387,491,495,492
494,422,489,494,491
492,479,491,493,491
493,543,491,492,491
493,615,491,494,491
492,637,490,493,492
494,628,493,493,489
495,577,491,493,493
494,475,491,494,491
494,409,490,494,493
493,373,489,493,491
493,370,490,495,491
491,380,489,493,492
495,399,492,495,492
492,447,490,494,491
492,506,491,493,490
491,578,489,493,492
492,630,491,492,492
492,633,491,492,492
494,617,492,492,491
494,532,491,494,491
493,436,491,495,492
492,394,489,494,493
493,369,492,492,491
491,373,491,494,492
492,384,491,495,490
492,414,492,494,490
493,469,490,493,491
492,534,490,492,492
492,610,492,492,491
493,635,491,492,491
494,627,491,492,491
493,587,493,494,491
493,488,491,494,493
493,414,492,493,492
492,378,491,493,491
493,369,491,492,492
494,377,491,493,491
493,390,492,495,493
491,440,490,492,490
492,499,490,494,491
493,567,490,491,491
494,628,491,492,491
493,634,491,493,491
491,623,491,495,491
494,546,492,495,492
493,445,491,493,491
493,396,490,492,492
493,370,491,492,492
494,372,492,495,492
491,381,489,492,490
491,411,492,493,492
493,464,490,494,492
494,525,490,493,492
495,604,490,493,493
494,637,491,494,492
494,630,490,496,494
495,596,494,494,492
493,500,491,495,493
493,418,490,493,492
492,384,491,494,493
492,368,489,493,492
492,378,491,493,492
493,387,491,495,490
492,432,491,494,492
492,490,491,494,491
492,557,490,494,491
493,622,491,492,491
491,636,493,494,492
494,622,490,493,492
494,559,492,493,492
493,456,492,494,491
491,402,492,493,492
494,370,492,495,491
492,372,490,494,492
491,380,489,494,493
491,406,490,495,491
492,456,490,494,491
493,514,489,493,491
491,596,491,494,492
492,634,490,493,491
494,629,490,493,491
494,605,491,492,492
494,513,491,495,492
491,423,490,493,492
492,387,492,495,492
495,369,489,493,493
493,376,490,494,492
493,386,489,493,490
492,425,491,493,492
493,482,491,493,491
491,550,491,493,493
492,620,490,495,492
492,636,491,494,491
491,624,490,493,493
493,572,493,493,492
493,467,491,494,491
492,404,490,494,492
494,369,490,492,492
495,371,490,494,493
493,380,491,493,490
491,401,489,494,492
493,451,491,493,492
491,510,489,494,491
491,587,491,495,491
492,633,491,495,492
493,630,489,495,491
491,617,491,492,492
494,526,491,495,493
492,430,491,494,492
492,392,492,495,491
491,369,490,494,492
493,373,492,493,492
493,385,491,493,490
494,416,491,493,491
493,475,490,493,491
493,538,489,493,490
492,615,490,494,492
492,636,490,492,492
491,629,492,495,491
491,583,493,495,492
493,481,492,494,491
492,410,492,493,492
491,375,490,492,491
493,368,492,494,490
492,377,491,494,493
492,394,489,494,493
492,443,490,494,492
492,501,490,493,491
492,574,491,493,492
494,630,490,493,491
493,631,490,492,492
494,618,490,492,492
495,539,491,495,492
492,440,491,494,492
492,394,491,492,491
492,371,490,495,492
491,373,492,495,491
491,382,492,494,490
494,411,491,494,492
492,467,491,494,492
493,531,491,492,491
494,607,491,493,492
494,636,489,494,493
493,630,490,494,493
493,589,492,493,491
493,493,490,495,492
493,414,490,494,491
491,379,493,494,491
491,369,491,492,491
494,376,491,495,492
491,392,490,492,492
493,436,491,494,491
492,495,490,493,492
491,564,490,494,493
492,627,492,494,491
494,633,490,493,490
492,621,493,494,494
493,552,492,493,492
492,449,492,493,491
493,397,491,492,492
494,369,492,494,490
492,371,489,494,493
493,379,490,492,493
491,408,492,495,491
492,460,492,494,492
493,521,492,493,491
493,601,493,494,493
492,636,491,493,492
493,631,492,494,490
495,599,489,494,494
492,505,490,494,492
493,420,489,493,492
493,383,491,492,493
492,371,491,493,492
494,376,492,493,490
492,386,492,493,490
492,428,490,493,491
492,487,491,493,491
491,552,489,492,492
491,624,491,493,492
493,636,491,494,492
491,625,491,495,493
492,568,491,495,492
493,459,491,494,492
492,402,490,493,493
493,369,493,492,491
493,369,490,492,491
493,379,490,493,492
495,401,490,492,491
492,454,492,493,491
492,513,491,492,491
494,591,491,495,492
492,634,491,494,492
493,631,492,493,491
493,611,490,495,494
492,517,491,494,492
493,427,490,494,492
493,388,490,494,492
494,369,490,494,493
492,376,489,495,491
493,384,490,495,491
490,423,489,492,491
493,481,490,494,491
492,545,491,493,490
492,617,493,493,492
494,638,491,495,492
494,624,490,493,493
492,580,492,494,492
494,473,491,494,492
493,407,490,494,493
494,373,489,493,493
494,372,492,493,491
493,379,491,495,492
494,396,490,492,491
492,449,491,495,492
492,507,491,494,491
493,580,491,493,494
493,633,491,493,491
493,631,491,494,490
492,617,489,493,494
494,532,490,494,492
492,436,490,494,493
492,391,490,492,491
491,372,492,495,493
493,373,490,493,490
493,382,493,492,490
493,413,491,493,492
493,471,492,493,493
492,536,491,493,492
494,612,492,493,491
493,637,490,494,490
491,629,491,494,491
491,587,492,495,491
492,485,490,494,492
493,411,491,493,490
492,375,490,493,494
492,368,490,492,492
494,376,489,493,492
494,390,489,492,492
493,441,490,493,490
492,499,489,493,491
493,568,489,494,492
492,632,491,495,491
492,634,492,494,491
493,621,493,494,494
493,546,491,494,492
492,444,490,493,493
493,396,490,493,492
494,369,490,493,492
492,372,490,494,493
493,381,490,492,492
491,411,492,493,492
493,463,491,493,491
493,526,491,492,490
492,604,491,492,491
494,634,491,493,492
494,631,491,493,490
494,594,489,493,491
492,498,491,492,491
493,416,491,493,492
492,382,490,494,494
492,370,491,492,492
493,375,491,493,491
492,387,489,493,494
492,433,491,493,491
492,492,492,493,491
492,557,492,492,491
493,626,491,494,491
493,634,490,494,490
492,623,490,493,494
494,560,491,494,492
493,454,490,495,493
493,401,491,493,492
494,372,490,495,491
494,371,490,494,491
493,380,491,493,489
492,403,490,491,490
492,457,491,493,492
493,517,490,494,491
491,598,489,493,493
493,635,492,493,492
492,633,491,494,492
492,607,492,495,492
492,511,491,494,492
493,422,491,492,491
491,386,493,493,491
494,370,491,493,490
493,376,492,494,491
492,386,492,495,491
492,426,490,493,492
494,484,490,493,491
492,549,489,493,490
492,621,492,492,490
493,636,491,492,490
493,625,491,493,494
493,572,490,493,492
493,466,491,494,493
493,404,491,493,493
494,371,490,492,492
494,372,490,494,493
493,380,491,494,494
493,400,491,492,491
492,452,491,492,491
492,510,491,493,491
492,589,493,493,491
492,632,492,493,492
494,632,492,494,491
491,613,491,492,493
492,525,493,494,493
493,432,490,493,492
493,391,491,495,493
492,372,491,495,493
494,373,490,493,490
493,383,490,494,494
492,418,491,493,491
492,477,492,493,491
493,540,492,492,491
494,616,493,495,492
495,638,492,494,491
494,626,492,495,494
492,583,490,494,492
492,478,489,494,492
492,410,491,495,491
492,375,489,493,492
494,370,491,493,492
491,379,491,495,492
494,393,489,492,491
494,444,490,492,490
493,501,490,493,490
492,575,491,493,492
493,632,490,492,491
493,634,492,494,491
491,620,492,494,490
492,537,492,494,491
492,437,490,494,494
493,394,490,492,491
491,371,491,493,493
493,372,489,493,492
492,383,490,494,494
491,412,491,492,491
492,467,490,493,492
493,530,490,493,492
492,609,492,493,491
494,635,490,492,491
494,627,490,492,491
494,588,490,493,491
492,492,492,493,492
493,414,491,493,491
492,380,490,495,494
492,370,492,494,491
492,378,492,494,490
491,388,489,493,493
492,437,491,493,492
493,496,490,493,491
493,563,489,490,490
493,626,490,492,492
494,634,491,496,491
492,624,491,492,492
494,553,491,495,492
492,446,491,492,491
493,397,490,492,492
494,370,490,492,490
492,372,493,494,492
494,381,490,494,491
491,407,490,493,492
492,461,491,493,491
493,522,491,493,491
491,603,491,494,492
491,634,489,493,492
492,631,492,493,492
493,598,490,492,491
493,503,490,492,492
492,420,490,493,492
493,382,490,494,491
491,371,489,494,493
492,374,491,492,491
491,388,491,495,492
492,431,492,494,492
493,490,491,494,491
492,554,490,494,490
493,621,491,494,491
492,636,489,493,493
493,624,489,492,492
494,565,490,494,493
493,459,491,494,491
492,402,490,494,492
494,369,491,491,490
491,371,492,494,490
492,379,492,492,491
492,402,492,492,490
492,453,491,494,492
492,514,489,492,492
493,594,491,494,490
492,633,489,494,493
492,632,490,494,492
491,611,491,495,493
493,514,490,494,492
492,426,491,492,491
493,387,492,493,490
492,369,491,492,491
494,373,490,492,491
494,384,492,494,490
492,422,489,493,492
492,481,491,493,492
492,546,490,495,492
492,619,492,494,491
493,636,493,493,493
492,626,491,492,491
494,574,491,495,492
493,469,492,494,491
493,406,490,494,493
495,372,489,492,492
494,372,490,494,492
492,377,490,492,492
491,399,491,492,491
493,447,491,494,492
492,508,492,493,491
492,581,492,493,490
492,631,491,494,492
491,631,490,492,492
491,619,492,494,493
494,529,490,493,493
493,433,491,492,492
492,394,491,495,490
493,368,490,494,491
492,374,489,493,493
493,382,493,493,490
492,414,491,492,491
492,473,490,493,492
493,537,492,494,490
494,611,490,492,490
492,637,491,494,492
492,629,492,495,493
492,587,493,496,493
493,484,492,494,491
492,412,491,493,492
493,377,493,495,490
493,370,490,494,490
492,376,491,494,491
493,393,492,494,490
492,440,491,494,491
493,498,489,493,490
493,570,489,493,492
493,628,491,492,490
493,632,490,492,490
493,620,492,493,490
492,544,491,494,491
492,442,491,493,492
492,397,490,492,490
492,369,492,492,490
493,371,492,491,490
493,381,492,494,493
492,411,491,492,490
492,466,489,493,491
493,527,488,492,491
494,605,489,493,493
493,636,488,493,492
492,631,490,494,491
493,591,491,495,492
492,498,490,493,492
493,416,492,494,491
493,380,493,493,491
492,369,491,492,492
494,378,492,495,491
494,387,490,492,491
493,435,491,493,492
492,493,490,494,492
492,562,491,495,492
492,626,491,493,492
493,634,492,493,490
492,625,490,494,493
493,554,492,493,491
492,452,490,494,491
493,399,490,492,491
492,372,492,495,492
493,370,490,493,491
493,379,491,494,492
491,405,491,495,491
492,457,490,494,491
492,518,491,493,490
492,597,490,493,492
493,633,491,492,492
491,633,492,493,492
494,601,491,493,492
493,509,491,493,492
492,422,490,493,490
492,384,491,495,493
491,369,490,492,492
491,376,492,494,490
492,385,493,493,490
492,426,491,492,491
492,486,491,493,491
493,550,490,494,491
492,623,490,494,492
493,636,491,495,492
491,626,491,495,493
492,572,491,493,492
493,464,491,494,492
493,403,490,493,491
492,370,493,492,490
492,369,491,492,492
493,378,490,493,491
495,399,490,494,491
492,453,490,493,491
493,513,492,492,490
492,590,492,495,493
491,633,492,495,491
492,633,492,494,490
493,613,491,493,489
493,522,492,494,493
493,429,493,493,491
493,389,491,492,491
494,369,489,492,493
494,375,493,492,490
492,385,492,495,493
494,418,491,493,491
493,480,490,493,491
492,542,491,493,489
491,616,492,492,492
492,638,490,492,491
493,625,491,495,491
492,578,489,493,493
493,477,491,494,491
493,408,490,494,493
492,376,489,493,493
493,369,490,493,491
491,379,492,494,493
494,396,493,493,490
492,444,491,493,491
493,503,491,493,492
494,576,491,495,492
492,630,490,493,493
493,633,491,491,492
492,621,490,494,493
492,536,491,494,492
492,437,490,494,491
494,393,491,495,491
492,372,490,494,494
493,372,492,492,491
493,382,492,492,491
494,411,490,493,491
493,471,491,493,491
494,533,491,493,490
492,610,492,494,492
492,638,493,494,490
491,630,493,494,490
491,590,493,494,491
493,491,490,493,492
493,413,492,493,491
492,379,491,495,491
493,368,490,493,493
493,376,490,493,493
494,390,489,494,491
493,436,491,494,492
492,497,490,493,492
494,568,491,493,490
492,628,491,494,491
494,633,490,492,491
494,624,491,495,492
495,548,491,494,492
492,448,491,493,493
493,398,491,494,493
492,370,490,495,492
491,373,491,492,492
494,380,492,494,490
491,406,490,493,492
492,463,491,493,491
492,523,491,493,490
493,601,491,492,490
494,634,490,492,490
492,631,492,494,492
493,598,492,494,491
493,503,490,494,492
492,419,490,494,491
491,383,492,496,491
491,369,489,493,492
493,375,491,493,492
492,388,489,492,491
494,429,490,493,490
493,489,490,493,491
493,555,489,493,490
492,624,491,494,491
491,633,490,493,492
491,625,492,495,492
492,565,493,495,491
492,458,491,494,491
493,402,490,494,491
494,369,491,495,490
491,371,489,493,492
494,380,490,493,492
494,404,490,494,492
492,455,491,494,492
492,516,491,493,492
491,596,492,495,492
493,633,490,493,490
493,631,492,492,490
493,607,491,492,491
493,515,489,494,492
492,426,490,492,491
493,388,492,495,491
495,371,490,494,493
492,376,490,494,492
491,385,490,495,492
494,422,490,492,492
492,482,491,493,491
