Sensor0,Sensor1,Sensor2,Sensor3,Sensor4

492,491,619,491,493
491,495,533,491,494
492,493,434,9,492
592,491,493,491,494
633,489,492,492,495
4,400,491,492,491
492,456,491,492,490
493,514,492,493,490
492,592,491,493,491
494,633,489,492,492
495,630,492,494,491
1,492,456,491,492
490,493,514,492,493
490,492,592,491,493
491,494,633,489,492
492,495,630,492,494
491,492,607,490,493
494,493,518,492,495
492,493,426,491,493
492,492,388,490,494
493,493,372,491,494
491,493,374,491,495
491,492,386,489,492
492,495,424,492,493
491,492,481,491,494
491,492,545,491,492
490,493,616,491,492
491,492,636,490,494
493,495,625,489,493
490,492,577,490,494
493,493,471,490,493
492,493,408,490,494
492,492,375,492,492
490,493,371,491,494
491,494,379,489,493
490,491,398,492,492
490,492,447,491,492
491,493,508,491,492
492,492,582,491,492
491,494,630,491,493
490,493,633,490,494
493,492,616,490,495
494,493,530,491,494
493,494,433,491,493
491,492,392,492,495
493,495,370,490,493
490,492,373,493,492
491,492,382,492,492
491,494,416,490,492
491,493,474,490,493
492,492,536,489,492
492,492,615,492,494
492,493,636,491,494
492,492,628,492,495
494,493,586,492,495
492,494,483,491,495
492,492,412,490,493
492,494,376,492,493
490,492,369,491,492
492,494,377,490,492
492,494,396,491,495
490,494,440,490,493
491,493,501,492,493
492,492,572,490,493
493,493,628,491,494
492,492,634,492,492
492,494,619,492,495
490,492,540,490,493
492,492,442,490,494
491,492,394,491,493
491,492,369,491,492
492,494,373,489,492
491,491,383,491,494
493,494,410,491,492
490,492,466,490,493
492,493,527,491,494
494,492,607,491,495
491,492,634,490,494
491,493,627,492,493
493,495,593,490,493
491,493,494,491,494
492,493,415,490,492
491,494,380,489,495
491,491,371,489,494
492,493,378,491,493
490,493,391,490,494
492,492,435,490,493
492,493,494,490,493
491,493,560,489,492
491,491,626,492,494
493,493,635,492,492
491,494,621,491,492
491,494,554,490,493
492,493,454,491,493
491,493,402,492,494
490,494,370,489,493
490,493,373,491,495
492,491,382,491,495
492,491,407,492,494
492,492,461,491,493
491,493,518,491,493
491,493,601,491,495
493,494,634,490,494
493,494,629,490,494
494,495,603,490,494
494,493,509,492,495
493,493,421,490,493
492,494,386,492,495
491,491,372,492,493
490,493,376,492,493
491,493,387,490,495
493,492,426,491,493
491,493,487,491,494
491,493,553,489,492
492,494,619,489,493
493,493,636,490,494
493,492,626,491,492
491,494,566,492,495
493,493,462,491,493
491,492,404,492,493
491,492,370,492,493
491,493,370,490,492
491,491,381,492,494
492,495,400,489,493
491,493,454,491,493
491,492,512,491,493
492,492,590,491,494
493,492,633,491,493
493,494,631,494,493
490,493,612,491,494
491,494,519,492,493
491,492,430,491,493
492,494,389,490,493
491,492,373,491,494
493,492,376,490,492
491,494,386,491,495
491,491,422,491,494
491,492,478,490,493
491,492,543,491,493
490,493,616,490,494
492,493,634,490,494
492,492,628,490,493
493,495,577,490,494
494,494,475,490,494
493,493,410,491,493
491,493,374,490,495
493,495,370,490,493
490,492,379,492,493
491,492,396,493,492
491,493,445,492,492
491,493,506,491,492
492,493,577,492,493
491,492,632,490,493
492,492,633,491,494
492,491,619,490,495
493,492,532,491,493
492,492,435,492,494
493,493,393,490,492
491,492,369,491,493
491,494,371,489,492
493,494,382,489,492
492,495,414,492,493
491,492,471,490,493
492,493,534,490,491
491,491,612,491,495
491,492,636,492,493
491,493,627,492,492
494,493,588,491,493
493,494,486,491,494
492,493,412,490,493
492,494,376,489,492
492,493,370,490,494
493,492,378,491,492
491,490,394,491,495
492,495,439,490,493
491,493,499,491,493
490,493,566,492,492
490,493,626,490,494
491,492,635,489,493
492,494,621,493,494
491,495,545,491,494
492,493,445,491,493
492,492,396,491,494
493,492,372,491,494
491,494,371,490,494
491,492,381,490,494
493,493,407,492,492
490,493,462,491,493
491,493,523,489,492
491,494,605,492,493
491,492,635,491,494
492,494,628,490,495
491,492,596,492,496
492,492,499,491,495
492,493,418,492,493
492,493,382,492,493
490,492,371,491,494
491,494,375,491,492
492,493,387,490,493
494,493,432,490,493
492,492,492,492,492
492,491,559,491,492
491,495,622,493,493
490,492,634,492,493
490,493,622,492,493
492,494,559,492,493
492,494,458,491,494
492,493,400,489,493
491,492,372,492,492
493,492,373,490,495
493,492,381,491,494
493,491,405,491,492
491,493,457,490,494
491,492,516,490,493
492,493,595,491,492
490,493,632,490,493
492,494,629,489,493
493,492,608,493,494
493,493,512,491,494
491,493,423,491,494
492,492,388,492,495
492,492,371,492,494
491,493,376,489,493
493,493,385,493,492
490,492,427,491,494
491,493,485,491,492
491,493,549,490,493
493,494,618,490,494
493,492,636,492,492
492,494,623,493,495
492,492,570,489,494
493,493,467,491,494
492,492,405,491,493
492,493,371,491,492
492,492,373,491,494
492,494,378,489,494
491,492,401,489,493
493,493,451,490,493
492,492,510,490,494
491,492,586,490,492
491,495,633,492,495
490,493,632,490,494
490,494,613,491,492
491,494,524,491,494
491,493,432,491,492
491,492,393,492,493
492,495,371,492,492
491,493,377,491,494
492,491,386,492,495
491,491,419,492,494
492,492,477,491,493
491,494,541,491,493
490,493,612,491,494
492,493,637,489,493
493,494,627,490,495
493,495,581,490,495
494,494,480,492,494
491,493,409,490,494
491,494,373,490,492
492,492,373,492,493
490,492,378,491,493
491,493,395,491,492
492,492,446,490,492
491,492,502,491,493
492,492,576,489,492
492,494,631,491,494
493,492,633,491,494
492,491,618,490,492
491,492,538,492,495
492,494,438,490,493
491,493,395,492,492
490,492,370,492,492
491,494,372,490,493
491,494,383,492,494
490,491,413,490,493
492,492,470,491,493
492,493,532,492,494
491,491,610,492,495
491,492,635,492,493
493,493,629,491,492
490,493,586,489,495
493,493,489,490,493
491,493,413,490,493
492,494,379,489,493
493,494,371,491,492
491,491,379,492,495
491,494,389,490,494
491,492,439,492,493
490,492,497,492,493
490,492,564,491,494
492,492,628,490,492
492,494,635,491,494
490,494,623,490,494
494,494,551,491,495
492,494,448,490,494
493,493,400,491,494
492,495,370,490,494
490,492,372,490,494
493,493,382,491,491
489,493,406,491,492
490,493,462,491,493
491,494,525,491,493
490,494,602,490,493
489,494,635,491,494
491,492,631,492,494
491,492,600,493,496
492,493,504,492,493
492,494,419,492,492
491,493,384,490,495
494,494,369,489,492
491,494,376,490,493
492,494,387,489,493
494,493,431,491,492
492,493,490,491,492
491,494,555,491,494
490,492,625,492,493
490,494,634,491,493
491,494,622,490,492
491,495,567,492,495
493,494,459,491,494
492,492,403,491,493
493,494,372,489,493
492,492,372,491,495
493,492,381,491,492
492,495,402,492,493
489,492,454,490,493
492,493,516,491,491
490,493,592,491,492
490,494,632,490,492
493,492,632,492,493
493,493,608,490,493
490,493,515,491,493
493,493,427,491,494
491,492,389,492,495
491,491,372,490,492
493,494,376,492,492
490,492,386,490,495
491,495,423,490,492
491,494,482,491,492
492,493,545,489,492
492,494,617,490,492
491,494,634,493,494
492,492,624,490,493
493,492,577,495,495
491,493,471,493,494
492,493,407,491,493
491,493,375,489,495
491,494,370,489,494
490,493,380,489,493
492,494,399,489,494
492,492,449,490,493
492,492,507,491,492
491,495,585,491,494
491,494,631,489,493
490,494,631,491,491
490,494,615,492,492
490,494,528,491,493
492,493,435,490,492
491,493,392,492,494
491,492,371,490,493
492,492,377,491,494
491,492,385,491,495
492,491,417,491,493
491,494,473,490,492
490,492,537,491,493
493,493,612,491,491
492,494,635,490,492
492,494,626,490,493
493,495,583,493,493
491,493,483,491,493
492,493,410,491,493
492,493,379,491,495
491,492,371,492,493
490,492,378,491,493
493,493,395,489,492
491,494,441,490,493
492,493,502,490,491
492,494,572,490,492
493,494,629,491,493
493,493,632,491,491
492,492,623,493,496
490,495,539,492,494
492,494,442,492,494
491,493,396,492,493
491,493,371,493,493
491,494,372,490,494
492,492,382,488,493
492,492,412,491,493
492,494,468,490,492
491,493,529,490,493
492,492,607,490,494
492,494,635,489,494
490,492,629,489,494
493,495,591,492,492
491,493,495,492,493
491,493,415,492,493
492,494,382,492,494
491,495,371,490,494
490,493,376,492,494
492,493,392,490,494
491,492,437,491,493
492,492,495,491,492
492,494,562,492,492
490,493,625,491,494
492,494,633,490,492
493,494,622,490,492
493,495,553,490,494
493,494,452,490,493
492,493,401,490,494
492,492,372,491,492
492,494,374,491,493
490,492,383,492,493
490,492,405,492,492
491,492,460,489,492
491,493,520,490,491
491,491,601,491,492
492,494,635,490,493
492,493,631,490,494
493,492,602,491,492
492,495,506,492,494
492,493,419,491,493
493,492,385,493,493
490,492,371,492,491
489,493,375,492,492
492,492,389,493,494
492,494,429,490,493
491,492,487,489,492
491,493,554,488,493
492,492,623,490,494
491,492,634,491,494
490,493,624,489,493
494,493,567,492,493
493,493,462,491,493
492,494,404,490,492
492,495,370,490,492
493,494,372,490,492
490,493,380,490,494
491,492,399,490,492
491,492,455,490,493
491,492,514,491,492
489,492,589,492,493
490,493,634,490,494
492,495,630,491,494
491,492,612,490,492
494,495,520,491,493
492,494,429,491,493
492,492,390,492,492
490,493,374,491,494
490,494,375,490,493
490,492,386,491,492
490,493,422,492,492
491,492,480,492,492
491,493,542,490,494
491,492,618,491,492
492,493,635,492,492
491,492,628,492,495
493,492,580,491,494
492,492,474,489,494
491,494,407,488,493
491,493,375,492,493
493,492,372,489,492
492,495,379,489,492
492,496,397,489,493
492,493,446,490,493
492,493,508,490,492
492,493,579,490,492
492,492,633,491,493
491,493,634,492,492
490,494,618,493,493
494,494,534,491,494
492,493,438,491,494
491,492,392,489,493
493,496,371,489,493
493,493,376,490,495
492,492,384,491,495
492,494,414,490,492
492,492,474,490,493
491,493,534,491,492
490,493,612,492,492
491,494,635,491,492
491,494,626,492,494
491,492,586,490,492
492,493,486,492,493
492,493,413,490,494
492,492,379,490,494
492,492,372,491,494
493,494,377,489,493
490,493,393,490,494
492,492,439,491,492
491,493,501,491,492
490,494,569,490,492
490,494,629,491,493
491,494,635,490,494
491,494,619,491,495
493,492,546,491,495
493,493,446,490,494
491,492,398,492,493
491,492,371,489,494
493,492,373,490,491
491,492,383,491,494
492,495,408,489,492
492,494,465,490,492
491,493,525,490,493
490,493,603,491,495
492,492,638,490,493
492,494,629,492,493
490,493,596,493,493
491,494,500,493,494
491,493,417,491,494
492,494,382,490,491
491,492,372,493,494
493,493,378,490,493
492,492,390,489,494
493,492,434,490,492
491,493,492,490,494
491,493,560,490,493
492,493,623,491,492
491,494,634,491,492
491,495,623,491,491
491,495,558,491,494
492,493,457,492,493
492,493,402,491,493
491,494,372,490,495
492,492,374,492,493
491,492,381,493,493
490,492,404,490,493
493,493,458,490,492
491,492,518,488,492
491,494,596,488,492
492,494,634,489,494
492,493,631,490,493
492,494,603,491,496
493,493,510,491,494
492,493,423,491,494
491,493,387,492,493
490,492,372,492,492
490,492,377,490,494
492,495,386,489,495
490,491,428,490,492
492,494,484,490,493
493,493,552,489,494
493,493,620,490,494
491,492,634,489,493
493,493,626,492,493
493,494,570,490,493
492,493,466,491,493
491,493,406,491,492
492,494,370,491,495
491,492,373,489,494
493,494,379,492,492
490,492,401,489,494
492,492,453,490,493
491,493,511,491,493
490,494,586,489,492
490,493,633,491,495
492,492,632,490,493
492,495,612,490,493
493,496,525,491,494
493,493,432,492,494
490,493,392,490,494
493,493,370,491,492
491,491,376,492,494
492,493,386,492,493
490,493,420,492,492
491,492,477,491,493
493,493,541,490,491
491,494,616,491,493
491,494,635,489,494
493,494,628,490,494
493,493,581,490,495
492,493,476,492,493
492,493,411,491,493
491,494,373,492,494
490,493,370,491,492
491,493,378,490,492
491,494,394,491,495
491,492,444,490,492
491,493,506,491,493
492,492,577,489,494
493,493,632,490,494
491,492,634,492,494
492,494,617,490,494
491,493,536,492,493
493,493,439,491,493
492,493,393,491,492
492,494,370,489,493
493,494,374,489,493
491,493,383,491,493
493,494,415,490,492
490,493,469,491,493
492,492,533,491,493
490,492,611,493,494
490,493,635,492,495
493,492,627,490,492
491,493,590,491,496
493,494,489,489,494
493,494,414,489,493
492,494,380,490,493
490,493,369,491,495
492,492,380,490,492
491,494,393,492,495
490,492,439,491,493
491,493,498,491,493
491,492,566,489,494
492,494,625,489,492
491,492,635,492,493
493,493,622,489,493
494,494,550,491,494
493,493,449,490,494
492,492,398,490,493
492,495,373,491,494
490,493,373,490,494
491,493,380,491,492
491,494,406,490,492
491,493,462,490,492
491,492,523,491,492
492,494,604,492,492
489,494,636,491,494
491,493,631,492,494
490,492,600,493,495
491,493,501,492,494
493,493,418,491,493
493,492,384,491,492
491,494,368,489,492
493,494,376,489,492
492,494,389,489,492
490,493,430,490,493
492,493,491,491,492
490,492,557,491,494
491,492,624,491,493
491,492,634,492,492
491,493,622,491,492
494,492,563,491,494
492,494,458,491,493
491,492,400,490,493
493,494,370,489,492
493,493,374,491,494
492,492,379,490,493
492,491,405,492,493
492,494,455,490,493
492,493,516,490,493
491,493,592,490,491
492,494,633,490,494
491,492,631,489,493
493,494,608,493,493
491,493,515,491,494
493,493,426,490,494
492,492,390,491,495
491,495,370,490,493
491,493,376,492,494
493,492,388,492,492
490,494,423,490,492
491,494,482,490,492
490,493,547,489,492
491,494,618,492,493
491,493,638,491,494
491,494,625,489,495
491,492,576,493,495
492,493,471,491,494
492,492,407,491,494
492,492,373,491,492
492,494,373,492,494
489,494,378,489,493
492,495,398,489,493
493,493,449,490,493
491,492,507,492,492
492,492,585,492,492
492,495,631,493,492
491,493,630,493,492
490,494,614,492,492
491,495,527,491,494
492,493,433,489,493
492,493,392,491,493
493,493,371,490,494
493,491,375,490,495
492,492,385,492,495
491,492,418,493,493
493,494,473,491,492
491,492,538,490,494
491,494,610,489,492
492,495,635,489,493
493,494,628,489,494
493,493,583,492,494
493,494,482,490,493
492,494,411,491,494
492,492,377,492,494
491,492,371,492,492
491,493,378,491,494
493,491,391,491,491
492,492,444,491,493
491,492,501,490,493
493,493,572,489,493
493,494,630,489,493
491,494,631,490,495
492,492,621,489,492
493,495,540,492,495
492,492,441,491,493
492,493,395,490,492
491,493,371,491,492
491,491,374,492,494
493,494,383,489,492
490,492,411,490,494
492,492,468,490,493
492,493,529,491,494
492,492,609,489,493
493,494,636,492,493
492,493,630,492,494
491,494,588,491,493
493,495,493,491,494
493,494,416,490,492
490,492,381,492,493
494,494,371,491,492
491,494,379,492,494
491,492,391,492,495
490,492,436,491,493
492,492,495,490,493
492,492,561,490,491
492,493,628,491,492
492,493,633,490,493
493,493,622,489,493
493,494,553,491,494
493,494,451,491,493
491,492,399,490,494
492,495,370,489,493
491,492,372,491,493
491,493,381,490,492
490,493,406,490,492
492,492,461,490,493
492,493,520,491,493
490,492,601,490,493
494,492,636,491,494
492,492,631,491,494
491,492,598,490,493
492,492,507,491,494
491,493,421,490,493
491,493,383,491,492
490,493,370,489,492
492,494,377,489,493
489,492,388,489,493
494,493,430,491,491
490,493,489,490,493
492,491,555,490,494
491,491,623,492,493
491,493,635,492,492
492,492,625,492,492
491,495,565,493,495
492,493,461,493,494
492,494,403,491,493
493,494,371,489,492
493,493,371,490,492
491,491,381,491,494
492,495,401,489,493
490,492,454,491,493
492,492,514,491,492
491,493,590,491,494
492,492,633,488,493
493,494,632,491,493
490,493,610,489,494
493,493,519,490,493
493,493,429,489,494
492,494,388,490,492
491,491,372,492,493
493,493,377,492,492
490,493,384,491,492
491,494,421,489,492
491,493,481,490,492
491,494,545,492,493
490,493,616,489,494
491,494,635,491,495
491,492,627,492,495
492,492,580,493,494
492,493,475,492,493
491,494,408,491,492
491,494,376,490,494
492,494,370,489,493
492,494,379,489,493
492,495,398,489,493
493,493,447,491,493
491,492,507,489,492
491,495,579,491,494
490,491,631,492,493
490,493,631,491,492
490,494,617,490,494
493,492,530,490,493
492,493,436,492,494
491,494,393,491,493
493,494,371,490,494
493,492,375,490,494
493,491,385,491,491
490,495,413,491,493
492,492,472,490,492
492,492,535,491,492
490,493,609,490,492
492,495,635,489,493
492,492,628,492,494
493,494,585,490,493
491,493,486,491,494
492,492,413,490,495
492,492,379,491,495
491,492,372,490,493
492,493,377,492,492
491,492,395,490,494
490,493,439,490,492
490,493,500,491,493
492,494,569,489,492
490,492,628,492,494
492,492,634,490,492
493,495,622,492,496
491,492,544,492,495
492,493,444,490,494
491,493,397,491,492
491,493,372,490,494
491,494,371,490,494
491,492,383,490,493
493,494,409,490,493
493,493,465,490,493
491,494,526,490,491
490,494,606,491,495
491,494,634,490,493
490,493,627,492,492
490,492,592,492,492
492,494,497,492,493
492,492,418,492,493
492,493,380,493,494
490,492,371,490,494
492,492,377,491,495
491,491,389,491,495
492,492,433,490,492
491,492,493,491,494
492,494,560,488,491
490,493,623,490,493
492,494,633,490,493
493,494,623,489,493
493,495,559,493,493
492,493,454,491,493
493,493,401,490,492
491,491,373,491,495
491,492,372,492,494
491,493,381,492,493
493,493,405,491,492
491,493,457,490,493
492,492,517,491,492
491,494,596,490,492
492,493,633,490,493
492,493,629,491,491
491,491,605,492,495
492,494,509,492,493
491,493,422,493,494
491,492,386,493,493
491,492,370,491,494
492,492,377,490,492
492,494,387,490,494
490,493,427,489,492
491,493,486,490,493
492,493,550,489,494
492,492,620,490,494
492,494,635,490,493
491,493,623,490,494
494,493,568,491,493
492,493,464,491,494
492,493,404,490,493
493,495,373,492,494
491,493,371,490,494
490,494,378,490,494
491,491,403,491,494
491,492,451,490,494
491,493,511,491,492
492,493,587,491,493
490,492,632,490,494
492,494,630,490,493
492,494,611,490,492
493,494,522,490,493
493,493,431,492,493
491,492,390,491,492
491,494,370,492,494
490,492,376,493,493
490,492,384,492,492
490,492,419,491,492
491,493,478,491,493
491,493,541,490,492
490,492,617,493,493
492,492,636,491,494
492,491,627,490,495
493,491,582,491,493
492,493,476,491,494
492,492,408,490,494
493,493,374,492,492
491,494,369,490,493
492,494,378,489,492
492,492,398,492,493
492,492,445,490,492
491,493,504,490,493
491,492,578,491,494
491,491,630,492,494
490,493,632,491,494
493,493,617,493,493
491,492,536,492,495
492,494,438,491,493
490,493,393,490,493
492,494,369,489,493
493,492,376,490,492
490,493,382,490,495
492,491,412,489,492
492,492,472,490,493
491,492,532,491,492
490,492,608,491,493
492,492,637,492,494
492,494,626,490,493
491,492,589,491,493
493,493,489,491,493
492,492,413,490,494
492,492,381,490,491
491,494,371,491,494
490,493,378,489,494
491,492,391,491,492
491,493,437,490,493
491,493,498,489,492
491,493,568,492,493
493,494,627,490,492
491,494,636,491,495
492,491,623,492,496
492,492,550,492,495
492,493,448,491,493
491,493,398,490,494
491,493,369,491,494
492,492,374,489,492
491,494,382,489,493
492,494,407,489,494
493,493,463,491,493
491,492,524,491,494
492,494,601,490,492
491,492,636,492,493
490,493,629,491,492
490,492,597,492,492
494,492,503,491,493
491,492,417,490,494
491,492,384,490,492
492,494,372,490,494
492,491,378,491,494
492,491,386,490,491
491,492,433,491,494
492,493,491,491,493
491,493,557,491,491
489,493,622,490,492
491,493,633,490,493
493,494,624,493,494
490,492,562,490,494
493,493,458,490,493
492,492,403,491,495
491,491,372,491,495
490,492,372,491,493
493,493,380,490,492
490,492,401,490,494
492,492,456,491,493
491,493,515,491,493
492,493,593,490,493
493,493,633,493,491
491,492,632,492,495
492,495,605,490,495
491,493,514,492,495
492,493,426,492,494
491,492,386,490,494
493,493,373,489,492
492,494,376,491,495
491,494,385,489,492
493,493,425,491,493
492,492,482,490,493
492,492,547,491,494
491,494,617,490,493
490,492,635,490,494
493,493,624,490,492
490,493,573,491,493
492,493,468,490,494
492,493,408,490,494
491,494,372,489,493
491,493,371,491,495
493,492,381,491,494
492,492,401,491,495
491,494,450,490,492
492,493,509,491,493
491,493,584,489,494
494,494,632,490,493
492,494,632,490,494
493,494,614,490,493
494,493,528,493,494
493,493,433,492,493
491,493,391,492,494
493,491,373,491,495
491,492,375,492,494
490,492,383,492,493
490,492,419,490,493
492,492,475,490,493
492,493,539,490,492
491,494,612,490,492
492,494,635,490,494
493,493,627,490,492
490,492,582,491,495
493,492,480,491,494
492,492,411,491,493
492,492,377,493,495
490,492,370,492,492
490,493,379,491,493
491,493,393,491,495
491,491,443,490,492
491,493,502,491,492
492,493,573,490,494
493,493,630,491,492
492,494,635,492,495
491,494,618,488,493
491,492,539,491,494
491,492,441,491,494
491,493,394,491,493
491,493,369,491,496
491,491,375,489,494
492,493,383,491,493
490,493,413,489,494
491,493,468,490,493
492,492,529,490,493
492,494,606,490,492
491,492,636,491,494
492,493,629,491,493
490,493,590,492,494
491,493,493,492,496
493,493,415,490,495
492,492,380,490,490
491,491,371,492,492
493,492,379,491,491
492,492,392,491,493
491,490,436,491,494
491,492,496,491,493
490,491,563,490,493
493,492,624,489,493
491,494,632,488,494
492,494,621,489,495
493,494,551,490,496
493,494,452,490,494
493,493,400,490,494
491,494,369,490,494
491,492,373,492,493
491,492,381,492,494
490,492,405,489,494
493,492,461,492,494
491,491,520,491,495
492,493,599,490,494
492,491,634,491,497
493,489,628,491,498
493,489,598,492,498
495,489,505,491,495
492,491,418,491,495
492,488,384,492,495
491,487,369,492,491
491,490,375,490,491
493,491,383,490,492
491,489,428,491,495
491,497,487,490,492
492,495,554,489,493
493,490,620,490,495
494,490,634,490,491
492,496,624,493,495
491,497,564,490,493
492,492,461,491,489
491,488,402,491,495
491,489,368,491,494
493,490,372,491,495
493,490,378,492,496
491,489,401,490,499
492,499,456,490,497
492,497,515,491,496
492,487,588,490,497
494,491,632,492,497
494,492,632,491,497
493,492,607,491,497
493,494,518,491,493
493,493,427,491,495
491,491,389,491,494
494,492,370,492,491
493,492,376,491,493
493,494,387,493,491
490,491,424,492,490
490,492,479,490,493
492,494,545,489,488
490,493,615,490,492
492,492,634,489,493
493,495,626,489,496
494,496,577,491,498
494,494,473,492,496
493,493,409,491,495
492,495,372,489,498
492,492,372,492,493
490,492,379,492,491
491,491,397,491,494
493,491,448,491,492
492,492,508,491,498
490,494,581,489,498
494,493,632,492,498
493,491,633,493,498
492,494,615,491,494
493,493,531,493,493
494,492,434,491,491
492,494,392,490,491
491,494,370,490,493
492,493,374,489,493
493,493,383,492,492
490,493,416,490,489
490,492,472,490,488
491,493,536,491,491
491,491,613,492,495
491,492,634,492,495
494,492,627,491,494
491,491,585,492,499
493,491,482,492,496
494,492,411,492,494
493,493,376,491,494
493,494,369,492,495
492,491,380,491,491
493,494,391,492,495
491,491,440,494,491
491,492,501,494,489
491,492,568,491,495
494,491,628,490,492
493,490,633,491,490
493,492,619,486,490
494,494,543,488,494
493,492,444,490,496
492,491,395,490,493
492,494,368,492,489
490,492,371,490,490
493,492,379,490,489
490,492,407,491,488
491,492,464,491,493
492,491,526,492,492
492,493,604,490,491
492,492,634,490,494
493,491,629,491,494
492,492,594,493,500
493,493,497,491,503
495,493,417,492,502
493,492,381,491,500
492,492,368,490,495
494,494,375,490,493
492,493,387,489,483
489,491,433,491,488
493,491,493,492,495
491,491,560,491,500
493,490,625,492,499
493,493,633,493,501
493,493,621,492,508
493,493,558,491,513
495,493,454,491,508
494,492,399,490,492
494,494,369,489,490
492,491,372,491,492
492,490,379,491,490
491,492,406,492,489
489,492,456,489,492
492,492,517,490,493
491,493,597,491,491
492,494,632,490,483
493,491,630,492,488
494,494,604,493,492
494,493,509,492,492
496,493,421,491,494
494,492,388,493,497
492,490,371,490,508
494,493,376,492,501
493,492,388,491,499
491,494,426,491,505
493,494,485,491,501
493,494,550,490,490
493,493,618,492,471
490,492,635,491,477
491,493,622,488,487
492,491,571,492,492
492,492,465,491,489
492,491,405,491,490
494,491,370,489,491
491,492,369,491,493
491,490,377,490,490
494,493,399,490,495
494,491,452,491,497
493,491,510,492,495
492,492,588,492,495
492,495,631,490,488
490,493,630,490,496
491,494,612,490,496
492,495,522,491,504
495,493,431,492,504
495,494,392,494,499
492,494,371,494,489
493,491,376,493,489
493,491,386,495,503
493,491,422,495,511
496,495,477,491,511
496,494,542,489,497
496,494,614,491,480
493,493,634,489,473
492,493,625,489,474
492,494,580,492,499
494,494,477,491,503
493,492,409,491,494
492,490,374,491,480
492,490,371,492,483
491,490,378,493,488
491,492,395,492,487
491,491,445,491,489
492,492,503,491,490
492,493,575,490,488
492,494,630,490,489
493,492,631,493,491
494,490,618,491,493
493,493,533,493,501
494,492,436,492,506
494,492,394,493,510
495,491,373,494,507
496,494,374,492,505
499,497,382,492,489
496,494,415,492,498
493,493,469,491,493
492,494,532,490,483
491,491,609,490,479
491,493,633,492,494
491,491,628,490,492
493,491,586,494,485
493,493,488,494,487
494,492,414,496,493
494,492,379,495,496
494,495,370,492,496
494,494,378,492,501
496,494,392,490,508
496,493,439,489,502
492,492,497,489,490
489,493,566,490,483
489,493,626,490,479
491,492,631,492,491
493,493,619,492,494
494,495,548,494,500
495,494,448,493,496
496,494,398,490,499
497,495,371,492,476
490,490,372,490,470
489,490,381,490,490
489,489,409,491,486
489,491,461,490,494
492,492,523,491,501
494,492,605,492,509
494,494,634,492,522
498,496,630,491,506
498,496,597,495,490
496,494,500,492,483
492,491,417,493,465
488,490,382,497,483
490,490,370,498,488
491,492,376,499,485
493,491,389,499,484
492,494,431,498,487
492,492,490,494,487
492,493,556,490,491
494,494,623,490,498
495,493,636,490,506
496,495,622,490,506
498,494,564,495,505
497,495,456,495,488
495,492,400,493,480
493,491,370,492,495
493,491,371,493,502
496,492,380,493,500
497,494,406,498,503
494,493,456,499,489
493,492,515,504,479
493,492,595,504,475
492,492,632,508,481
493,492,631,506,495
496,493,605,504,494
492,493,510,491,493
491,494,423,484,493
491,493,387,485,494
493,494,369,484,482
492,493,374,488,487
493,491,387,486,497
493,492,425,487,492
493,494,483,487,495
493,493,549,488,487
494,493,618,490,490
493,490,637,489,496
493,490,622,488,491
494,493,570,490,496
495,494,468,492,499
496,493,406,493,499
497,494,373,493,505
494,496,373,491,501
494,493,380,491,511
496,494,402,492,508
493,494,449,489,475
491,493,508,491,467
491,492,586,490,480
490,495,631,490,491
493,494,632,490,489
495,495,615,490,485
494,495,526,492,498
494,493,432,491,496
493,492,392,494,496
494,491,372,494,484
492,492,372,492,482
490,494,383,491,490
493,491,420,492,504
494,492,476,490,513
494,494,541,490,513
498,495,616,489,513
497,494,637,491,473
491,492,626,490,471
492,491,582,492,493
493,493,479,491,479
492,492,409,491,480
492,494,373,491,488
493,495,371,490,501
494,493,380,492,503
498,495,396,495,502
495,493,445,492,486
492,492,502,492,477
490,491,575,493,484
492,494,629,491,489
491,492,632,492,484
493,491,621,493,496
491,493,537,494,504
495,492,439,494,502
497,494,396,492,497
495,497,372,493,489
491,493,374,490,500
491,495,381,489,487
493,491,414,493,484
491,491,468,494,469
490,490,529,496,486
493,492,609,496,495
493,494,637,496,495
493,495,628,492,488
493,494,588,488,479
495,493,491,485,498
493,493,415,494,504
495,492,382,501,503
496,496,371,502,492
492,493,377,500,484
490,492,388,499,482
492,493,436,496,498
494,493,496,489,509
495,493,565,482,501
495,495,627,484,505
493,492,634,487,476
492,491,622,488,474
492,491,553,489,475
492,493,448,489,488
491,492,397,488,502
495,493,373,492,507
495,494,372,491,499
495,495,381,491,492
493,493,408,489,472
490,492,458,487,479
490,491,522,488,496
492,493,600,490,498
493,492,634,492,493
495,492,630,492,488
492,493,599,491,483
492,493,503,491,485
492,492,420,491,492
491,491,384,492,499
492,491,370,492,499
496,491,377,491,506
495,494,385,491,495
493,493,429,490,486
492,494,488,494,494
493,493,555,495,500
496,494,621,495,494
494,494,634,497,489
494,492,625,497,503
496,496,564,496,485
494,493,459,491,458
492,492,401,487,482
491,492,371,486,502
494,492,371,489,510
496,492,382,492,516
493,494,402,491,490
490,491,452,491,469
489,490,511,490,480
490,488,592,492,498
494,490,633,490,504
495,495,633,490,488
493,491,610,492,484
492,492,517,495,482
492,492,425,496,481
492,493,388,499,487
495,493,370,496,492
495,496,375,494,498
495,497,385,489,486
497,496,423,488,485
495,495,481,485,505
490,494,547,486,482
489,493,616,488,484
489,492,637,489,498
490,490,627,491,498
492,491,577,492,503
494,492,471,489,491
492,491,407,489,481
492,492,371,493,482
493,494,371,493,500
496,495,380,492,507
496,496,400,491,495
490,492,448,488,480
489,491,506,489,477
491,491,582,489,490
493,491,632,491,494
492,491,631,491,494
495,493,617,493,502
490,492,528,490,477
492,492,432,491,501
492,493,393,491,512
493,495,370,496,513
495,494,375,502,481
490,491,383,506,472
492,492,418,505,488
493,492,475,503,486
493,492,538,501,483
490,492,611,487,477
490,493,635,475,498
495,494,626,484,507
495,492,586,486,508
492,494,482,488,481
491,492,409,489,481
493,492,376,490,485
492,492,370,493,484
494,491,375,494,490
494,491,397,494,504
492,492,442,495,503
494,492,499,492,486
491,492,569,490,473
489,491,627,491,483
490,491,633,489,487
493,494,620,488,488
494,495,542,487,488
494,494,443,488,489
494,494,396,489,495
493,492,374,489,497
494,494,372,488,486
491,491,383,490,499
491,491,410,489,514
493,493,466,491,523
495,493,529,490,506
493,495,606,493,480
491,492,635,491,463
492,491,630,494,494
493,493,594,495,514
496,497,497,495,499
495,493,416,495,481
493,492,379,489,491
490,493,370,486,512
493,494,377,487,494
493,492,387,491,486
491,493,436,489,492
491,493,493,491,464
491,490,562,490,466
490,490,627,491,478
489,492,633,492,488
491,493,622,491,492
496,493,559,495,485
494,492,453,494,494
494,493,400,491,500
493,493,371,489,494
492,491,373,491,486
492,493,379,489,501
493,491,408,489,513
496,493,459,490,528
497,492,521,490,500
492,492,597,491,479
491,494,632,490,482
491,495,628,488,459
493,492,602,491,474
492,493,508,488,480
490,492,421,488,493
491,491,387,490,504
493,493,371,489,510
494,493,378,492,534
500,496,389,498,528
495,495,428,499,480
493,493,487,497,455
488,490,547,494,456
487,489,620,497,481
492,490,635,491,481
493,491,621,485,486
492,490,570,489,489
492,493,464,490,492
493,492,404,490,494
493,493,371,492,491
491,491,372,493,491
493,493,379,490,487
493,494,400,490,487
492,493,452,489,487
492,493,511,489,488
492,492,590,489,487
491,494,633,492,492
492,494,632,493,514
497,496,614,498,533
501,498,526,499,542
501,496,430,496,463
492,493,389,496,455
491,495,369,492,473
491,493,377,491,491
494,492,388,492,523
498,492,423,490,524
496,495,482,492,510
490,494,543,492,462
489,491,613,493,447
487,491,633,489,474
489,490,624,485,483
489,490,579,489,490
493,493,475,489,491
492,492,408,489,492
493,492,376,488,492
492,491,371,489,490
490,490,377,489,493
493,491,396,491,493
493,486,445,490,497
493,487,503,491,506
496,495,578,493,518
501,498,632,495,523
500,499,633,495,510
494,493,616,492,453
488,490,532,498,478
493,491,437,509,486
492,491,394,516,490
493,492,372,514,496
498,496,378,511,507
497,497,385,494,511
492,491,414,481,498
493,496,469,473,479
492,493,532,475,457
488,491,608,485,478
490,493,638,489,481
492,494,628,488,485
492,490,586,488,488
493,491,488,486,505
493,490,413,490,497
495,491,380,490,497
495,492,370,489,489
489,493,378,486,509
493,495,393,491,490
492,494,440,496,493
493,491,499,498,482
492,492,568,498,491
494,493,628,495,487
493,491,632,491,512
496,492,619,487,487
497,494,545,485,488
497,493,444,483,479
489,494,397,483,484
488,493,368,487,494
489,491,374,491,486
490,492,382,492,497
492,491,408,492,508
495,493,465,491,493
493,495,525,489,492
490,494,603,489,501
494,495,637,491,498
495,492,629,491,475
494,492,592,491,475
490,491,499,490,482
489,492,416,490,483
491,492,382,490,485
489,491,369,489,483
491,493,376,489,489
491,492,387,488,488
491,493,434,492,486
491,493,491,492,486
492,492,558,490,488
494,492,625,488,499
492,492,635,489,498
495,493,623,494,501
493,492,560,494,490
492,490,454,492,494
490,491,400,490,485
492,493,370,490,488
492,491,372,492,506
496,493,383,492,515
494,491,402,493,503
493,490,457,491,470
489,491,516,491,471
488,490,594,489,476
492,491,631,489,478
492,490,631,489,489
492,493,601,486,488
494,493,511,490,489
492,493,423,491,488
491,492,385,493,491
493,491,372,490,489
493,493,376,493,486
493,492,386,493,497
492,493,426,491,502
492,491,483,492,497
492,490,548,493,479
493,491,616,494,474
490,492,634,494,496
493,491,625,490,500
494,491,572,487,499
493,491,467,486,506
494,492,405,489,509
493,493,371,489,484
491,492,368,490,474
491,492,376,490,480
491,492,397,489,483
490,489,449,491,471
492,491,508,492,496
494,493,588,490,516
497,494,634,492,522
496,494,633,492,491
488,490,611,488,464
490,490,522,491,483
491,490,430,491,484
490,491,388,489,486
491,493,368,489,482
493,492,376,489,485
492,491,384,490,488
489,491,419,490,502
492,491,476,490,509
492,490,539,491,507
491,494,613,490,468
490,492,633,488,483
492,490,626,491,491
493,493,579,494,492
496,492,477,493,487
494,495,409,491,495
491,493,377,489,494
496,493,369,492,499
494,491,380,492,494
491,492,395,491,496
488,491,443,491,493
490,492,504,489,480
490,490,571,489,493
492,488,629,489,492
494,491,632,489,497
493,489,619,490,491
493,489,536,494,484
492,490,438,496,479
491,491,394,498,482
493,493,368,496,489
491,493,372,501,494
492,490,381,498,492
492,494,409,490,482
490,490,466,489,483
489,493,528,492,484
489,491,607,489,490
491,494,634,486,490
490,491,627,492,496
491,491,590,496,501
494,494,492,495,501
496,494,414,494,479
493,495,380,490,495
492,493,370,489,508
493,493,377,487,509
494,494,391,484,517
493,494,434,487,475
492,491,495,486,476
490,490,562,486,478
487,491,624,488,482
490,491,631,488,482
491,493,620,488,488
491,494,551,491,487
491,493,448,488,484
490,492,398,491,495
493,491,371,490,492
493,490,373,492,493
492,491,381,492,500
494,492,406,492,494
492,492,461,491,495
492,492,519,490,475
489,492,597,488,481
490,492,633,489,489
492,492,628,491,500
493,491,600,491,498
494,495,504,492,508
494,494,419,491,489
492,492,383,493,488
490,489,368,490,473
489,487,372,489,487
491,489,387,491,495
492,493,429,490,496
493,493,486,490,495
493,492,554,490,481
492,492,621,491,480
492,493,632,492,487
489,491,623,489,503
493,491,561,491,510
493,492,458,490,503
491,492,401,490,474
490,490,370,492,486
492,492,370,490,493
491,493,379,491,498
493,492,402,490,494
492,490,453,490,477
489,490,512,490,479
490,490,589,491,488
489,491,633,490,489
491,493,627,490,490
492,493,604,489,490
493,493,515,490,490
492,492,425,492,488
492,491,387,490,488
490,493,372,491,491
491,491,374,491,491
490,491,383,492,493
490,491,422,491,506
493,493,483,491,525
497,496,546,491,520
496,492,619,489,504
491,490,633,489,450
488,489,623,490,480
491,489,576,491,491
491,494,469,491,487
491,494,405,489,484
489,492,370,492,486
491,492,368,489,483
492,493,378,489,487
491,490,400,493,486
492,491,447,498,487
492,490,508,500,493
492,490,582,500,491
494,489,630,499,490
491,493,632,493,491
494,492,613,489,488
496,489,528,485,488
494,491,431,485,488
493,491,389,484,492
492,492,368,486,492
492,491,374,490,489
488,491,383,489,499
491,495,416,489,502
491,491,474,491,501
492,491,535,491,485
490,492,610,492,489
494,491,635,490,489
493,493,624,491,496
491,493,583,490,501
497,496,483,490,498
496,494,411,489,486
492,493,375,489,487
489,491,371,489,497
493,493,378,488,470
488,490,392,491,481
488,492,440,490,489
490,492,500,490,492
490,490,572,488,487
491,494,629,491,490
490,492,634,491,495
491,491,621,489,504
491,491,542,491,488
492,491,443,492,490
491,492,395,490,490
490,491,369,491,495
495,493,372,492,498
496,495,382,490,500
495,494,409,487,486
489,491,466,489,473
488,492,525,489,481
489,493,604,490,489
489,491,636,491,491
490,492,627,490,490
491,491,592,491,496
494,493,496,491,492
493,493,416,489,487
492,494,380,488,488
491,494,370,490,492
492,491,377,490,491
491,492,387,491,495
491,490,435,491,495
491,492,494,492,493
490,491,560,493,479
491,490,624,491,495
491,495,633,491,508
492,496,624,493,516
493,496,554,490,495
492,492,452,491,467
489,490,399,491,486
491,490,370,491,487
491,490,372,494,490
492,492,380,495,490
489,491,404,493,490
492,492,459,492,491
491,491,517,489,488
492,492,595,488,488
492,491,634,491,493
492,490,629,488,492
492,491,599,489,491
492,491,507,490,488
493,492,421,490,492
493,491,384,489,491
494,494,369,489,493
491,492,376,490,491
491,493,385,489,485
491,493,427,488,488
490,493,485,489,489
490,492,552,490,489
489,493,618,492,491
491,492,634,492,491
493,492,624,493,491
491,492,567,494,499
495,493,464,493,509
495,495,406,493,508
496,496,370,489,496
491,492,371,488,477
490,491,380,490,491
492,490,402,490,495
493,491,451,488,487
492,492,512,489,491
489,493,588,488,492
489,493,631,491,486
491,493,629,490,488
492,494,609,490,478
491,492,521,492,490
492,492,429,492,493
491,492,390,491,494
493,491,373,492,491
490,491,374,492,491
490,492,383,491,489
490,492,422,489,492
490,492,478,488,493
491,492,544,489,491
491,494,614,489,492
492,493,635,490,488
493,492,626,490,487
491,493,580,491,493
491,494,473,490,491
491,493,410,492,492
489,493,372,492,492
487,492,368,491,493
488,491,381,493,493
489,494,396,493,498
491,493,447,490,494
493,493,505,490,498
493,491,578,490,495
492,491,629,489,494
494,491,631,492,482
494,491,617,490,483
493,493,532,492,491
494,492,436,492,494
495,493,393,490,493
497,494,370,492,492
496,492,374,491,486
495,493,381,491,484
489,491,417,492,489
489,491,470,491,489
490,492,532,491,488
488,492,609,489,491
488,493,633,491,495
489,492,626,490,492
493,495,585,489,493
494,494,487,491,492
493,493,414,492,496
493,491,379,491,495
492,494,369,489,487
493,492,379,492,487
494,492,392,493,489
494,491,438,493,491
495,492,499,492,491
492,493,568,492,493
493,495,627,491,492
495,493,634,490,496
495,492,621,488,497
496,492,547,490,495
493,494,446,490,492
491,492,396,489,494
492,494,371,491,495
486,494,371,490,494
488,493,380,490,496
492,495,412,491,498
490,494,463,489,494
489,491,524,490,489
489,491,605,491,487
487,491,634,491,484
487,492,628,491,488
491,494,594,493,486
488,492,498,490,490
490,493,417,491,490
490,494,381,491,492
490,494,370,491,497
491,493,377,492,495
492,493,390,490,493
492,493,431,491,489
492,492,491,490,487
491,491,558,492,489
490,491,623,491,486
491,494,636,492,492
490,494,621,490,492
490,493,561,492,493
492,494,455,491,492
490,493,402,490,491
492,492,371,490,490
491,494,372,492,491
491,492,379,490,491
492,492,405,492,496
492,492,458,492,495
493,491,516,491,495
493,492,598,491,506
493,495,633,490,504
492,493,630,490,501
495,494,607,490,508
498,494,513,491,493
494,490,422,490,468
486,492,386,492,481
486,494,369,490,488
487,494,375,491,488
487,494,386,491,486
492,494,425,490,486
500,494,484,491,489
499,493,550,491,490
501,493,618,493,491
500,493,638,494,497
497,494,627,495,501
490,493,574,495,498
492,494,468,492,496
495,492,405,491,490
492,491,374,490,484
488,493,371,490,490
483,493,381,490,494
486,492,401,491,492
484,492,452,490,494
486,491,509,489,494
487,491,587,491,489
487,491,632,492,490
486,493,630,491,492
493,492,617,493,500
501,497,526,494,507
504,495,432,492,503
508,496,394,492,496
511,495,374,492,492
508,492,376,493,495
505,494,385,491,498
502,491,419,493,501
493,493,476,492,493
487,492,540,492,498
499,493,613,492,508
508,493,636,492,507
481,492,627,489,488
482,491,577,490,471
482,491,479,491,479
488,492,411,492,492
493,491,375,493,495
498,492,372,491,493
499,494,378,492,494
501,491,393,489,487
491,493,443,490,493
485,493,502,490,494
486,493,573,490,491
477,494,631,492,490
478,495,633,490,489
483,494,619,492,487
486,494,537,493,487
489,493,440,492,493
489,493,394,491,494
490,492,371,491,491
491,493,373,491,491
490,494,385,488,492
488,491,415,489,493
488,492,468,490,490
489,494,530,491,493
488,492,609,491,496
490,492,635,491,496
492,496,628,490,494
498,496,589,491,494
498,495,492,492,495
494,494,417,490,497
494,495,378,491,499
498,493,374,492,495
498,493,380,493,494
501,493,391,495,490
502,494,438,492,491
492,493,498,491,493
501,494,564,489,492
494,496,627,490,502
487,495,636,492,508
491,494,624,492,515
490,499,552,492,519
491,498,452,492,510
489,496,400,492,505
490,495,373,493,503
489,494,372,491,480
488,492,381,490,459
486,493,406,489,479
488,492,462,490,486
490,493,523,487,489
490,492,603,488,491
490,492,635,491,488
492,494,629,492,487
491,492,598,493,491
496,494,503,497,494
495,495,420,498,494
495,495,384,494,493
493,492,371,491,491
493,494,378,486,490
492,494,385,490,495
494,492,432,494,494
488,493,490,493,503
491,495,555,493,508
496,495,624,491,504
496,496,635,491,502
491,494,624,494,498
496,497,565,494,487
505,495,461,496,489
516,493,403,495,492
520,494,371,494,496
524,493,373,492,498
499,494,380,492,493
486,494,402,491,490
479,494,454,489,485
471,493,515,489,491
480,495,593,490,496
489,494,633,491,491
500,492,633,491,493
501,492,611,492,495
502,494,518,492,493
492,495,428,492,494
490,494,388,491,495
497,494,371,492,494
494,495,377,491,494
489,495,387,490,493
493,495,424,490,494
501,494,483,490,494
482,493,545,490,491
476,492,620,491,492
481,493,637,492,491
484,493,626,492,492
491,494,578,492,496
499,496,473,493,497
502,495,410,492,495
498,496,374,490,491
495,493,374,490,493
491,492,381,490,491
475,494,401,491,494
479,493,447,491,490
485,493,509,490,488
488,494,583,491,489
487,493,631,492,491
490,492,633,493,492
494,495,617,493,494
492,494,531,491,494
494,494,435,491,493
494,494,395,491,494
493,492,373,491,494
490,494,375,489,493
489,493,384,492,494
493,492,417,490,492
491,494,475,490,493
491,494,537,490,492
493,494,612,492,494
491,494,638,491,494
492,494,626,490,492
493,493,587,492,495
493,494,486,492,494
493,491,413,493,494
493,493,378,491,492
490,495,370,493,494
490,492,378,492,493
491,495,394,491,493
491,493,442,492,493
490,493,502,491,493
492,493,573,491,494
492,495,628,489,494
494,494,633,490,493
492,495,620,491,493
492,495,543,491,495
493,494,445,491,495
493,494,398,491,493
493,492,372,493,492
493,493,376,491,495
492,493,385,491,493
492,492,413,492,494
493,494,466,490,493
491,493,528,489,494
493,492,605,491,492
492,494,635,490,492
492,494,629,490,493
493,495,593,494,494
493,493,497,491,494
492,493,415,492,494
491,493,383,493,496
492,492,373,495,494
490,493,378,495,493
493,494,390,494,492
491,494,437,495,494
493,493,495,492,492
493,493,561,489,493
492,495,625,490,494
492,493,634,489,495
493,495,621,488,496
492,493,558,488,495
492,495,453,489,494
492,493,401,490,493
491,494,371,493,493
491,494,374,491,495
491,495,382,490,490
489,491,406,492,494
493,494,460,490,493
491,494,521,491,494
490,491,600,492,493
491,495,634,492,494
491,495,632,492,494
494,494,601,494,493
493,495,509,494,494
493,493,422,492,494
491,492,387,491,495
492,496,373,490,493
491,494,376,490,495
492,492,388,489,496
492,493,430,489,495
492,493,486,490,495
492,493,551,489,493
495,493,621,492,493
495,492,636,491,493
493,495,623,488,492
491,495,568,489,494
492,495,464,490,495
491,493,405,489,494
493,493,370,490,492
491,492,373,492,495
491,493,381,491,493
490,493,402,492,493
490,492,453,489,494
492,493,513,490,494
491,492,590,489,493
493,494,634,490,495
493,493,633,491,496
493,493,613,492,494
493,496,523,492,496
493,494,430,491,494
491,493,389,491,494
491,493,372,491,492
491,495,376,493,493
492,494,386,493,495
491,492,423,493,493
493,493,480,492,493
491,493,544,490,495
492,492,617,489,494
491,494,636,489,495
490,494,626,487,495
490,493,580,491,495
493,493,475,491,495
493,494,408,490,494
492,495,374,489,493
492,494,372,491,493
491,493,381,490,495
493,494,396,490,492
491,492,447,490,494
491,493,507,490,493
490,493,579,491,494
493,493,632,491,492
492,494,632,492,495
491,493,618,489,495
494,495,534,491,495
493,495,439,491,493
492,493,395,491,496
493,494,369,490,493
491,493,376,492,493
492,494,384,491,494
491,494,415,490,493
491,493,472,491,494
490,494,533,491,495
490,492,611,489,493
492,493,636,491,494
492,492,629,492,496
492,493,590,491,497
492,494,489,492,496
492,494,413,491,495
491,493,379,490,494
494,493,369,491,493
493,494,377,490,494
492,495,391,490,493
492,494,439,491,494
491,493,500,490,494
490,494,568,491,495
491,492,629,492,496
490,493,634,492,494
490,494,622,492,495
490,493,547,491,496
493,494,448,491,494
491,493,399,492,496
493,495,370,489,495
493,494,376,490,495
493,493,384,491,496
491,494,407,490,495
491,492,466,491,494
491,494,525,491,494
490,493,603,492,494
491,494,635,492,494
492,495,630,493,495
491,496,596,490,495
492,493,501,493,496
492,495,418,490,496
492,493,385,490,496
493,492,372,491,495
493,493,377,491,495
491,493,390,489,496
493,494,431,490,494
491,493,491,490,494
491,494,558,489,493
491,495,623,492,495
491,493,634,494,496
492,492,625,494,494
491,495,562,495,496
493,493,458,490,495
492,493,403,490,494
491,492,372,488,495
493,495,372,488,494
491,492,382,490,495
492,495,404,487,495
491,493,458,489,494
491,493,518,491,494
491,494,594,491,496
491,493,635,490,496
493,494,630,492,495
491,494,606,492,495
492,495,515,491,495
492,493,426,490,497
492,494,387,489,495
490,492,373,490,495
492,492,377,490,495
492,492,388,491,496
492,492,428,492,496
491,492,482,490,493
491,493,549,491,494
492,493,620,491,494
491,494,634,492,494
492,495,626,491,494
492,495,573,492,496
492,493,470,494,495
492,494,408,492,494
491,492,373,489,497
491,492,373,491,495
491,492,381,491,494
490,494,398,487,495
491,493,450,489,495
490,493,511,490,493
490,494,584,488,493
493,494,633,489,496
493,493,633,491,494
490,495,616,491,497
493,495,525,490,495
492,493,432,491,496
491,492,390,492,495
491,492,372,491,493
491,494,374,490,496
491,492,385,489,493
492,495,421,491,494
491,493,476,490,494
493,493,541,490,495
492,493,615,491,496
490,495,634,489,494
491,493,627,491,495
495,494,583,492,495
492,494,479,491,495
493,494,411,491,495
492,494,376,492,497
491,493,370,489,495
493,493,378,491,494
492,492,397,490,496
491,492,444,490,495
491,494,504,490,494
491,493,574,489,494
490,493,628,490,495
492,492,631,490,494
492,494,618,489,494
493,495,538,489,495
492,494,443,491,494
492,493,394,491,494
492,493,374,490,493
491,494,373,492,496
490,492,382,491,494
490,492,412,491,494
491,492,468,490,494
492,492,529,489,493
491,492,610,492,495
492,493,636,490,496
493,492,629,490,496
492,493,591,491,497
492,494,490,491,496
493,492,415,490,494
493,493,378,492,495
490,493,369,490,494
492,494,377,489,493
491,494,393,492,496
489,494,436,489,494
491,493,497,490,494
491,492,565,490,496
493,491,626,491,495
491,493,634,491,496
489,493,622,490,495
493,494,550,492,495
492,494,450,491,496
491,493,397,489,493
492,495,369,488,494
492,494,375,489,495
489,493,380,491,495
493,492,409,490,494
490,494,463,490,495
491,492,522,491,495
491,492,601,492,495
490,494,635,492,496
491,494,628,490,494
491,492,602,493,495
494,495,503,491,496
493,493,419,490,496
493,493,386,490,494
491,493,370,491,496
491,492,376,489,495
492,493,388,493,494
490,492,429,491,494
491,493,488,490,494
490,494,554,489,493
491,491,623,491,494
493,493,636,492,494
491,493,625,491,496
493,492,566,491,497
492,493,461,491,495
492,492,403,490,495
492,492,372,492,495
492,493,373,491,493
491,493,378,490,494
491,495,400,490,492
491,494,454,490,495
491,492,515,489,495
492,492,591,490,493
491,491,634,491,495
491,492,631,492,496
490,493,611,492,495
490,494,517,491,495
491,493,427,491,495
492,493,390,489,494
491,495,370,489,495
492,493,376,489,495
493,492,387,489,496
492,492,421,489,493
490,493,481,489,495
491,493,546,489,495
490,492,616,492,494
491,494,635,490,494
492,495,625,489,496
492,492,579,490,496
493,494,474,492,495
492,493,407,490,496
493,492,374,490,496
494,492,373,491,496
490,494,379,489,494
490,491,398,492,495
492,493,449,491,495
491,492,506,491,494
491,493,579,489,493
491,494,630,491,494
491,492,632,490,495
493,494,616,492,494
493,492,530,491,496
493,492,434,491,496
492,492,393,492,496
491,491,373,492,495
492,492,375,491,494
490,494,385,491,496
492,495,415,490,494
492,494,472,489,494
492,494,536,488,494
493,493,611,491,494
492,493,637,491,493
493,495,628,493,496
490,491,586,494,497
492,494,484,493,496
493,493,413,492,496
492,492,375,493,494
491,492,372,493,495
493,494,379,489,495
492,493,392,489,495
493,492,442,489,494
491,493,500,490,496
492,492,571,488,493
492,494,630,491,495
490,493,632,491,495
490,494,619,492,495
491,495,544,492,496
492,494,443,491,497
491,494,396,490,496
493,492,374,491,494
492,494,373,490,495
493,494,383,489,496
494,494,411,492,495
491,492,466,490,495
492,493,527,490,493
490,492,608,492,497
490,492,636,491,495
491,494,629,491,494
492,494,594,491,495
492,494,495,491,497
493,493,416,491,494
492,494,382,490,494
494,495,371,490,497
494,493,377,491,495
491,492,392,491,498
493,495,434,490,495
492,493,496,493,496
491,492,560,492,494
490,493,624,491,494
491,495,634,492,496
490,493,622,491,495
494,492,557,494,496
493,494,454,491,496
493,494,401,490,496
493,492,374,488,496
491,495,371,488,495
491,492,381,489,495
493,494,405,491,495
490,493,459,490,493
493,493,519,490,495
491,495,601,491,496
490,494,633,489,495
491,494,631,491,496
493,493,603,490,497
493,492,509,491,496
492,493,422,490,495
492,495,385,492,496
491,492,372,490,496
493,494,376,491,494
491,494,386,490,494
491,494,427,489,494
492,494,488,490,493
491,493,552,492,495
494,493,622,491,495
491,494,637,492,496
491,492,626,492,496
491,492,571,493,496
492,494,465,491,496
493,492,404,491,494
492,492,374,490,493
490,495,372,490,494
492,493,380,490,495
494,493,401,489,493
491,492,452,490,495
492,492,512,490,494
492,492,591,491,495
491,492,632,492,495
491,493,630,492,494
491,492,614,491,496
491,494,521,492,496
493,493,430,491,494
492,494,390,490,494
492,494,371,489,495
493,492,377,489,496
493,492,384,490,493
491,492,422,491,496
493,495,479,491,495
491,493,542,492,494
490,492,615,491,495
492,495,635,490,495
491,493,628,488,496
493,496,580,492,496
491,495,476,490,496
492,493,410,490,496
493,492,376,490,497
493,495,370,489,495
490,492,380,491,495
493,493,397,492,493
490,493,446,492,494
491,492,504,491,494
492,493,575,491,495
492,491,632,490,495
492,494,632,491,494
493,493,621,491,496
494,492,536,492,497
493,494,437,491,497
493,493,395,491,494
492,495,370,492,494
490,493,374,491,496
493,494,382,491,493
490,495,412,490,494
490,493,469,490,494
491,492,534,491,494
492,493,610,489,494
491,494,635,491,495
491,492,629,492,495
490,492,588,493,496
492,493,488,491,495
492,493,413,492,495
491,492,377,491,496
491,495,369,489,494
492,494,377,490,495
493,494,391,489,495
491,493,438,491,495
493,493,499,491,494
491,493,569,491,495
490,492,629,492,495
490,493,633,491,494
491,494,620,492,494
491,492,549,492,496
492,493,446,491,496
493,492,397,490,494
492,495,371,490,495
491,493,374,490,495
492,492,383,490,493
490,494,411,491,496
490,494,462,490,494
491,492,525,491,494
489,492,604,492,494
490,494,633,491,494
492,492,631,491,494
492,495,594,492,496
491,492,499,491,494
492,493,418,490,495
492,493,383,491,496
493,491,369,489,494
492,492,378,492,495
492,493,388,489,494
491,492,432,491,494
491,492,492,491,495
491,493,556,489,494
492,495,623,492,495
490,494,636,491,496
493,494,622,490,494
494,493,563,492,497
492,493,458,492,496
492,493,402,491,495
493,494,370,489,495
489,493,371,491,496
492,491,380,489,494
491,495,403,489,494
491,494,458,490,494
491,494,518,489,494
490,494,597,489,495
490,494,633,490,495
491,492,632,493,495
489,492,609,493,496
490,493,514,492,495
493,493,424,492,495
491,493,388,491,497
493,494,370,488,493
492,495,377,488,494
492,493,386,489,494
493,493,426,489,494
491,493,483,490,495
492,492,549,490,493
492,494,620,493,493
490,493,636,491,494
490,493,624,491,493
490,494,575,492,496
492,494,468,492,495
492,492,406,492,495
493,494,372,490,494
492,493,372,492,495
492,492,381,491,494
492,494,398,492,495
490,492,448,489,493
490,493,510,489,494
491,492,584,490,493
490,493,631,490,494
492,492,632,491,496
493,495,614,490,496
490,493,526,491,495
493,494,432,490,495
492,492,393,490,496
492,492,373,490,496
491,491,374,489,493
493,493,385,493,494
493,493,418,489,494
490,493,475,490,493
490,493,539,490,492
491,493,611,490,496
491,493,636,489,495
492,492,626,491,493
490,493,583,490,496
492,493,481,490,495
491,492,411,491,495
491,493,374,489,493
490,492,372,491,495
492,491,379,490,493
491,494,393,490,493
491,494,444,490,493
490,493,502,491,494
490,493,576,489,494
493,492,629,490,493
492,491,634,492,496
491,493,622,492,496
490,492,539,492,495
491,493,441,491,495
493,493,396,491,493
491,494,372,490,495
490,495,373,489,494
492,494,383,490,493
492,493,412,490,494
491,492,467,491,494
493,493,531,491,493
491,494,606,491,495
490,492,635,491,494
490,493,628,490,493
490,493,589,490,496
493,493,492,491,494
492,493,415,491,495
493,493,378,488,493
492,494,371,489,494
492,491,378,490,494
491,493,387,489,495
490,491,438,490,493
491,492,496,491,494
490,492,563,490,490
490,493,625,490,493
491,494,632,490,494
492,492,622,492,495
494,494,553,490,495
492,492,449,490,494
493,492,400,491,495
492,492,373,491,495
491,491,372,489,493
492,493,381,491,493
488,492,407,490,495
490,492,461,490,493
491,493,521,490,493
491,494,599,490,493
490,493,635,491,495
492,492,631,491,493
491,494,600,491,496
492,493,505,491,495
492,493,420,491,494
490,491,383,490,494
493,491,369,491,491
491,491,377,491,492
491,493,386,490,492
492,494,429,491,493
491,493,488,491,493
492,492,554,492,493
490,493,623,489,494
491,493,633,488,494
490,492,623,491,494
490,492,566,491,494
491,493,461,491,494
491,493,403,490,493
491,494,370,491,496
490,490,370,489,494
492,493,381,489,493
492,493,404,489,494
492,491,453,491,493
492,492,514,489,494
491,494,590,488,495
490,493,632,491,493
491,494,630,490,492
491,494,608,491,496
492,492,518,490,493
491,493,427,491,494
490,493,387,489,493
493,494,371,489,493
493,492,377,490,494
491,491,386,490,494
490,494,421,489,494
491,492,481,491,493
491,493,546,491,493
491,491,618,491,492
490,493,635,491,493
491,494,626,491,495
492,495,574,490,493
491,493,472,491,495
492,493,407,489,494
493,493,374,489,493
493,492,372,491,493
492,493,378,491,494
492,491,396,490,493
490,492,448,490,494
492,493,509,491,494
490,491,581,490,493
489,494,632,490,495
492,494,630,491,495
493,491,617,492,494
490,493,529,492,494
491,493,435,492,493
491,492,393,490,494
489,491,371,489,494
492,494,374,489,492
492,492,385,489,493
490,493,415,489,493
490,493,474,489,493
491,493,535,489,495
490,491,613,489,492
492,494,637,491,493
489,494,627,488,494
492,495,584,488,494
492,493,485,490,494
491,492,411,491,492
492,493,378,489,493
489,493,369,491,496
490,491,378,491,492
490,491,394,492,494
489,491,440,489,494
491,492,501,489,493
490,491,572,490,495
491,494,627,489,493
493,493,633,489,494
493,492,620,488,494
493,492,543,491,494
491,492,441,491,493
492,493,394,491,491
489,492,370,490,494
491,492,373,492,495
490,492,382,491,493
489,493,409,489,495
490,493,465,490,494
491,492,527,488,493
492,493,604,489,494
492,492,635,491,494
491,491,629,489,493
492,494,593,493,494
490,493,495,491,494
491,492,414,490,494
491,494,379,489,493
490,494,370,489,493
490,491,377,491,493
492,493,389,490,494
489,491,435,489,493
491,491,492,489,494
492,492,562,489,495
491,490,625,490,495
491,492,632,489,493
490,492,622,491,491
493,492,556,491,494
491,491,452,490,497
491,494,400,490,494
491,495,370,492,495
490,493,373,489,494
492,493,380,489,492
491,491,406,490,494
491,492,459,489,494
490,492,519,490,495
491,493,595,489,494
491,493,636,489,494
492,494,629,492,495
489,492,604,492,497
491,493,510,491,496
492,493,420,491,493
492,492,385,492,494
492,495,370,490,494
490,493,375,491,493
492,493,385,490,492
490,494,427,490,492
490,493,486,489,494
490,492,552,488,493
493,492,620,491,493
492,491,636,490,494
492,491,626,491,496
491,492,571,492,495
492,493,463,491,494
492,493,405,490,495
491,491,369,490,492
491,494,370,489,493
492,493,381,489,494
493,494,400,492,493
490,492,453,490,493
491,493,512,490,494
490,491,589,492,495
491,491,632,492,493
491,493,630,490,495
492,491,613,489,493
492,495,524,491,495
492,494,428,491,493
492,493,389,490,493
493,495,371,490,494
492,492,377,490,495
491,494,383,489,495
491,491,422,488,493
491,494,478,489,493
491,492,542,490,493
490,493,615,491,493
491,494,636,491,495
491,494,626,489,494
490,492,580,493,495
493,493,475,490,495
493,493,410,490,495
492,491,376,491,492
490,494,370,492,493
491,493,379,490,494
492,493,394,492,492
491,493,444,490,493
491,493,504,490,493
492,492,579,492,494
493,494,631,491,493
491,494,632,491,495
491,491,619,492,496
492,492,534,492,494
492,493,437,491,494
491,492,393,490,493
494,493,369,492,493
491,492,375,492,494
492,494,381,490,493
493,494,414,490,494
492,493,469,490,494
492,492,531,490,494
492,491,609,490,492
492,492,635,492,494
491,493,627,492,493
491,494,587,492,493
490,492,489,490,494
491,492,412,490,494
491,492,380,489,492
493,493,370,490,494
494,493,379,490,494
492,493,394,491,491
491,493,439,489,494
492,493,498,490,492
490,491,568,491,493
490,491,627,491,493
491,493,632,491,491
491,494,620,492,495
490,491,549,491,494
492,493,447,492,494
493,492,397,491,494
492,493,370,490,493
493,492,375,489,495
491,493,381,489,493
490,491,410,491,491
491,493,463,491,494
491,491,523,490,493
490,492,602,492,492
491,494,634,491,494
490,492,628,489,493
493,491,597,493,493
493,493,500,490,494
492,493,417,489,494
493,493,384,490,494
490,492,369,491,494
491,490,377,490,492
492,493,388,493,493
489,492,431,492,493
491,492,490,490,493
491,493,556,489,491
490,492,623,490,496
491,494,633,488,495
490,492,623,489,493
492,494,560,490,494
493,494,457,490,494
492,493,402,491,492
491,493,372,489,495
492,494,372,489,493
489,492,380,491,493
490,492,404,491,492
490,493,457,491,493
491,492,517,491,492
491,493,593,492,494
490,492,635,492,494
493,492,631,492,494
492,491,607,492,495
493,492,512,490,494
492,492,425,490,495
493,493,387,489,493
490,492,370,489,492
491,493,374,489,493
492,494,386,489,492
492,494,426,491,494
491,492,481,489,493
492,493,549,490,492
491,491,620,490,495
492,492,636,491,494
491,493,626,492,494
494,494,573,490,494
492,492,468,490,494
492,492,405,490,493
491,494,370,490,492
492,494,372,489,493
493,493,380,492,493
490,492,400,489,495
490,493,450,490,494
491,492,510,490,494
490,492,584,491,494
491,492,632,491,495
491,492,632,490,493
492,495,617,491,495
493,495,525,491,494
492,493,432,491,494
493,492,392,490,495
493,493,372,491,495
492,494,373,490,494
490,492,384,489,492
493,493,417,490,494
491,492,475,490,493
491,493,538,489,492
491,494,615,492,495
490,493,636,490,495
492,494,626,491,495
493,492,583,492,496
493,493,480,490,495
493,493,412,491,494
492,493,375,492,493
490,493,372,490,495
492,494,377,490,493
492,494,392,490,493
492,494,442,490,493
491,492,504,491,493
492,492,574,490,492
491,493,629,492,494
491,491,633,491,494
490,493,618,491,494
491,492,539,491,492
491,492,441,491,495
493,493,393,490,493
491,491,374,492,493
493,492,373,490,495
493,492,383,490,495
493,492,413,490,493
491,493,465,489,493
492,492,529,488,494
493,492,607,491,493
491,493,633,490,493
493,494,627,489,493
492,492,592,493,496
493,493,491,490,494
492,492,415,490,494
492,492,380,491,496
492,491,371,491,495
490,492,377,490,493
492,493,389,492,492
491,491,437,489,494
491,492,495,490,493
491,493,562,488,492
492,495,624,489,494
492,493,634,491,493
491,493,620,491,496
493,492,549,490,495
492,493,450,491,495
491,492,398,491,494
490,492,371,492,492
491,491,374,491,495
492,493,379,489,495
491,491,408,490,494
492,492,461,490,494
491,493,520,490,494
492,492,602,490,492
491,493,635,491,494
490,493,630,490,495
490,493,597,493,493
491,494,503,491,494
493,493,418,490,493
491,492,385,492,494
493,494,370,490,492
491,494,378,490,494
492,492,388,490,497
491,492,430,491,494
492,492,488,490,493
491,493,554,489,494
491,493,619,490,494
492,492,636,489,494
492,494,623,490,494
495,494,566,491,496
494,494,462,491,495
491,493,403,491,495
492,495,370,489,493
490,492,372,492,493
490,492,378,491,493
492,493,401,490,492
491,492,456,489,493
491,493,514,490,493
490,492,593,489,494
494,492,634,490,495
492,491,632,491,495
491,491,609,489,493
492,493,518,491,495
493,493,427,490,493
491,493,388,490,492
490,493,370,490,493
492,494,375,489,494
493,494,388,493,493
490,492,424,490,494
492,493,482,490,492
491,492,548,491,495
490,491,617,492,493
490,493,635,491,493
492,492,628,491,494
491,494,574,492,495
492,493,471,491,495
493,494,407,491,495
494,493,374,489,494
494,492,371,490,492
491,491,380,491,494
491,495,398,489,493
490,492,448,491,494
491,492,507,491,493
491,493,580,489,495
492,492,633,490,493
492,494,632,492,493
490,493,619,490,494
494,493,530,492,495
493,492,434,491,493
493,492,394,491,496
491,494,370,490,493
490,493,374,490,494
492,493,383,490,492
490,493,415,489,493
490,493,472,491,494
491,493,537,492,493
489,493,611,490,494
491,494,635,491,494
490,492,629,493,494
491,491,586,493,495
492,493,485,490,494
492,493,412,490,494
491,493,377,490,496
493,494,370,488,493
492,494,378,489,494
493,493,392,489,494
493,493,441,490,493
492,493,499,489,493
492,494,569,491,494
490,492,630,491,493
491,494,632,490,493
492,494,619,490,493
492,495,545,492,496
492,494,442,491,494
493,493,397,491,494
492,493,371,490,495
493,491,373,491,494
492,491,383,492,493
491,495,408,492,494
491,492,465,490,493
491,492,527,490,492
490,493,604,490,492
492,493,634,489,493
493,493,629,492,492
492,493,592,490,493
492,493,496,491,495
492,493,416,491,494
491,492,381,492,495
491,492,370,490,494
493,492,375,491,492
491,491,390,491,495
492,494,434,490,493
490,492,494,490,493
491,492,559,489,494
493,493,625,490,492
492,494,633,492,495
491,492,623,490,493
494,493,555,492,494
492,492,453,491,494
491,492,399,490,493
492,492,373,492,494
492,493,371,489,493
490,493,380,490,494
493,491,406,490,495
491,492,458,489,494
492,492,519,489,493
492,494,598,492,493
490,492,634,490,494
491,494,629,489,492
492,493,600,490,493
493,494,508,490,493
492,493,422,491,494
493,492,386,491,493
490,493,372,490,495
490,492,377,492,494
490,492,386,492,493
490,492,427,491,492
490,493,487,490,493
490,493,549,489,494
491,491,623,489,494
492,493,636,491,494
493,492,625,491,496
493,493,571,491,494
492,494,464,491,494
492,494,404,489,494
491,493,371,492,493
491,493,370,491,492
491,494,379,490,493
490,492,403,493,493
493,493,452,491,493
491,492,513,491,494
492,491,590,491,495
492,491,632,491,495
491,492,632,490,494
493,493,612,494,493
494,493,522,490,495
492,494,429,491,494
491,494,389,490,493
491,495,370,489,494
492,493,376,492,493
491,493,386,491,495
493,495,419,489,492
491,492,479,490,494
491,492,542,491,494
489,492,615,491,492
492,492,637,491,493
492,494,625,491,495
492,491,579,489,494
493,493,475,490,494
492,493,408,490,495
493,492,374,490,492
490,491,372,491,494
493,494,378,489,493
491,492,397,492,493
491,492,444,491,493
491,492,504,490,493
490,492,580,488,492
493,494,630,491,493
491,493,635,490,495
492,491,620,491,496
493,491,535,492,495
493,492,437,491,495
492,494,393,490,494
490,492,370,489,495
493,492,372,490,492
492,494,382,490,492
492,495,413,489,493
492,494,472,490,493
491,493,534,490,494
491,493,608,490,495
491,492,637,491,494
490,492,628,492,493
490,492,587,493,494
493,493,489,491,495
493,492,413,491,493
492,494,377,490,493
492,493,371,489,495
493,492,378,490,495
493,494,390,490,492
491,492,440,490,493
491,493,499,490,494
491,493,568,491,493
490,493,627,490,493
492,494,633,490,493
493,495,623,492,495
492,495,548,491,495
492,494,447,491,494
493,493,399,491,495
492,491,372,491,494
491,492,372,492,493
493,494,382,491,493
490,493,408,490,494
492,493,463,490,493
491,493,523,490,493
492,494,602,489,493
493,493,635,492,492
491,492,630,492,493
492,494,594,491,496
491,492,501,491,495
492,492,418,491,494
491,493,381,490,494
494,493,369,490,493
492,491,376,491,495
493,494,387,489,493
493,493,432,490,493
492,491,491,490,494
491,492,557,490,491
491,494,622,491,494
491,492,633,490,495
494,494,623,491,493
490,493,559,492,494
492,493,456,492,494
492,492,402,493,495
492,494,370,491,494
491,492,370,491,495
493,491,382,491,494
491,491,404,492,495
490,492,456,489,493
491,494,517,490,493
490,493,595,489,494
491,495,633,489,492
492,494,630,489,494
493,494,606,489,494
491,493,514,491,495
493,493,424,491,494
492,494,388,491,496
492,491,373,492,493
490,492,375,493,493
490,492,384,492,493
490,492,427,491,492
491,492,482,491,494
492,491,550,489,494
492,494,619,489,495
492,492,636,490,495
492,492,626,489,494
492,495,575,492,496
491,493,466,491,494
492,493,407,491,493
491,493,372,492,493
491,493,369,489,493
491,491,382,491,493
492,495,399,492,494
491,492,451,489,493
492,493,511,490,492
491,491,586,491,495
492,491,631,489,494
493,493,631,492,493
493,491,616,491,493
492,495,525,492,494
493,493,432,492,493
493,493,391,492,494
494,494,370,490,491
491,494,376,490,495
491,494,383,489,493
491,492,421,491,494
490,492,476,490,494
491,492,538,491,493
493,492,615,490,493
492,494,634,491,494
492,492,628,489,494
494,494,582,490,495
492,493,479,490,494
492,493,409,490,493
491,492,377,492,495
492,493,369,490,493
491,492,377,491,494
491,494,394,491,492
491,493,442,490,494
492,493,503,490,494
492,494,575,492,494
490,493,631,490,494
492,492,634,492,495
491,493,620,492,496
492,492,538,492,494
493,494,440,491,493
491,492,393,490,495
493,491,368,490,493
493,492,373,490,493
492,493,382,490,493
492,494,410,491,493
491,492,469,491,493
490,493,529,489,494
490,493,610,491,494
491,493,636,492,493
491,494,627,491,495
493,492,592,490,493
493,495,493,492,496
493,494,415,490,493
493,493,381,490,494
493,493,371,490,495
492,494,376,490,493
491,491,392,493,493
493,494,436,491,494
491,493,497,491,493
491,493,563,491,491
490,494,624,490,494
492,494,635,491,493
490,493,624,491,495
490,493,550,491,495
493,493,451,491,495
491,492,400,492,494
491,491,372,493,494
493,493,373,491,493
491,494,382,490,496
493,495,405,488,493
492,493,461,490,493
491,493,520,489,492
493,493,600,490,493
493,492,636,492,494
493,494,629,492,494
490,493,600,493,494
492,494,505,493,495
493,493,419,491,495
492,493,384,490,492
492,491,372,492,494
494,493,377,488,494
492,492,389,488,494
493,492,431,490,495
493,493,487,490,493
492,494,554,491,494
491,491,621,489,495
493,494,634,490,492
491,494,623,489,492
491,495,564,490,494
492,494,462,491,494
491,494,405,490,494
490,492,371,489,495
493,492,374,491,493
492,491,382,492,495
490,491,403,489,494
493,493,455,491,494
491,492,514,490,495
490,494,590,489,492
491,495,634,490,494
493,494,631,490,495
492,493,609,492,496
494,493,520,491,494
492,493,427,491,496
492,493,390,492,494
490,491,373,492,492
490,493,374,491,492
491,491,386,490,496
491,495,422,490,494
491,492,480,489,491
493,494,547,489,492
493,493,618,490,496
492,491,636,490,494
492,494,627,492,495
491,494,575,490,495
492,493,472,492,494
491,493,407,491,493
491,493,371,491,493
493,492,372,492,492
493,494,380,492,494
491,492,399,489,496
492,492,448,489,494
491,492,508,490,494
491,491,579,489,493
493,492,631,491,493
492,491,632,491,493
493,494,614,490,492
493,495,529,491,494
493,493,436,491,493
493,492,392,491,493
491,492,372,491,495
491,493,372,491,493
491,492,384,492,493
490,492,416,491,493
490,492,473,491,493
492,493,537,490,492
490,494,611,492,495
490,492,636,489,495
493,493,629,490,495
493,492,585,490,497
493,492,482,490,495
493,493,413,490,494
493,493,376,489,494
490,493,369,489,492
492,494,377,489,492
492,493,392,489,495
490,492,441,490,493
492,493,501,492,493
491,492,572,490,495
492,492,630,491,494
490,492,633,491,493
490,493,619,492,494
494,493,544,490,494
491,493,443,491,495
492,492,395,489,494
493,495,370,489,493
493,492,374,491,495
493,491,380,490,493
492,491,412,491,495
491,493,465,491,494
491,492,526,491,493
491,493,605,491,493
492,494,634,491,495
491,492,629,489,494
493,495,593,493,494
491,493,496,490,495
493,493,417,490,495
491,492,383,492,496
491,495,369,489,494
491,493,377,492,495
492,493,390,490,492
491,494,434,489,493
491,492,494,490,493
492,494,561,489,493
492,494,625,490,493
491,492,636,491,495
492,494,621,490,496
492,492,558,492,495
492,493,454,491,494
491,492,400,491,495
493,492,371,491,493
492,494,373,492,495
491,493,380,489,493
494,494,406,489,494
493,492,459,490,493
491,492,517,490,492
492,491,599,491,492
492,494,634,491,492
491,494,629,490,493
492,495,602,491,493
492,494,510,492,496
493,493,421,490,493
493,493,386,492,493
494,492,371,490,495
491,492,377,490,494
490,492,388,492,494
490,492,427,491,493
492,494,485,490,493
490,493,552,490,495
491,495,619,489,493
492,494,636,489,494
492,493,626,491,495
493,493,567,491,493
493,493,465,491,493
492,493,404,492,495
492,492,372,492,495
491,492,371,491,491
492,493,379,491,496
491,492,400,489,493
491,492,454,491,494
491,492,512,490,494
492,492,590,489,494
492,492,633,491,494
492,494,630,489,493
491,493,612,490,495
494,492,519,492,494
492,493,429,490,493
491,494,390,489,493
492,495,371,489,494
493,493,374,491,493
492,492,387,491,492
491,494,420,491,494
491,493,479,491,494
491,492,543,492,493
490,492,615,491,494
492,492,635,491,492
493,492,627,493,494
494,494,578,490,495
494,494,476,490,494
492,494,410,490,495
492,494,372,489,496
492,492,373,489,494
493,493,378,491,493
492,493,396,491,492
492,494,446,490,493
491,493,506,491,494
490,494,578,489,493
491,492,631,490,495
492,491,633,491,495
492,491,620,490,495
491,492,536,492,495
492,492,437,491,494
493,492,393,491,492
491,492,371,490,495
491,494,372,489,492
492,494,383,489,492
492,494,414,490,493
490,492,470,490,493
492,492,534,490,493
491,494,611,491,495
491,493,635,491,493
492,494,627,490,492
490,493,588,491,497
493,494,487,491,495
493,493,414,492,494
493,493,377,489,493
494,493,370,490,495
492,492,378,491,492
492,493,388,492,494
492,492,438,490,492
492,492,498,491,494
491,493,566,491,492
491,494,626,490,492
492,494,633,489,494
491,493,621,492,494
494,495,549,492,494
492,492,446,491,495
493,493,398,492,494
494,492,373,492,495
490,492,372,491,495
492,493,381,492,492
492,491,410,492,493
490,493,462,491,493
492,494,523,488,493
493,494,603,488,494
490,493,633,490,494
492,491,628,488,493
492,491,596,492,495
492,492,500,491,495
493,493,418,491,494
491,492,383,490,496
491,495,369,488,495
490,492,377,489,494
492,492,388,489,493
495,492,432,490,493
494,492,490,491,492
492,491,555,489,491
491,493,625,490,494
493,493,635,491,493
492,494,621,489,492
491,495,559,490,495
492,494,457,491,495
493,492,402,490,492
495,494,371,493,492
490,491,373,491,495
493,491,382,491,494
491,492,406,492,494
489,494,456,490,493
492,493,516,490,494
492,492,596,491,492
491,494,632,490,493
493,494,630,489,493
493,494,606,493,493
491,493,513,492,495
493,493,423,492,493
492,491,387,493,495
491,491,372,492,492
491,494,375,491,492
491,493,385,491,496
492,491,426,489,493
492,494,485,490,494
492,493,549,489,494
493,493,619,489,494
493,492,637,491,495
492,494,623,489,493
492,492,574,492,495
493,494,467,492,495
492,492,404,491,493
493,494,371,490,491
492,494,372,492,494
490,491,379,490,494
493,492,399,491,492
493,492,451,490,494
492,492,511,490,494
491,491,586,491,494
493,494,632,490,493
492,493,630,491,495
492,491,612,491,492
492,494,524,490,494
492,493,432,490,493
492,494,392,490,494
493,491,370,492,493
493,491,376,492,492
493,493,384,493,495
491,491,418,491,493
491,493,476,490,493
491,493,538,490,494
491,491,612,489,492
492,492,636,491,493
493,493,628,490,496
495,493,582,490,496
494,493,480,491,494
493,493,408,491,495
492,492,375,489,493
493,493,369,492,492
491,493,377,491,493
492,495,394,490,491
492,494,445,492,494
491,493,502,490,493
491,493,575,491,495
493,492,631,490,494
491,492,633,491,494
490,492,620,492,495
492,492,539,490,494
492,493,439,490,494
491,493,395,491,495
491,494,368,490,493
493,493,373,489,493
493,494,384,490,493
490,492,411,491,495
492,492,469,490,493
491,493,531,491,494
490,492,608,491,494
491,493,635,490,492
492,493,629,492,494
492,495,587,490,493
491,493,493,491,494
491,492,414,490,493
493,492,380,490,495
494,492,371,491,493
492,493,376,492,495
491,492,390,490,493
492,493,436,491,493
490,492,496,491,493
492,493,563,490,492
492,494,625,490,493
491,493,633,491,495
494,492,623,491,493
491,494,553,492,495
492,493,450,491,494
493,493,400,492,492
490,492,371,490,495
492,493,371,490,492
493,492,383,491,493
492,494,405,489,493
491,493,461,489,493
492,494,522,490,492
489,493,600,490,495
493,492,635,489,493
493,492,630,492,493
490,492,599,492,493
492,493,505,492,493
493,492,420,491,494
492,493,383,489,495
491,492,372,490,494
492,492,377,490,494
494,492,389,490,495
492,492,431,490,494
492,492,488,491,493
492,492,554,492,492
493,493,623,490,493
491,494,633,489,493
492,494,623,489,493
493,496,565,490,494
491,493,460,491,494
494,493,402,491,493
492,491,372,491,496
491,492,371,491,494
490,493,380,491,492
490,493,403,490,495
491,493,453,490,493
491,493,516,490,493
491,494,590,489,493
492,493,633,489,493
493,492,632,491,492
491,494,611,492,496
493,495,516,492,492
492,492,427,493,496
491,492,388,493,494
489,492,371,492,492
491,494,374,490,495
491,491,386,488,493
493,494,425,491,493
489,494,481,490,494
492,492,546,488,495
492,492,618,490,493
491,494,634,489,494
490,493,625,490,495
494,493,577,491,493
491,493,470,491,494
492,493,407,490,494
493,495,374,492,494
491,493,372,490,495
492,494,378,491,492
492,491,400,491,495
491,491,448,490,494
491,493,508,491,493
492,493,582,490,492
490,493,629,491,495
492,492,632,490,493
493,494,616,490,494
494,494,529,491,494
493,494,435,491,494
493,493,392,491,493
492,491,372,491,493
493,494,375,493,494
491,492,382,493,493
491,492,414,490,492
491,493,473,490,493
491,492,536,489,493
492,492,613,492,493
492,493,637,491,495
492,491,628,492,495
493,492,586,492,495
491,494,483,492,494
491,491,411,491,493
494,492,375,491,492
489,493,368,489,493
492,494,377,488,492
493,495,395,492,494
489,493,441,489,493
491,493,501,490,494
491,492,573,490,495
490,491,630,491,494
490,493,633,491,492
490,494,619,490,495
493,492,540,491,494
492,492,443,492,495
492,493,395,490,494
493,493,371,489,494
493,492,374,490,495
491,494,382,489,494
491,491,411,489,493
492,493,468,491,493
491,491,526,490,491
490,492,604,490,493
492,495,637,491,494
490,493,628,489,494
490,493,592,492,495
493,493,496,490,495
492,492,416,490,495
491,492,382,491,491
491,495,370,492,493
490,493,377,490,495
492,493,387,491,492
491,494,434,490,493
491,492,494,490,493
492,493,561,490,493
490,492,624,491,495
492,491,634,490,491
493,494,623,492,495
490,492,556,492,495
492,492,454,490,494
491,493,401,490,495
491,494,368,489,493
491,491,374,492,493
493,492,382,490,494
494,492,406,490,495
493,492,459,490,493
491,493,518,492,494
490,491,598,489,492
493,493,634,491,492
491,494,628,490,492
493,495,601,490,493
493,493,510,492,495
491,493,421,490,494
492,493,386,490,495
494,492,372,491,495
491,491,377,491,494
490,492,387,492,494
491,491,428,490,494
492,492,485,490,493
492,493,553,490,492
491,494,619,489,493
493,492,635,490,495
493,492,626,491,492
491,493,567,491,495
493,492,462,490,494
492,493,404,491,494
489,493,370,492,494
491,493,369,490,492
492,492,381,491,495
492,495,398,489,494
490,492,453,490,493
491,492,512,491,494
492,491,589,491,494
493,492,633,491,492
492,494,631,494,493
490,493,611,491,495
491,494,520,491,494
492,493,429,491,494
492,494,389,489,493
492,495,371,488,493
490,493,374,489,495
493,492,385,489,492
491,491,424,491,493
491,492,478,490,494
491,492,543,490,493
490,494,616,489,494
491,493,634,490,494
491,492,627,489,493
493,494,578,490,494
493,493,476,490,494
492,493,410,490,492
491,493,376,491,496
492,494,370,489,492
490,492,379,491,493
490,492,396,491,492
491,493,445,490,493
491,493,507,491,492
491,494,577,491,493
491,493,633,491,495
492,492,634,492,496
491,492,619,492,496
492,493,535,491,495
493,494,437,492,493
491,492,392,492,495
493,492,372,490,492
491,494,373,489,493
492,493,382,489,493
494,494,414,491,492
491,492,470,490,494
493,492,532,489,492
491,491,612,492,494
490,492,634,491,493
490,493,626,490,493
493,493,589,491,492
492,494,486,491,494
493,492,412,490,493
492,493,378,490,493
492,493,370,490,495
492,492,377,489,492
492,491,394,492,496
492,493,438,489,493
491,493,500,491,493
491,492,566,490,492
490,493,625,489,493
492,494,632,492,493
490,492,622,489,494
494,492,546,492,494
492,493,446,492,494
492,492,397,492,495
491,491,372,493,493
493,493,373,491,492
490,492,379,491,496
493,491,406,489,492
491,493,462,490,493
491,493,523,489,493
493,493,603,491,493
491,491,636,491,495
492,494,627,490,494
490,492,597,493,495
491,493,500,492,495
492,493,417,492,494
493,492,384,491,492
490,493,370,491,494
491,493,376,490,493
492,493,388,489,494
493,492,431,490,493
492,493,490,490,494
491,493,557,490,494
490,491,624,489,491
493,493,634,491,493
491,493,621,491,493
491,493,558,492,493
492,493,458,491,493
492,493,401,491,494
491,492,372,493,493
493,492,374,491,495
491,491,381,490,495
491,491,405,491,493
493,493,456,491,493
491,491,515,489,494
492,493,594,490,492
