Sensor0,Sensor1,Sensor2,Sensor3,Sensor4

493,492,492,549,491
492,493,495,614,492
493,491,493,492,493
443,492,493,491,493
400,491,494,493,493
373,491,492,490,492
376,492,493,491,493
4,539,491,494,492
493,443,492,493,491
493,400,491,494,493
493,373,491,492,490
492,376,492,493,491
493,386,492,492,490
493,3,443,492,493
491,493,400,491,494
493,493,373,491,492
490,492,376,492,493
491,493,386,492,492
490,493,414,492,492
490,492,468,491,493
492,493,527,490,491
491,494,604,492,494
490,493,630,490,493
492,492,623,491,494
492,492,588,491,495
492,493,493,491,493
492,493,420,492,494
492,493,385,493,493
491,492,372,492,492
492,494,380,491,492
492,493,391,492,494
491,492,438,491,492
492,493,496,492,493
492,492,560,490,494
492,493,622,492,493
490,492,628,492,493
493,493,616,490,492
491,493,551,492,494
494,492,452,492,493
492,493,402,491,493
491,495,374,490,493
492,494,376,491,494
492,493,384,491,492
494,492,412,491,491
492,493,460,490,493
492,493,519,491,494
490,492,595,493,493
490,493,628,491,494
492,491,623,490,491
492,491,599,492,495
493,494,506,491,493
493,493,425,491,492
492,493,391,491,494
490,492,373,490,494
491,492,381,490,492
492,493,390,493,492
490,493,430,491,492
491,493,488,491,492
492,493,550,492,493
491,494,615,490,493
490,493,629,492,494
492,491,620,492,495
493,492,566,492,494
492,493,465,492,493
491,492,408,491,493
493,493,375,493,492
491,491,376,492,495
492,493,381,490,492
493,494,403,490,492
492,493,454,491,492
491,492,510,491,492
492,492,586,491,491
490,493,627,492,493
491,492,624,492,492
491,493,608,493,493
490,493,520,492,494
493,493,432,491,492
492,492,395,492,493
493,494,373,491,493
493,493,380,491,493
492,492,389,492,491
491,494,422,492,493
492,492,479,491,493
491,492,540,492,492
491,493,610,492,492
492,494,629,491,493
493,494,620,490,493
491,491,576,493,493
493,493,476,492,493
491,492,412,491,493
492,492,380,491,494
492,492,375,492,493
490,491,382,490,494
492,493,399,492,491
492,492,448,491,492
491,492,504,491,492
492,494,573,490,491
493,494,626,490,491
491,493,624,491,495
491,492,612,492,493
491,491,532,492,494
492,492,440,491,493
492,493,399,493,493
491,492,375,490,494
492,494,375,490,494
491,492,388,491,492
493,494,416,490,493
493,493,471,491,492
495,493,532,491,494
491,492,603,491,492
492,492,630,491,493
492,493,623,491,492
490,494,581,492,492
492,493,489,491,493
491,493,417,491,494
491,491,384,490,492
493,494,375,493,492
490,492,382,491,494
492,492,396,490,495
491,492,442,491,493
491,493,497,490,492
491,492,563,491,492
493,492,623,491,492
492,493,625,490,492
493,493,615,490,492
493,494,545,493,494
492,491,448,491,493
493,493,401,491,492
492,491,376,492,494
491,491,375,492,493
491,492,385,492,492
491,492,411,492,494
492,492,464,491,493
491,493,523,492,493
490,493,598,490,493
493,492,629,491,493
493,492,624,492,494
491,493,589,491,492
492,492,501,491,493
492,492,421,492,493
491,492,386,492,493
491,492,373,491,492
492,493,380,492,494
491,492,390,490,491
493,492,436,491,492
492,493,491,490,494
491,492,555,491,494
492,492,619,491,492
491,493,627,490,493
491,493,616,491,493
494,493,556,492,493
491,493,457,492,494
492,493,405,490,493
492,494,375,490,492
492,492,374,492,492
493,492,385,491,492
491,494,406,492,494
491,492,458,491,493
491,492,516,491,492
490,493,589,491,494
493,492,627,491,492
492,492,626,492,493
493,493,601,490,494
494,493,514,492,494
493,493,428,491,493
491,493,391,491,494
493,491,376,490,493
491,493,379,492,493
488,492,389,492,492
491,493,426,490,491
492,493,485,491,493
490,493,545,490,492
490,492,615,493,493
492,492,631,492,494
491,491,620,492,494
492,492,572,492,494
491,492,472,491,493
492,493,410,492,493
491,493,378,490,494
491,494,373,490,492
492,493,382,490,493
492,494,402,490,493
490,492,451,491,493
492,493,509,492,493
492,494,582,492,494
491,492,626,492,493
491,493,624,491,491
491,494,612,491,494
492,494,525,491,493
493,493,436,491,493
491,493,396,491,493
493,494,374,491,493
493,492,379,491,491
491,493,387,492,495
491,491,420,490,492
491,492,477,491,492
490,492,536,492,492
490,493,607,492,492
491,494,629,491,492
491,491,622,492,493
494,494,579,493,493
491,492,482,492,494
492,492,415,491,494
492,492,382,492,495
492,492,375,491,493
493,492,381,492,492
492,492,398,491,492
491,493,444,491,493
491,493,501,491,493
493,494,568,490,492
490,492,625,491,494
491,491,625,490,492
492,492,616,492,494
491,492,537,492,494
492,492,443,491,493
492,493,400,491,494
491,493,372,492,494
492,492,378,490,492
492,494,386,491,493
494,493,413,490,493
492,493,468,490,492
492,493,526,490,490
491,491,603,491,494
492,493,629,490,493
490,493,621,492,492
491,492,585,492,491
494,494,495,492,494
491,493,420,491,494
491,494,386,493,493
490,494,375,491,494
492,491,382,491,494
492,492,394,492,494
491,494,437,491,492
491,492,494,491,493
492,493,560,492,491
491,493,619,491,492
492,493,627,491,493
493,493,617,492,493
492,492,551,491,493
494,493,453,491,493
491,493,405,491,494
491,492,377,492,494
491,491,375,493,493
491,493,385,492,493
492,492,409,491,492
491,492,462,490,492
491,493,518,490,492
492,493,593,490,492
493,492,629,490,493
492,493,622,491,491
491,491,597,492,492
493,494,506,492,494
492,492,423,492,493
491,493,388,492,492
491,493,374,491,493
491,492,378,490,493
492,492,391,492,493
493,493,432,491,493
492,493,487,491,494
492,492,550,492,494
491,495,614,490,493
491,492,627,491,494
492,492,618,491,491
491,494,562,491,493
492,493,463,491,494
491,493,408,491,492
493,492,377,493,493
492,492,375,491,492
492,493,383,492,493
491,491,406,493,493
490,492,453,491,493
491,493,511,490,492
492,492,583,492,491
490,492,627,492,493
492,494,624,490,493
493,493,605,490,494
494,493,519,492,493
492,493,432,492,494
491,492,394,491,493
493,495,376,492,492
491,493,378,492,492
491,493,387,491,491
492,494,427,492,493
491,493,479,491,492
491,493,541,492,492
494,493,614,491,493
492,492,630,492,493
492,491,620,492,494
492,492,577,491,493
492,494,475,493,494
492,493,412,491,492
492,493,377,492,492
489,493,373,490,493
492,494,383,490,493
490,492,401,493,493
493,492,447,491,492
492,493,506,490,493
490,492,575,492,493
491,491,625,492,493
491,493,627,491,493
492,493,611,493,492
493,492,532,492,493
491,493,440,491,492
492,493,397,491,493
493,493,374,490,492
491,494,377,491,493
492,492,385,491,491
494,492,418,492,492
490,493,472,491,493
491,492,531,491,492
491,493,603,491,492
491,492,631,492,493
493,493,621,491,492
491,493,583,491,495
492,492,487,491,494
492,492,416,491,494
492,492,383,490,492
491,492,373,493,492
493,492,382,491,491
492,493,394,491,492
491,493,440,491,492
491,493,498,490,493
491,492,565,489,493
492,492,622,491,492
492,491,629,492,494
491,491,616,492,495
491,492,544,493,493
492,493,449,491,492
491,493,400,492,495
492,492,376,491,492
492,495,377,491,493
491,493,385,491,493
494,493,411,491,494
492,493,465,491,492
491,492,523,492,493
492,494,599,490,493
491,494,629,492,492
491,493,622,491,492
492,494,590,491,494
492,492,502,492,493
492,492,422,492,493
492,493,388,491,493
493,493,375,492,494
491,491,380,491,494
491,494,392,490,492
490,492,435,492,493
492,493,491,491,492
491,493,554,491,491
490,494,617,491,492
491,493,628,492,491
491,493,620,492,494
493,493,556,492,493
492,493,459,491,493
492,492,407,492,494
491,492,376,493,492
492,494,374,491,494
492,492,386,491,493
491,494,408,492,494
491,494,458,491,492
491,493,515,491,493
492,493,590,491,494
493,494,628,491,492
491,492,625,492,493
493,494,601,493,493
490,493,513,492,493
491,493,427,492,492
492,493,391,491,494
492,492,374,491,493
491,492,379,492,493
493,493,391,490,493
493,492,429,491,493
491,492,483,491,494
491,493,545,490,493
489,492,615,490,493
492,493,629,491,491
490,494,619,491,491
492,494,569,491,493
492,493,470,491,493
492,492,413,492,493
492,492,378,490,492
492,493,374,492,493
490,492,385,493,494
491,491,404,493,493
491,493,451,490,493
492,493,509,492,493
491,492,580,491,494
492,495,627,490,493
492,493,626,491,493
493,492,610,491,494
491,494,524,491,493
492,493,435,491,492
491,493,397,492,493
491,492,377,492,492
491,493,377,492,492
492,493,389,491,494
492,494,420,491,492
491,492,476,491,493
492,493,538,490,492
492,492,608,491,494
491,491,629,492,494
491,491,621,490,492
492,494,578,493,493
490,493,480,491,493
492,493,415,491,492
491,494,379,491,492
491,493,374,490,493
490,493,382,492,493
492,493,398,492,492
492,493,447,491,493
492,493,503,492,493
491,492,570,492,493
490,492,625,490,493
492,494,626,491,492
491,491,615,492,493
493,495,537,491,494
492,493,443,492,493
492,492,399,491,492
491,493,374,490,494
491,491,375,490,493
492,492,386,491,492
491,492,415,491,491
490,492,469,491,493
490,492,525,491,492
492,491,603,491,491
491,494,628,492,493
491,493,623,491,492
495,493,587,491,495
491,492,493,492,495
491,493,418,491,494
492,492,385,493,494
493,494,373,491,492
491,494,380,490,492
491,493,391,491,492
491,493,437,491,493
491,494,496,491,493
492,492,558,492,492
491,493,622,492,494
490,492,629,492,492
490,493,616,493,494
490,493,551,491,494
491,493,453,492,494
492,492,404,491,493
492,495,375,490,492
492,493,377,491,493
492,492,386,491,494
494,492,407,491,492
491,492,462,491,493
491,493,518,490,492
490,492,596,492,492
490,493,628,491,492
491,493,621,491,494
491,491,599,490,492
492,493,507,492,494
492,492,423,490,493
493,492,391,491,494
492,492,375,491,494
490,493,379,490,493
490,492,391,492,493
493,492,432,491,493
491,493,489,491,492
491,493,551,491,492
491,494,615,492,492
492,493,630,491,494
492,494,617,491,492
492,492,565,492,494
492,493,466,491,493
491,492,408,492,493
491,492,376,493,493
492,492,377,491,492
491,493,384,492,494
491,495,404,489,492
492,493,455,491,492
491,493,512,491,493
493,493,584,491,491
492,492,629,492,491
492,493,625,492,493
490,493,607,493,492
490,493,519,493,493
491,492,432,491,494
492,492,394,491,492
492,491,376,493,493
493,493,380,490,493
493,492,389,491,492
495,491,425,492,494
489,493,478,491,493
489,493,541,491,494
492,493,610,492,493
491,493,628,490,492
492,493,619,490,493
492,494,573,490,494
492,492,476,492,493
491,492,413,492,492
491,493,376,491,495
491,492,375,492,493
490,492,383,492,493
489,492,398,490,494
492,492,448,491,493
491,492,505,491,493
491,494,573,489,492
492,494,626,490,493
492,492,626,491,495
491,494,611,491,495
491,492,533,491,493
491,493,439,492,493
491,493,398,492,492
491,493,374,492,492
491,494,378,492,494
491,494,387,490,492
490,492,417,492,494
493,493,472,490,493
493,493,533,491,493
490,492,607,492,494
491,492,628,490,494
493,493,621,491,491
491,492,583,492,495
492,494,486,491,493
492,493,416,491,492
492,493,383,490,493
490,492,373,491,494
492,491,383,491,492
492,493,397,492,494
491,492,441,491,493
491,493,498,492,493
490,492,563,490,493
493,493,621,490,492
490,491,627,492,493
493,493,615,489,493
494,493,544,491,494
492,493,448,492,493
491,493,399,491,494
492,492,373,490,493
492,493,375,492,493
490,493,384,490,491
491,494,410,491,492
491,493,464,491,492
491,492,524,492,493
493,493,600,492,493
491,493,630,492,494
491,492,625,492,493
490,491,593,493,493
492,492,500,491,493
493,493,422,492,493
491,492,388,491,492
493,494,373,489,492
492,494,380,490,493
491,493,393,490,492
489,493,434,490,493
492,493,491,491,492
491,491,556,492,493
491,492,619,491,492
490,493,628,492,492
490,491,618,492,495
491,495,556,491,493
491,493,459,492,494
493,493,405,490,494
493,493,377,491,493
492,491,377,492,494
491,491,383,490,493
493,491,409,493,492
492,492,458,490,493
491,493,515,491,492
491,494,590,491,491
491,493,628,491,493
490,493,623,491,494
492,492,600,493,492
491,492,513,492,494
493,493,428,490,494
491,492,394,492,493
490,493,374,490,494
491,493,379,491,493
491,492,391,490,492
492,494,428,490,492
492,493,485,491,492
491,493,546,492,491
489,493,615,490,494
492,493,629,491,492
490,492,619,492,493
491,492,571,493,492
492,493,471,492,493
491,492,411,492,494
492,492,379,490,492
492,494,375,492,493
491,492,385,491,494
493,492,405,491,494
492,492,452,491,494
491,493,508,491,493
491,493,580,493,493
493,493,627,491,493
492,494,625,490,492
492,494,610,490,492
492,494,526,492,494
491,493,435,491,493
492,493,397,492,492
492,491,377,491,494
491,492,379,492,493
491,492,389,493,493
493,493,421,490,492
491,493,476,491,492
491,493,537,490,492
490,494,607,490,492
492,494,631,490,493
492,492,622,491,494
493,493,576,491,492
492,493,482,492,492
493,494,414,491,494
493,492,381,492,493
489,493,374,491,493
491,494,382,492,494
491,492,397,490,493
493,492,446,492,494
491,493,501,490,493
492,493,571,491,494
492,492,625,492,493
491,493,626,490,493
491,493,613,490,494
493,492,535,492,493
491,493,443,491,493
491,493,399,491,492
492,494,377,493,494
490,493,377,491,494
490,493,385,491,495
491,492,416,491,493
493,492,469,491,493
491,492,527,492,493
489,492,601,490,493
492,492,628,490,492
492,491,623,493,493
493,495,584,490,492
493,494,494,491,493
492,493,419,491,494
491,493,383,491,495
492,492,375,490,493
492,493,382,492,492
491,493,392,492,491
490,494,438,491,492
490,493,496,491,493
490,493,559,490,492
491,492,622,492,494
492,492,629,492,494
491,491,617,492,494
492,491,553,494,493
492,493,452,492,493
492,493,404,491,494
493,493,373,492,492
491,493,374,490,492
492,494,385,490,492
492,495,409,491,493
490,492,462,491,492
491,493,520,491,492
491,494,596,492,494
491,492,629,492,492
490,493,623,493,491
490,493,597,491,495
493,494,505,492,493
491,493,424,492,492
492,493,389,490,494
493,494,375,491,494
492,492,381,491,492
492,493,388,492,494
491,492,431,491,491
493,492,487,491,492
491,493,548,491,492
491,494,614,491,491
493,492,629,492,493
491,493,618,491,493
490,493,563,492,494
492,492,463,491,494
492,493,407,491,494
491,492,378,492,494
490,492,375,490,493
493,493,382,491,492
491,491,406,491,492
491,493,453,490,492
491,493,511,490,492
492,493,584,490,492
489,492,626,490,494
492,492,624,490,492
492,492,608,493,495
490,493,518,492,493
492,493,432,492,493
490,492,395,492,495
491,494,373,490,494
490,492,379,490,494
492,493,389,491,494
493,493,426,491,494
491,493,480,491,493
490,493,542,492,494
490,494,611,491,493
491,493,628,491,492
491,493,618,490,492
491,495,573,490,493
492,494,476,492,494
491,492,413,490,493
493,493,378,492,492
490,491,376,491,494
491,491,384,492,493
490,492,402,492,493
490,493,448,491,493
490,493,504,491,492
491,492,576,490,491
491,494,624,489,493
492,493,626,490,493
493,493,613,493,492
490,493,530,491,494
493,493,438,491,492
491,491,398,492,494
490,492,375,492,493
490,494,376,491,492
492,491,388,491,492
491,495,415,492,493
491,493,473,491,493
491,493,532,491,494
493,492,606,490,494
492,492,630,492,493
490,494,620,490,493
490,492,582,493,494
492,494,487,492,494
491,492,416,492,493
491,494,381,490,492
490,494,374,493,493
491,492,381,490,493
492,492,395,492,492
491,492,442,491,493
491,493,498,490,492
491,492,565,491,493
491,494,622,490,493
490,493,626,491,494
491,492,614,491,492
491,494,542,491,493
491,494,448,491,493
492,494,402,492,493
490,492,375,490,494
491,494,376,490,494
490,492,387,492,494
490,492,412,492,493
491,493,466,492,493
491,492,524,492,494
491,492,597,490,492
493,493,631,492,493
492,492,623,491,494
492,492,591,491,495
493,493,501,491,494
491,493,420,490,493
491,492,387,490,492
493,495,374,492,492
491,493,379,491,492
492,493,391,490,491
491,494,437,491,493
491,493,491,490,492
491,493,556,491,493
491,492,620,491,494
492,491,629,491,493
491,492,618,493,492
492,494,557,492,493
492,493,458,491,493
493,493,405,491,493
491,494,374,491,491
492,494,376,490,492
492,493,386,491,494
491,493,406,491,494
492,492,459,491,493
491,494,518,492,494
491,492,591,492,494
491,494,627,491,492
491,494,626,492,494
491,494,600,490,492
492,493,513,492,492
491,493,427,490,493
492,492,392,490,494
494,493,376,491,492
491,494,379,492,494
490,492,389,489,492
493,492,429,491,492
491,492,484,491,492
491,493,545,490,491
491,491,616,492,493
492,493,628,490,492
491,493,619,491,494
494,492,570,491,493
495,492,468,491,495
491,492,411,491,495
489,493,377,490,493
492,493,373,491,492
492,491,385,491,492
491,495,401,490,493
492,494,451,490,493
493,493,509,491,492
491,493,579,491,494
493,492,626,490,492
492,492,626,492,492
489,493,609,493,493
490,493,524,492,493
492,494,435,491,493
491,493,395,491,494
491,492,377,490,492
492,493,379,490,493
492,492,388,490,494
493,492,421,491,491
491,493,477,491,492
491,493,537,490,492
490,492,609,493,492
490,492,628,491,492
491,494,618,490,491
490,495,578,491,494
491,492,483,491,494
492,493,415,491,492
491,493,383,491,494
492,492,375,492,494
491,492,382,492,493
491,494,398,490,493
490,493,444,491,493
492,493,503,491,492
491,494,569,490,492
492,494,625,491,493
493,493,628,491,491
490,493,615,491,495
493,494,535,491,493
492,492,443,492,494
491,492,399,492,493
491,491,376,493,493
493,492,379,492,491
491,493,384,492,494
492,492,414,490,492
491,493,469,491,492
491,493,527,490,492
493,492,602,490,493
491,494,629,490,492
490,491,622,492,493
492,495,585,493,493
491,493,493,492,493
492,492,418,491,493
492,493,384,492,495
492,491,373,490,493
493,493,381,492,492
492,492,394,491,494
492,492,438,491,494
492,493,495,491,493
492,494,559,490,492
490,492,621,491,494
492,492,627,490,492
492,494,616,490,492
491,494,549,491,493
492,493,454,491,493
491,493,404,491,494
491,493,373,492,494
492,492,378,492,494
490,491,385,492,494
490,491,409,492,493
491,492,463,490,492
490,493,519,490,492
490,492,596,491,494
491,493,628,490,493
492,492,623,490,494
493,493,596,490,496
491,494,505,492,496
491,493,423,491,494
492,494,391,492,496
491,492,374,492,494
491,493,379,492,491
492,494,393,491,492
492,494,431,490,490
492,492,489,491,492
491,493,552,490,491
491,492,617,491,492
491,491,629,492,492
492,494,618,493,493
490,492,562,491,494
493,493,463,491,494
491,493,408,491,495
491,494,374,490,496
492,494,375,490,498
491,493,385,492,497
493,492,406,491,492
491,494,457,490,493
492,492,514,491,494
491,491,585,492,494
491,492,628,490,495
492,493,623,490,489
491,490,607,492,490
491,492,518,491,492
492,491,430,490,495
492,492,394,491,498
491,492,374,491,498
491,491,377,490,496
493,494,389,492,496
490,493,426,492,494
490,492,480,491,491
491,493,543,491,492
491,494,610,491,493
491,492,629,490,495
493,493,622,491,496
494,494,574,491,496
493,493,475,491,493
492,492,411,490,489
491,491,378,493,489
492,492,375,491,487
490,493,381,491,490
490,493,398,490,491
491,493,447,490,493
491,492,507,491,493
491,492,575,491,492
490,493,627,491,494
491,492,627,492,496
490,492,612,493,496
491,495,529,491,493
492,493,438,492,495
493,492,398,492,491
491,494,373,491,491
492,494,377,490,492
492,492,386,492,492
490,493,420,491,493
492,492,472,491,494
492,493,534,492,494
492,492,608,493,495
490,492,628,491,493
491,493,620,491,494
492,492,584,492,493
492,493,486,492,495
493,493,417,491,496
493,495,383,492,497
495,495,375,492,499
495,496,383,491,498
492,492,398,492,500
493,495,442,491,499
492,493,500,491,498
490,492,564,492,491
490,492,622,492,492
492,494,626,491,487
492,492,615,490,489
492,496,542,489,487
491,493,446,491,488
490,493,401,491,494
490,493,378,494,494
492,494,377,493,493
490,492,386,491,494
493,495,412,490,495
492,494,466,491,495
493,493,523,490,494
492,493,601,492,498
492,493,630,490,498
490,493,622,490,494
492,495,590,490,492
492,493,499,491,494
492,493,420,493,490
490,493,389,491,488
493,493,373,490,491
492,492,382,492,492
491,492,393,493,494
489,492,434,491,493
492,493,493,490,487
489,493,554,491,484
490,491,617,489,488
492,493,629,490,496
490,492,617,491,498
493,492,555,491,497
493,493,459,492,498
493,494,404,491,498
492,493,376,493,496
492,494,375,491,499
493,494,383,491,499
492,494,406,494,498
490,492,459,491,497
491,492,516,491,496
492,492,593,490,498
492,492,629,492,493
491,490,623,492,490
493,494,599,490,494
492,492,511,492,497
494,493,427,491,500
493,494,392,492,501
492,493,375,492,492
492,494,380,491,490
489,493,390,489,488
488,490,428,491,487
491,492,485,493,493
491,491,548,494,495
492,492,614,494,497
495,494,630,496,505
494,494,620,494,508
498,495,568,493,507
494,495,469,491,500
494,494,410,490,501
492,494,375,489,490
489,491,374,490,471
488,489,383,489,472
489,493,405,491,485
489,490,453,491,490
490,491,509,492,491
490,491,580,490,491
493,492,625,490,492
491,491,624,492,497
494,494,609,490,499
494,493,524,491,500
493,494,433,491,499
492,494,396,491,496
492,492,372,491,487
492,492,378,492,487
491,492,388,493,486
490,492,420,492,491
490,493,476,490,497
491,493,538,490,502
491,492,610,490,500
494,495,631,490,498
493,493,622,491,494
495,493,579,492,494
493,492,479,491,496
492,493,415,492,498
491,491,379,490,488
489,492,372,491,491
490,493,381,491,490
492,494,396,490,489
491,492,446,492,488
491,493,502,492,491
492,492,572,491,496
493,492,626,493,500
492,492,626,494,498
492,494,614,490,500
492,494,536,492,503
495,494,442,491,500
491,494,399,490,491
491,494,374,490,485
490,492,377,492,487
490,493,388,491,488
491,493,413,491,490
491,492,470,491,490
492,492,530,492,495
491,493,603,493,498
492,494,629,491,504
494,494,625,490,510
493,495,587,493,503
492,494,492,491,496
493,493,419,491,487
491,492,385,492,497
493,493,372,490,497
491,492,382,493,500
494,493,392,493,490
492,493,438,491,491
492,493,496,491,494
492,494,559,492,491
491,492,621,491,480
491,494,626,491,484
492,491,618,492,493
492,492,552,492,488
491,492,452,492,490
492,493,402,491,496
494,492,374,490,495
493,491,374,490,502
492,494,384,489,496
492,494,409,490,500
491,492,461,490,494
492,492,519,491,490
493,492,597,491,497
493,493,627,492,502
491,492,623,492,476
488,491,595,493,484
490,491,504,491,498
492,493,423,492,500
492,492,390,493,499
494,495,374,491,501
495,494,382,492,502
494,493,391,491,501
492,495,430,490,487
492,493,489,491,489
494,493,550,492,489
493,493,616,491,488
491,492,628,490,494
490,492,617,492,489
489,494,563,491,493
491,492,462,492,499
492,492,407,491,502
492,492,377,491,493
490,492,375,492,483
489,491,381,491,483
493,492,404,494,491
489,492,455,492,493
491,492,512,492,492
491,494,585,492,493
492,493,627,492,496
492,493,623,492,498
494,491,607,491,504
493,494,517,491,501
494,493,431,491,499
492,493,394,492,498
490,492,374,490,493
491,493,377,489,485
490,491,388,492,487
492,493,424,490,488
491,492,480,491,485
491,490,542,491,493
492,494,610,492,501
493,492,630,491,501
493,493,617,491,495
491,492,572,492,499
492,494,475,492,491
492,494,411,491,488
492,493,379,492,486
493,493,375,492,492
490,493,383,491,499
492,492,403,491,501
493,494,449,492,508
494,493,505,491,493
492,493,576,492,488
490,492,626,491,491
491,493,624,489,478
493,494,610,490,482
491,494,529,492,492
491,492,439,492,491
492,492,396,492,490
490,491,375,491,498
492,492,378,492,501
490,494,387,493,504
490,493,419,490,503
494,493,473,491,505
492,493,534,490,492
492,494,604,489,476
491,493,630,491,479
491,492,622,492,488
490,491,579,492,495
492,492,487,492,507
493,494,416,491,517
495,494,382,493,511
496,496,375,492,500
496,496,380,490,481
492,491,396,489,471
489,492,442,491,481
487,492,498,489,491
491,491,566,490,498
491,491,625,492,502
490,493,625,490,498
491,492,615,493,494
493,493,543,493,499
492,493,446,491,490
490,493,400,490,484
491,495,374,494,492
490,492,376,491,493
494,494,384,492,496
494,491,414,492,503
494,492,467,491,496
494,493,524,492,495
491,492,599,492,495
491,491,630,490,473
488,493,623,493,488
488,494,588,490,497
494,494,499,492,498
494,494,420,491,487
491,493,385,492,492
494,493,376,492,502
493,493,380,492,502
492,492,391,493,506
490,493,436,491,509
491,492,492,491,490
491,492,554,490,471
491,492,619,492,484
492,492,629,491,483
490,491,618,491,481
490,491,558,493,491
490,492,455,492,496
492,492,405,492,499
493,493,375,492,504
492,493,374,490,505
492,493,383,490,479
490,493,406,491,481
491,491,459,493,491
492,492,517,491,491
490,492,590,491,497
491,491,629,492,502
492,493,625,493,507
493,493,602,492,510
498,495,511,493,512
496,496,428,491,503
494,494,389,489,481
490,494,374,489,471
489,491,380,490,485
488,491,388,491,493
491,490,430,490,489
490,493,484,491,497
490,492,547,491,498
490,492,615,492,495
490,493,630,492,491
492,494,618,491,495
494,492,570,497,496
493,493,466,495,489
492,493,410,492,505
494,494,378,493,503
494,493,376,495,509
495,494,384,496,502
489,492,402,492,471
487,490,449,493,470
489,491,507,493,486
490,493,580,491,495
491,492,625,491,499
494,494,627,490,499
493,496,611,492,492
491,493,523,492,481
492,493,435,493,496
494,492,396,493,497
498,492,374,493,499
491,490,380,491,505
489,491,385,490,489
491,492,420,491,491
489,491,476,493,493
491,491,536,493,494
491,492,608,493,495
493,495,632,495,502
493,493,621,496,507
494,493,580,502,514
493,493,481,505,473
490,490,413,501,474
493,494,379,499,491
492,495,374,496,491
495,496,383,495,490
494,494,401,497,493
490,492,443,491,482
488,492,502,489,482
490,492,570,489,492
489,493,624,491,499
492,493,626,490,499
493,493,614,491,498
492,491,536,488,496
492,494,442,486,490
491,493,399,486,502
494,493,377,487,506
492,493,378,490,503
493,494,387,489,502
493,494,414,489,507
493,494,472,490,500
491,493,527,489,470
490,494,602,489,479
490,493,631,490,485
490,492,621,492,474
490,491,586,491,488
491,494,493,491,496
491,492,418,490,489
491,493,384,490,488
490,493,373,490,494
492,492,382,487,500
493,494,397,492,510
492,494,440,492,506
495,493,497,492,498
493,493,563,493,496
490,493,619,492,483
492,491,628,492,489
491,492,617,491,491
487,493,547,492,495
493,494,452,492,489
493,495,403,491,500
494,494,375,490,522
495,495,377,492,498
495,493,386,492,498
491,492,411,490,472
487,492,461,488,476
486,491,520,487,487
487,492,595,488,491
486,492,630,490,494
490,492,621,488,492
492,494,593,489,492
493,494,505,492,488
491,493,423,495,491
492,493,390,491,496
491,495,374,492,497
490,492,379,491,497
491,493,389,493,492
490,492,431,494,494
491,491,488,496,500
492,492,553,498,502
494,494,617,497,489
492,492,628,496,481
493,491,619,493,488
488,494,560,488,492
491,493,462,488,498
492,494,408,489,505
494,495,375,490,511
495,495,375,488,507
493,495,383,489,479
489,491,406,491,485
489,494,456,490,487
489,492,513,491,490
492,491,587,491,490
492,490,627,494,494
490,490,625,504,500
496,492,606,512,499
499,494,519,512,503
498,494,431,512,493
494,493,392,507,479
492,494,373,504,472
487,492,377,495,477
490,491,388,478,483
487,494,425,480,487
488,492,480,483,485
489,492,541,484,483
489,492,612,485,492
490,494,628,483,496
491,493,621,487,506
495,495,574,488,512
496,494,474,488,516
495,494,413,488,508
491,491,380,489,487
488,492,374,489,487
488,494,382,487,494
489,492,400,489,495
488,491,448,490,496
490,492,506,490,492
490,491,576,491,487
492,495,625,492,495
492,493,628,492,500
491,491,612,490,479
490,492,529,490,485
491,492,438,490,498
490,491,395,491,495
492,494,374,488,491
490,493,376,490,488
492,493,385,490,485
494,494,417,489,494
489,492,474,490,488
490,493,533,490,494
489,492,609,490,502
491,492,630,491,506
492,493,623,492,515
494,495,583,495,519
495,496,487,492,496
491,493,415,488,469
487,490,378,488,465
488,492,373,493,493
492,493,383,494,498
493,493,396,496,498
492,493,444,493,503
491,493,500,492,487
491,492,567,492,494
491,493,624,487,502
491,494,626,484,489
490,490,615,487,475
489,493,542,491,486
489,492,447,491,487
491,492,400,489,494
492,492,375,488,497
493,494,376,489,504
492,493,386,492,504
495,496,413,492,503
492,494,468,490,505
491,494,523,489,493
490,495,598,490,482
490,494,631,492,488
489,492,622,490,472
490,491,588,491,481
494,490,498,491,483
490,491,420,491,489
489,492,387,492,494
491,493,373,493,493
493,492,381,492,498
490,494,391,492,495
488,494,434,490,488
489,493,492,490,499
491,493,557,492,497
494,495,621,492,498
497,497,630,491,505
494,494,619,489,488
491,493,558,491,487
491,493,459,491,487
491,493,405,491,486
488,491,377,490,497
489,493,376,492,498
490,491,385,496,502
493,491,408,500,494
493,491,459,500,481
492,492,515,500,489
493,491,592,501,495
494,493,628,500,499
491,493,622,492,498
492,493,598,486,483
489,493,511,481,482
489,493,424,483,487
489,493,391,485,489
491,493,375,486,492
489,492,380,487,494
489,491,390,487,494
492,492,429,490,494
490,493,483,489,488
491,493,547,489,491
491,495,614,490,507
492,494,630,490,512
491,494,620,492,501
494,494,571,493,493
492,493,469,493,478
492,492,411,492,482
492,493,377,491,498
489,492,375,490,494
489,491,385,492,498
491,494,402,489,487
488,491,453,489,488
489,492,510,493,495
494,492,582,495,498
492,493,628,497,500
492,494,627,499,497
491,492,609,495,497
491,491,523,494,496
491,492,433,486,500
491,493,393,482,488
491,491,375,485,486
490,494,377,486,494
490,494,389,487,493
494,496,424,490,491
495,496,477,489,508
493,492,539,488,499
490,492,611,491,495
490,492,631,491,507
492,493,620,493,478
490,492,575,495,466
491,493,479,497,483
492,492,414,499,491
490,492,381,499,491
493,492,372,499,496
492,492,384,494,504
493,493,399,491,506
492,493,444,490,494
490,493,502,489,483
488,495,568,487,482
489,493,625,483,483
488,492,627,488,495
490,491,615,489,502
494,494,536,490,510
498,495,444,488,522
493,494,399,488,494
491,493,375,491,494
491,493,376,488,496
490,493,383,487,469
489,491,416,487,482
488,492,469,489,486
488,492,529,488,494
490,491,603,488,479
489,490,629,491,485
490,491,621,493,490
493,494,584,490,490
491,492,491,491,495
492,492,417,492,496
491,493,383,491,493
491,495,372,489,491
495,493,381,490,486
491,492,395,490,491
490,495,438,493,490
493,494,498,498,491
492,493,561,498,499
492,493,621,497,509
492,493,630,492,504
491,494,615,492,493
489,494,548,488,503
491,493,451,487,496
491,492,402,485,494
492,492,372,487,470
489,490,376,489,481
491,493,384,491,488
491,492,409,491,490
491,492,462,491,493
489,493,518,489,483
486,494,598,490,492
487,492,628,489,500
491,492,622,489,501
492,492,597,490,515
495,495,506,493,520
499,496,425,493,520
498,495,391,492,488
491,491,371,490,446
490,492,378,490,470
488,493,389,490,481
491,495,432,489,495
493,494,490,491,495
494,495,555,490,506
494,494,616,489,498
488,493,630,491,491
490,493,619,492,494
491,492,562,490,476
491,491,462,491,483
488,490,408,493,501
492,492,375,491,502
495,491,377,492,498
492,490,384,492,490
492,490,406,491,503
492,494,456,489,505
492,492,511,489,499
491,492,586,492,484
490,492,625,491,484
491,493,623,491,491
491,492,608,494,495
492,494,517,492,487
491,492,429,489,484
489,491,394,488,493
489,491,375,490,493
489,491,378,490,490
492,494,388,494,488
489,491,425,492,488
491,493,481,489,488
490,493,542,487,490
491,494,611,488,493
490,493,629,490,496
491,492,622,490,499
492,494,575,492,515
494,494,476,493,524
498,495,415,497,531
495,495,378,496,498
489,492,375,494,462
488,492,380,493,464
487,488,400,491,476
490,491,448,491,480
488,491,505,489,484
488,492,574,487,487
490,493,627,491,491
489,492,625,489,490
488,493,610,489,492
489,494,529,486,494
490,492,438,488,493
491,492,398,489,494
494,495,374,491,493
491,493,378,490,497
492,492,388,490,496
490,491,418,492,485
490,491,471,493,488
493,492,533,495,488
494,491,607,493,489
495,494,629,492,493
495,494,622,492,492
493,494,580,489,496
493,494,486,487,506
493,496,417,487,514
491,494,379,487,495
490,492,374,489,492
489,492,382,490,485
488,491,393,490,489
490,489,441,488,480
490,490,498,489,486
489,489,564,488,493
492,493,621,489,499
492,492,627,491,495
492,492,613,490,491
494,492,543,492,495
491,494,447,491,509
493,494,401,491,512
491,495,375,492,498
489,494,376,490,508
494,492,386,490,481
494,494,412,493,475
487,493,465,490,484
489,493,525,489,487
487,491,601,488,488
487,491,628,489,494
492,491,623,490,488
488,492,587,490,489
489,491,496,491,488
492,493,419,492,489
492,493,386,494,491
493,493,372,495,490
492,491,383,495,492
492,493,391,493,492
490,492,436,492,489
489,492,492,489,492
490,492,553,486,496
492,492,621,486,504
492,493,629,490,504
491,493,618,490,502
494,493,557,492,500
490,493,456,492,502
494,494,405,491,511
493,494,378,492,501
496,494,375,489,493
492,494,383,487,481
487,492,405,487,467
487,492,457,488,480
488,492,517,489,485
489,492,593,490,484
489,493,626,490,486
488,491,625,490,495
491,492,602,491,494
492,493,510,491,497
492,494,427,492,493
491,493,391,491,491
490,495,373,489,488
489,494,380,489,493
490,492,391,489,496
491,492,427,490,492
490,491,484,490,492
490,491,545,491,492
488,489,614,493,494
489,490,628,493,498
492,492,617,495,499
492,490,566,494,497
492,493,467,495,491
492,493,408,493,491
493,493,377,488,490
488,492,375,487,486
490,492,382,488,491
495,496,403,490,497
492,494,452,487,504
491,494,509,488,491
493,495,580,488,486
491,494,627,490,499
492,492,624,491,492
492,492,611,491,500
492,493,521,491,482
491,491,433,490,481
490,492,395,491,493
488,490,375,490,503
491,491,377,490,510
492,491,389,490,516
492,495,421,488,492
490,493,476,488,482
489,491,537,489,478
488,491,606,490,482
490,491,630,489,485
490,493,621,492,490
489,492,577,491,495
491,494,481,490,495
492,494,414,490,496
492,493,381,489,508
494,494,375,488,498
490,493,380,490,487
492,492,400,492,488
490,492,446,494,480
490,491,501,493,482
491,492,571,496,494
487,491,626,496,502
491,493,625,490,491
494,493,613,488,491
492,494,535,487,489
490,491,441,488,488
492,493,400,487,490
490,493,375,488,493
490,492,377,491,490
491,492,386,490,488
488,491,415,488,491
491,492,469,487,496
491,492,529,489,501
492,494,603,489,504
493,492,631,489,501
494,491,622,490,489
491,492,585,489,495
492,494,493,491,510
493,493,417,491,507
492,494,383,491,495
491,494,373,490,495
491,494,380,489,489
490,492,394,491,482
490,491,438,490,473
489,490,496,490,480
491,490,561,491,494
491,491,623,492,507
490,492,627,491,509
493,493,614,494,498
493,491,550,495,488
491,491,449,490,483
490,492,401,489,486
491,492,373,489,483
489,491,372,490,486
491,492,383,489,489
490,491,411,491,491
490,493,462,491,493
490,493,521,492,489
490,493,595,492,498
493,492,630,492,492
492,494,623,492,480
489,490,593,485,491
491,492,504,487,495
491,491,423,489,493
491,490,386,488,492
491,490,374,490,493
492,492,380,489,497
492,494,388,489,497
493,495,432,487,493
491,494,489,489,490
490,492,551,488,491
492,493,617,491,501
490,494,630,490,497
491,492,619,491,496
492,492,564,494,515
493,493,463,491,505
493,492,406,490,491
488,491,377,489,480
488,492,373,488,479
489,492,383,489,486
491,492,406,489,489
490,492,453,489,489
490,492,513,489,492
491,493,586,488,493
490,493,626,489,494
490,494,624,488,490
491,494,604,489,492
491,492,518,489,491
492,493,431,491,495
491,492,393,490,496
493,492,375,490,497
490,492,381,491,496
490,493,388,490,497
490,492,425,491,494
489,493,481,491,494
490,493,541,489,491
491,493,611,489,483
491,493,629,491,484
489,492,621,492,492
493,494,572,493,492
492,492,473,494,494
493,492,412,495,496
490,492,379,496,494
490,493,374,495,492
493,491,383,492,487
494,494,403,491,499
491,493,448,488,508
493,493,506,488,496
493,493,577,488,493
492,493,623,485,488
489,492,626,487,495
491,493,612,491,500
489,491,527,489,485
490,492,437,490,487
489,493,396,490,489
490,491,373,488,488
494,493,377,490,489
491,491,387,490,496
491,491,419,491,499
491,493,475,490,494
492,494,532,489,492
490,494,606,489,485
491,492,629,491,486
494,494,621,490,500
493,495,582,492,513
496,495,489,494,513
493,493,417,491,505
493,491,383,486,495
492,493,372,488,478
490,491,380,490,491
489,492,396,492,503
489,493,441,488,493
491,492,499,490,491
490,492,567,491,483
489,493,621,491,484
490,491,627,492,495
491,491,616,491,495
490,493,540,490,498
491,491,446,489,491
490,492,399,491,482
489,491,372,491,487
490,494,374,489,491
492,494,386,491,493
490,494,411,488,492
492,493,466,490,493
492,492,525,489,494
492,491,601,490,492
491,492,629,490,491
490,492,622,489,494
493,491,587,490,495
493,492,498,490,493
493,492,418,490,490
494,493,385,489,489
490,494,374,489,493
490,492,379,490,498
494,492,393,489,502
494,493,437,491,504
494,494,492,491,497
494,493,555,489,480
494,492,620,490,485
492,493,626,489,490
490,492,618,492,494
498,493,555,490,494
501,492,456,490,491
501,492,407,491,492
497,493,373,491,496
496,491,375,489,493
494,492,383,491,492
489,492,405,490,489
491,493,459,490,488
487,493,516,490,488
486,491,592,491,490
495,493,630,490,490
493,494,626,491,500
496,491,603,491,504
500,493,512,491,503
502,494,427,491,501
501,495,391,492,501
505,495,377,491,499
494,493,380,489,486
494,491,389,489,485
496,491,430,490,490
496,491,484,490,494
497,491,547,491,493
498,491,616,493,494
500,493,628,491,492
499,494,618,490,491
486,492,570,491,496
492,493,466,490,495
492,492,410,489,493
490,492,376,488,493
488,492,374,489,493
490,492,384,490,494
490,491,401,488,489
486,492,451,490,489
484,492,510,489,485
486,493,580,489,496
484,494,626,488,501
487,493,627,489,506
488,495,609,489,502
494,493,523,490,479
491,492,433,490,484
492,491,396,491,494
493,492,377,490,497
493,493,380,490,503
492,493,386,490,499
485,491,423,488,484
485,491,475,489,482
483,491,537,488,486
488,492,609,490,490
492,492,630,491,494
493,494,620,489,492
493,491,577,493,493
495,493,479,492,493
498,493,413,491,493
494,494,379,491,494
493,492,375,488,498
494,495,384,490,503
489,493,401,489,501
490,492,446,489,495
492,493,503,489,486
489,493,570,489,485
488,492,624,491,491
492,491,629,490,491
490,493,613,490,490
495,494,535,491,493
500,494,444,492,495
500,493,400,493,497
501,493,375,494,495
499,491,379,494,496
500,492,386,493,495
499,491,415,491,492
497,493,469,489,493
483,492,527,489,493
490,491,603,488,490
485,493,629,489,493
485,493,623,489,497
500,493,586,490,498
504,493,492,492,500
506,493,419,491,499
505,494,384,493,495
501,490,372,493,498
503,493,380,491,492
492,494,391,492,488
488,492,438,489,490
483,493,496,491,493
486,493,562,490,494
491,492,622,491,496
490,492,628,491,499
489,493,616,490,495
487,491,547,490,488
491,491,450,491,489
496,490,400,490,491
502,492,372,489,497
493,495,377,491,496
490,492,385,490,496
494,493,408,490,494
495,492,463,490,490
488,491,519,491,486
477,491,595,491,489
477,493,627,490,491
481,492,621,489,490
485,492,595,491,488
492,493,503,490,485
495,492,421,490,487
496,492,389,489,489
491,492,373,491,495
493,491,380,489,497
493,493,391,492,503
485,493,432,491,498
485,492,488,490,495
487,493,552,491,495
490,494,615,490,497
491,493,629,492,495
497,492,620,492,496
501,492,564,492,496
504,493,463,493,491
504,493,407,493,491
501,492,374,491,491
503,493,375,492,494
507,493,383,491,495
502,494,404,488,495
492,493,455,489,495
497,492,514,490,495
483,492,586,489,494
479,494,629,491,492
477,491,624,491,485
480,492,606,492,486
484,492,517,490,490
486,491,429,491,493
486,493,393,490,491
484,493,372,490,491
488,494,378,489,492
491,493,388,489,493
489,491,426,490,493
492,492,480,490,494
494,492,544,491,498
495,492,613,491,498
493,493,629,490,495
484,493,620,489,495
485,492,571,491,507
489,494,473,490,497
490,493,411,490,499
494,494,377,491,502
493,493,374,490,505
499,494,383,492,496
495,492,402,490,490
491,492,448,490,490
486,492,507,490,498
483,491,576,491,498
483,491,625,491,489
485,493,626,490,488
488,494,613,490,492
494,495,529,491,500
494,494,437,491,504
494,493,397,489,502
498,491,376,491,496
491,490,377,490,486
489,493,385,490,497
488,492,419,491,508
490,493,474,491,514
491,493,533,490,509
494,492,606,492,502
495,491,629,491,475
495,492,619,490,464
495,493,578,489,478
496,493,485,491,488
497,493,416,491,492
495,492,381,490,494
497,491,372,490,489
496,491,383,492,490
499,490,397,493,493
502,492,442,492,491
498,493,499,489,488
498,492,563,490,493
497,491,624,490,490
497,493,626,489,488
495,493,614,490,488
494,494,542,492,489
480,492,445,491,492
486,493,399,490,492
491,491,377,490,496
479,490,376,490,494
478,491,384,490,491
487,491,413,490,491
486,491,464,489,492
489,490,523,489,492
489,493,599,490,492
490,493,629,490,493
490,492,623,490,494
491,493,587,491,492
491,491,497,491,494
491,491,419,491,494
490,491,386,493,495
489,489,373,492,493
489,491,378,491,493
491,490,388,490,492
492,489,435,490,493
492,491,492,491,493
493,492,554,489,493
493,493,617,489,494
490,494,627,491,494
494,491,617,489,492
496,494,557,492,497
505,494,458,493,498
514,494,407,493,499
524,495,376,491,496
507,495,375,491,495
499,493,386,491,491
482,496,406,489,487
475,493,459,489,492
483,493,515,489,494
482,493,593,490,488
482,493,630,490,492
483,493,623,489,493
482,491,601,493,491
485,492,510,491,491
490,492,426,491,493
492,492,393,491,491
490,493,373,491,493
488,493,379,490,491
492,493,390,489,490
492,492,429,490,493
491,493,485,490,492
492,492,548,490,494
496,493,613,490,493
500,491,630,492,493
503,492,618,492,492
482,492,567,492,493
488,493,468,491,494
490,492,409,491,495
494,494,376,490,493
493,494,376,490,494
487,494,384,490,494
498,494,405,491,495
518,494,454,493,495
527,493,511,491,495
519,495,584,492,495
499,493,627,492,495
496,494,624,490,494
480,494,610,491,493
470,495,522,491,491
483,493,433,491,491
487,494,396,491,495
492,494,375,491,496
492,493,379,490,492
490,494,388,491,491
485,490,421,488,491
493,491,478,489,491
489,492,539,492,492
507,492,609,493,494
516,493,632,493,495
521,494,621,492,494
518,492,579,491,493
510,493,479,490,492
487,493,412,489,490
464,491,379,488,490
474,491,372,488,489
469,491,382,490,491
474,493,398,488,491
479,492,446,491,492
483,493,502,492,493
484,493,568,490,495
488,492,626,490,493
491,493,626,491,491
487,492,616,491,494
491,493,536,492,493
498,492,441,490,491
491,494,398,489,491
489,491,376,492,492
492,492,377,492,492
490,493,385,491,491
489,493,413,490,492
491,492,469,489,491
492,492,529,490,491
492,491,605,491,494
493,492,631,491,494
493,491,623,493,494
492,491,585,492,495
492,492,492,492,493
495,493,418,493,494
493,491,383,489,493
496,492,372,488,492
492,493,379,488,492
491,494,391,489,491
492,493,440,490,492
491,493,496,489,492
492,494,560,490,492
494,493,623,491,493
492,492,628,492,493
493,492,616,490,493
498,494,549,492,494
494,494,450,491,494
495,493,403,491,492
492,494,374,490,492
487,493,375,489,491
490,491,387,491,493
501,493,411,491,492
502,493,464,489,492
497,493,522,490,493
493,492,598,491,494
486,493,629,491,491
481,493,624,490,491
483,494,593,491,495
492,493,506,490,492
495,493,425,490,492
495,493,390,490,492
499,494,375,491,492
500,494,382,491,494
477,493,389,489,493
484,493,434,492,492
491,492,490,491,492
491,494,550,490,492
493,493,619,491,493
495,494,630,491,493
496,494,620,491,495
502,493,564,492,496
500,493,463,491,494
490,493,406,490,492
489,493,377,492,493
492,493,375,490,491
485,493,382,490,491
492,494,405,490,491
494,493,455,490,492
493,492,513,491,492
492,492,589,490,493
488,493,626,490,492
491,493,627,491,493
491,492,607,492,494
494,492,518,491,493
496,494,433,490,492
494,494,393,491,495
494,492,374,490,493
497,494,381,490,495
495,492,390,491,495
495,492,425,490,492
489,494,482,490,492
490,493,543,490,492
491,492,613,492,492
490,494,629,490,492
490,493,620,489,493
493,491,576,490,493
495,493,474,492,493
497,493,412,491,494
499,492,380,490,494
500,492,377,492,494
490,492,383,491,493
483,495,400,489,492
486,492,449,489,492
492,493,507,489,491
492,494,575,489,492
491,494,626,489,493
492,493,626,491,491
493,493,614,490,495
493,494,527,490,496
496,493,440,490,495
497,492,398,491,494
491,492,376,492,494
492,492,380,490,493
489,494,388,491,496
490,495,418,491,494
490,493,474,492,490
490,492,534,492,492
492,492,605,494,492
493,492,631,495,494
493,493,621,493,493
489,493,581,491,493
491,494,486,491,494
491,493,416,490,493
492,494,383,489,495
492,494,374,490,494
492,493,381,492,494
495,492,398,490,495
494,492,443,491,493
494,492,499,490,493
494,494,564,492,493
491,492,623,490,494
487,494,626,488,492
490,495,614,487,493
493,494,542,489,494
493,492,448,490,494
492,493,402,491,493
491,492,375,490,494
493,491,377,491,495
491,492,387,491,495
494,491,413,489,494
492,493,467,490,492
491,493,525,489,495
490,494,599,489,493
492,494,630,489,494
492,493,624,489,494
490,493,589,489,493
491,494,498,490,495
492,493,420,489,493
492,493,387,491,494
490,492,375,491,492
491,493,380,490,493
491,492,394,490,495
491,494,436,489,494
491,492,493,489,493
494,493,558,489,493
496,493,620,490,494
495,492,629,489,493
496,494,619,491,495
495,495,554,489,494
492,493,457,491,494
490,493,405,490,493
487,494,374,490,492
490,492,377,491,492
493,494,387,491,493
488,492,409,489,495
491,492,461,489,493
491,493,518,490,494
490,492,593,491,495
490,494,629,489,494
489,495,623,490,495
491,491,602,490,493
492,495,511,490,493
491,494,427,490,493
492,493,393,491,493
491,492,377,490,494
491,493,380,489,492
491,492,392,492,494
490,493,432,491,493
491,492,486,490,493
491,493,548,489,492
490,494,614,491,494
488,491,629,489,493
493,494,620,491,493
494,493,570,493,495
494,493,467,495,495
493,493,411,494,494
492,494,376,491,494
490,492,374,491,493
491,494,383,489,493
491,494,403,488,493
491,494,453,486,494
492,493,512,486,493
491,493,583,489,493
493,493,630,489,495
491,492,629,490,494
489,492,611,491,494
493,494,524,489,494
491,493,435,490,494
492,492,394,489,493
492,495,375,488,493
493,494,380,489,493
493,493,388,491,492
490,492,425,489,494
490,493,478,489,494
493,492,540,490,493
492,491,612,491,494
489,492,629,490,495
493,492,622,489,493
486,495,580,491,495
488,494,478,490,495
491,494,414,490,495
492,493,383,489,495
493,492,376,490,495
492,495,382,489,495
492,493,401,489,494
495,493,446,490,494
490,493,504,491,492
493,494,571,490,492
494,494,626,491,494
488,494,628,489,493
491,493,613,491,494
492,492,536,490,495
489,493,443,490,495
490,493,400,491,494
492,495,375,491,493
491,493,379,490,494
492,493,385,489,492
490,495,414,489,493
489,493,471,489,493
489,492,529,490,492
491,494,605,489,494
491,495,629,490,494
490,492,623,491,494
490,492,586,492,494
491,493,492,491,495
492,493,418,489,495
493,494,384,490,493
494,492,375,491,494
493,493,382,489,494
493,493,394,489,494
493,492,440,489,494
488,493,496,489,494
489,494,561,489,492
491,494,622,490,493
490,494,627,489,492
491,495,616,489,492
491,492,550,491,495
491,495,452,490,495
491,493,404,489,495
492,493,376,489,494
491,493,379,490,496
490,493,387,488,494
492,495,411,491,493
491,493,464,489,493
491,492,520,489,493
491,494,596,489,493
491,494,629,489,494
491,493,624,489,493
490,493,595,489,495
493,493,504,491,494
491,494,423,491,495
490,493,390,491,495
488,493,376,491,492
490,492,382,490,495
494,494,390,490,495
493,493,434,488,495
492,494,490,489,493
492,494,554,489,493
489,494,618,489,493
490,495,630,490,494
490,494,619,489,493
489,493,561,491,495
492,494,463,491,495
491,493,408,490,493
492,492,377,489,492
493,495,375,491,494
494,492,384,489,494
496,493,406,488,494
495,494,456,489,494
496,493,514,489,495
494,494,584,489,493
485,493,627,491,494
488,493,625,491,493
488,494,604,491,493
490,495,518,491,495
490,493,433,491,495
491,493,393,489,494
493,492,376,491,493
491,492,380,491,495
491,493,391,493,495
491,492,428,493,494
493,494,481,492,493
493,493,543,491,494
494,493,611,489,494
490,494,628,486,494
492,494,621,487,494
493,495,573,492,495
490,494,473,490,495
492,494,413,490,495
491,492,379,490,496
492,492,376,491,494
492,493,383,491,493
494,493,400,489,494
494,494,449,490,493
492,493,508,489,493
493,494,575,488,493
490,495,626,489,494
485,493,627,490,496
488,493,610,491,496
492,492,530,490,493
490,493,437,491,495
491,493,397,490,493
490,493,375,491,494
490,494,379,490,495
490,494,386,490,493
489,493,420,492,494
493,494,473,489,493
492,493,534,490,495
491,493,608,491,492
493,494,628,490,493
492,493,623,489,495
493,494,579,492,494
491,495,484,491,495
492,495,416,491,493
491,494,382,490,494
490,493,374,491,494
492,493,384,491,493
490,493,397,489,496
492,492,443,489,494
492,493,500,489,494
493,493,565,488,492
495,492,623,490,492
491,492,628,490,492
490,495,613,489,492
490,496,542,490,495
491,494,448,491,495
490,493,400,489,495
491,493,375,490,493
489,492,377,491,494
491,493,385,491,494
491,493,413,491,493
490,492,467,489,493
491,494,525,489,495
490,493,603,489,493
492,493,629,489,494
493,492,624,490,495
492,493,591,490,496
493,493,497,490,495
492,493,421,491,495
492,494,386,490,494
490,492,372,490,493
492,494,379,490,493
493,494,392,490,495
490,492,437,489,493
491,493,494,491,494
490,492,557,489,495
493,493,620,490,495
493,493,629,491,495
491,494,617,489,494
490,493,555,491,495
492,494,457,490,494
490,493,404,489,493
491,494,374,489,492
491,495,377,491,493
490,493,385,489,494
494,494,407,490,493
491,493,461,490,494
491,493,518,491,495
491,492,594,491,494
490,494,628,491,494
491,492,625,489,492
493,495,603,491,496
492,494,510,490,494
495,494,426,489,494
496,494,393,490,495
496,493,374,490,493
492,492,381,491,494
491,494,390,492,493
493,493,429,490,493
488,492,485,489,493
484,493,547,490,495
491,492,613,489,494
495,493,629,491,493
491,492,620,490,495
495,493,569,490,495
494,493,469,490,494
492,493,409,490,494
489,492,376,489,493
492,493,374,490,493
489,494,382,490,493
491,495,402,489,493
491,494,454,489,493
491,493,512,491,494
492,493,584,489,493
490,494,627,491,494
491,492,625,491,494
491,493,610,492,494
492,494,524,490,495
493,493,433,490,494
491,493,397,491,495
490,495,373,489,493
492,494,379,489,494
494,493,390,490,495
493,493,421,490,494
494,493,478,489,493
491,493,541,491,494
490,492,610,492,493
487,493,629,491,492
489,495,623,491,495
492,495,574,490,494
491,493,481,490,494
491,494,414,490,494
493,493,381,489,494
493,493,377,491,494
491,492,384,489,494
491,494,400,492,495
491,493,447,490,493
492,493,504,491,493
493,494,570,490,492
491,496,626,490,493
488,493,627,492,494
491,493,615,492,493
491,494,537,491,495
492,493,442,490,496
490,493,400,490,495
489,492,375,489,494
491,493,377,490,493
493,492,389,490,493
492,494,415,489,493
493,493,470,489,493
493,493,529,489,493
490,492,604,489,494
492,493,630,490,493
492,493,624,491,494
491,493,586,492,494
491,494,492,491,493
492,494,420,491,493
491,493,386,490,493
491,495,373,491,494
490,494,382,490,494
492,493,393,489,493
495,493,441,490,494
492,494,497,490,493
492,492,561,491,494
492,494,622,490,494
490,494,626,490,493
491,494,615,489,493
491,495,548,490,495
492,493,453,491,494
493,494,404,490,493
491,493,377,490,494
492,492,377,491,495
492,493,387,491,495
490,495,410,489,493
490,492,464,491,493
492,493,521,490,492
491,494,595,490,493
492,494,628,489,494
492,494,624,489,494
493,494,595,492,494
490,493,505,490,495
491,493,423,490,494
491,493,390,492,495
490,492,374,491,493
491,493,380,491,495
492,492,393,490,493
491,495,435,491,494
491,494,491,490,493
492,493,552,490,493
493,494,618,489,495
494,495,628,489,493
491,492,617,492,493
494,495,563,491,494
493,494,462,491,495
493,493,406,491,493
494,495,375,491,496
494,492,375,489,495
494,493,384,491,494
492,493,408,489,495
490,493,456,490,494
488,493,514,489,494
489,492,588,491,490
491,494,627,491,492
491,493,627,490,495
493,494,603,491,494
492,494,515,490,494
491,494,431,490,493
493,493,395,492,494
494,493,375,490,493
491,494,379,491,494
490,493,390,492,495
491,492,426,491,494
490,493,482,489,493
491,493,542,490,493
491,493,615,491,494
491,495,629,490,494
492,493,620,490,495
494,494,573,490,495
494,493,473,491,494
493,492,412,490,494
493,495,378,492,495
491,493,374,491,493
491,493,380,490,493
492,494,399,489,492
492,492,451,490,494
492,493,506,490,492
491,493,577,489,494
493,493,626,490,495
492,492,626,491,494
493,492,613,490,493
493,495,528,491,495
492,494,438,490,494
491,493,397,490,493
492,495,373,490,493
493,495,379,489,493
491,494,388,491,494
495,492,420,490,494
491,494,476,490,494
490,493,534,491,494
491,492,607,492,494
493,494,632,491,495
494,495,620,490,494
494,493,583,492,494
492,495,485,491,494
492,493,415,490,494
493,492,383,490,495
492,492,375,490,493
491,494,382,491,494
490,495,396,489,493
491,493,443,491,492
490,493,499,490,493
490,494,564,489,492
490,492,626,491,494
492,493,628,491,492
491,494,618,490,495
493,492,543,491,495
491,493,446,491,494
491,493,402,489,493
493,492,374,492,493
493,492,377,491,493
492,494,385,490,493
492,495,411,489,494
493,493,466,490,492
492,492,525,491,494
493,493,599,490,493
493,493,631,491,494
490,493,623,491,493
489,494,588,492,493
492,494,499,491,494
492,493,422,490,493
491,494,385,491,495
491,492,375,489,494
492,492,381,490,495
492,492,394,490,495
492,492,435,490,492
492,492,492,490,493
492,493,557,489,493
490,493,619,491,492
490,494,627,490,492
492,495,616,488,495
491,492,558,490,494
491,494,457,490,494
491,493,407,490,494
492,492,377,490,496
491,492,376,491,494
492,494,385,490,494
492,493,407,492,494
494,493,460,490,493
492,494,517,490,493
492,494,592,489,494
492,494,629,490,494
492,493,624,490,492
492,492,601,490,496
493,495,510,491,495
493,493,427,491,494
491,492,391,492,494
491,492,376,491,494
492,492,382,490,493
492,494,391,491,495
493,495,431,490,493
493,493,484,490,493
494,492,547,489,494
494,494,614,490,492
490,492,629,491,493
494,494,619,491,493
486,493,568,492,493
489,492,467,491,494
491,492,409,491,495
491,492,376,490,493
492,493,375,491,493
493,493,386,490,493
494,493,406,491,495
491,494,454,490,495
492,493,511,491,494
493,494,582,493,493
490,493,628,491,494
492,494,626,490,493
492,494,608,490,493
494,494,523,491,494
493,494,434,491,494
493,493,397,490,493
492,494,374,490,495
491,493,379,491,495
491,492,389,492,494
490,492,422,489,493
491,493,478,490,493
491,492,540,490,494
492,495,609,489,493
492,493,631,490,494
492,492,621,491,495
491,494,576,490,495
492,493,480,491,494
492,494,415,491,493
491,493,381,492,493
490,493,373,490,493
492,494,382,489,493
493,492,402,492,495
493,494,446,490,494
491,493,505,490,492
491,493,573,491,494
491,492,625,492,495
491,493,627,490,494
493,493,613,493,494
493,492,535,492,495
494,494,442,492,493
493,494,398,492,493
493,494,374,489,493
491,493,377,491,494
491,492,387,490,492
491,495,418,490,494
491,493,471,490,493
490,492,529,491,493
490,493,605,489,493
492,494,629,490,492
490,491,623,491,493
493,496,584,490,493
493,494,492,491,494
492,493,418,490,494
492,493,386,491,492
491,494,376,492,493
491,493,381,490,494
492,493,394,492,493
492,494,440,491,494
492,494,497,491,492
496,494,564,492,494
491,495,622,492,494
490,494,630,491,494
492,492,618,492,495
491,492,550,492,495
492,493,451,491,493
492,492,404,491,493
493,492,375,490,492
491,494,376,489,493
492,494,385,490,493
493,494,409,490,493
492,493,464,490,491
492,493,521,491,493
490,492,599,491,494
490,493,630,492,493
488,493,623,492,492
490,493,594,491,493
495,493,506,491,495
493,493,422,491,495
494,493,389,490,493
497,495,375,490,495
497,491,381,491,495
497,492,390,490,492
492,493,434,492,494
489,494,490,491,494
491,494,552,492,492
489,495,616,492,493
490,494,628,489,493
488,494,619,490,493
494,494,561,492,494
493,494,462,491,494
492,493,409,491,494
491,492,378,492,495
492,494,376,490,494
493,493,384,491,494
491,492,407,490,492
491,494,456,491,492
491,493,514,490,492
491,494,586,489,493
493,493,628,491,491
491,492,627,492,495
493,494,603,489,494
491,493,517,492,494
492,493,431,492,494
492,493,392,490,495
494,492,378,490,493
492,494,379,492,494
492,494,391,490,494
493,493,428,491,494
491,493,480,491,493
491,494,543,489,493
491,493,614,493,495
492,493,630,490,492
492,494,620,489,493
491,495,571,491,493
493,494,473,491,493
493,493,413,490,494
492,494,376,491,493
493,493,377,491,494
491,493,385,492,493
491,492,402,492,493
491,493,449,491,493
492,493,508,491,492
491,494,578,491,494
492,495,626,490,493
492,494,628,491,494
492,492,613,490,495
493,495,528,490,493
493,493,438,491,493
492,493,396,492,492
492,493,375,491,492
492,494,377,490,492
493,494,386,492,496
490,493,420,491,493
492,493,475,491,494
493,493,536,491,494
493,493,610,492,494
490,492,630,492,493
492,493,622,490,492
490,493,580,491,495
493,493,483,492,494
494,494,416,490,494
493,494,383,490,493
494,493,375,490,493
492,494,382,490,493
490,492,398,490,492
493,493,442,490,493
492,493,501,491,493
490,493,566,491,492
490,493,622,491,494
492,492,627,490,492
492,492,615,493,495
495,494,542,491,494
493,494,448,492,494
492,492,401,491,494
493,495,373,490,494
490,493,377,490,494
493,493,385,491,492
491,495,412,490,493
491,494,468,491,493
491,494,525,491,494
491,495,602,490,493
492,494,630,491,495
493,492,625,492,494
491,492,592,493,495
492,493,498,492,495
492,493,421,490,493
493,493,386,492,492
491,492,375,491,494
493,494,381,490,493
491,493,394,490,493
492,493,436,490,493
490,493,493,490,493
491,492,558,489,492
492,494,621,491,493
491,493,629,491,492
490,494,616,491,493
491,494,557,491,495
493,494,457,491,493
492,493,405,491,493
493,494,376,489,493
493,492,378,491,495
490,493,386,492,494
492,496,407,492,494
492,493,460,490,493
494,493,517,490,492
493,494,592,490,493
493,495,628,490,493
493,493,624,490,494
489,493,600,492,494
491,493,512,492,495
492,493,426,490,494
493,493,393,492,494
493,492,376,492,494
491,493,381,490,494
493,494,390,491,491
494,491,432,491,493
490,494,486,490,493
491,494,549,489,493
492,493,615,489,493
492,494,628,491,494
491,492,619,490,493
492,492,568,492,494
492,493,468,491,494
491,492,410,491,493
492,492,378,490,494
493,495,375,490,494
490,493,383,490,494
492,493,405,489,494
493,493,454,490,494
493,493,511,490,494
491,491,581,489,493
493,493,627,491,492
492,492,626,491,493
492,494,607,490,493
492,495,523,491,494
492,494,434,490,494
492,493,396,490,494
493,494,375,492,492
491,492,380,490,494
492,492,389,491,495
492,491,424,491,494
491,493,476,490,493
492,492,540,491,493
492,493,608,492,493
491,493,628,491,491
491,495,620,491,493
492,495,575,492,496
492,493,479,490,493
491,492,415,491,494
492,493,380,489,494
494,493,375,490,494
493,492,384,491,494
491,492,399,491,493
493,494,445,491,494
491,493,502,491,494
491,493,570,491,492
490,494,624,490,492
492,494,626,490,492
492,492,613,493,493
494,494,536,491,493
493,492,441,491,493
494,493,399,490,494
493,492,377,489,495
490,492,377,489,494
492,494,387,491,493
490,493,416,490,494
491,492,470,491,493
490,493,529,490,491
491,494,602,491,490
490,492,630,491,493
493,493,624,492,492
491,492,584,491,495
492,494,491,491,495
492,493,419,490,494
491,492,385,492,495
491,494,373,489,493
491,493,381,491,494
493,492,394,491,492
492,494,439,491,493
491,493,497,490,493
492,494,560,492,494
491,492,623,491,494
493,494,626,491,492
493,492,618,491,495
491,492,550,492,495
491,492,452,491,494
492,493,402,490,494
491,493,376,490,494
493,492,374,490,492
492,494,384,490,492
491,495,410,489,492
492,493,464,491,494
492,494,521,490,492
490,493,597,492,493
493,492,630,490,494
492,492,625,492,493
492,492,596,493,495
491,493,503,490,494
493,494,424,491,493
491,492,389,490,491
491,493,372,490,493
492,494,380,490,493
492,494,391,490,493
490,493,433,491,492
493,494,490,491,493
491,493,553,491,495
492,492,619,491,493
493,492,629,491,493
491,492,618,490,494
494,493,561,491,493
495,493,461,490,495
494,493,406,490,493
494,494,376,490,492
492,495,376,490,493
491,492,384,490,494
494,493,405,491,492
489,492,457,490,494
490,493,515,490,493
492,492,589,491,494
492,492,628,492,493
492,493,625,491,491
490,495,604,491,495
492,492,515,490,494
491,493,430,490,492
491,494,394,490,493
492,494,376,491,493
491,492,380,490,494
490,494,388,490,496
492,492,428,492,495
492,493,483,491,493
490,493,543,493,494
493,494,612,492,493
491,494,631,492,494
492,493,619,489,493
495,495,572,490,493
497,494,474,491,494
495,492,412,491,493
495,493,379,489,492
492,493,374,491,495
488,492,383,491,494
490,492,403,492,493
490,492,450,491,494
491,493,506,490,493
493,493,576,491,492
492,492,626,491,493
492,494,626,489,493
493,494,613,490,492
494,494,529,491,494
492,493,437,490,493
493,493,397,491,492
492,492,376,491,494
492,493,379,491,494
491,493,388,492,493
489,493,419,490,494
491,494,474,491,493
492,493,535,491,493
493,495,606,490,492
493,494,631,490,493
493,493,623,491,492
491,494,582,491,495
493,494,484,492,493
494,493,416,491,494
493,493,383,492,495
491,493,374,492,493
490,493,381,491,495
491,492,397,490,491
492,494,445,491,493
492,492,499,490,491
494,494,566,489,492
492,494,623,490,494
491,493,625,490,492
491,492,617,492,493
492,495,541,492,495
493,493,446,492,494
492,494,401,492,492
492,492,375,490,494
493,492,375,490,493
493,492,388,493,495
493,494,412,491,494
493,493,467,491,493
492,494,526,492,495
490,494,599,491,495
490,493,631,491,494
491,493,622,492,492
491,493,587,491,493
493,494,498,491,494
493,494,421,490,493
494,492,388,493,494
495,494,375,491,492
490,494,379,491,495
492,492,394,492,495
491,492,437,492,494
491,492,492,490,493
492,493,555,491,492
491,492,621,492,494
492,494,628,490,494
493,494,617,490,493
494,494,557,491,495
492,493,456,492,494
493,493,406,491,493
493,494,377,493,495
492,492,375,492,493
491,493,384,491,493
491,494,410,491,495
492,494,459,491,493
491,493,519,492,493
495,494,593,490,495
494,493,630,491,494
493,492,626,492,495
492,492,602,490,494
496,494,511,492,495
491,493,426,491,494
490,493,389,491,493
491,494,375,490,493
492,494,381,490,493
490,493,390,493,493
494,493,432,491,492
491,493,485,491,494
492,492,548,492,493
492,492,617,492,493
491,493,629,491,494
494,494,618,490,492
492,492,570,492,494
491,494,466,492,494
492,494,409,490,494
493,494,378,490,492
491,493,373,491,495
492,492,384,490,493
493,492,405,494,492
493,492,453,491,494
491,494,511,491,493
490,495,581,491,493
492,492,628,492,493
493,494,627,492,492
491,494,610,491,495
494,492,523,491,494
494,493,434,491,494
493,492,395,491,494
495,492,376,492,493
493,493,380,491,493
491,494,386,490,493
489,495,421,490,492
492,493,478,491,493
491,492,538,490,494
494,493,610,492,492
491,492,631,492,494
490,492,621,492,493
490,493,579,493,494
491,494,480,491,494
492,493,413,491,493
492,492,382,490,492
492,494,373,490,494
494,493,383,491,493
494,493,400,491,494
493,493,445,491,493
493,494,504,491,493
494,495,571,491,492
490,493,624,491,493
492,495,626,490,492
492,495,614,491,495
491,492,537,491,494
495,495,443,492,494
491,493,399,491,494
493,492,376,490,494
492,492,379,492,494
492,493,387,491,493
490,492,415,492,493
492,493,470,492,493
491,492,529,491,492
492,494,602,490,491
494,494,631,492,493
492,493,623,490,495
494,493,583,493,492
493,493,492,492,494
494,493,419,491,494
492,493,386,493,494
490,493,375,493,494
491,492,382,490,492
492,494,397,492,495
491,494,439,490,493
492,493,497,490,493
493,494,562,490,494
494,494,621,491,493
492,493,628,492,493
494,494,617,493,493
491,492,547,492,493
492,493,452,491,494
491,494,404,492,495
491,492,373,490,493
492,493,377,492,492
492,492,386,491,494
493,493,412,491,494
493,492,464,490,493
491,493,520,491,493
490,492,598,490,493
493,493,630,492,492
491,494,622,491,492
493,495,593,490,492
493,495,505,491,493
492,493,424,492,494
493,493,390,490,492
491,494,374,492,494
491,492,381,492,494
492,493,392,493,493
491,493,433,491,493
493,493,489,491,492
492,493,554,492,494
491,495,617,491,494
492,494,629,489,494
493,493,620,491,494
491,494,560,491,495
492,493,462,491,493
492,494,408,492,493
491,492,376,493,494
491,493,374,491,491
492,494,386,491,494
491,495,404,490,493
491,493,458,491,492
492,493,515,490,493
493,492,589,490,494
494,492,629,491,494
491,492,625,490,493
493,494,606,493,493
491,494,518,491,493
492,493,429,491,493
492,494,393,490,493
492,495,375,490,493
490,493,379,493,494
493,493,391,491,492
492,495,428,492,495
492,492,482,491,493
493,493,544,492,492
493,493,613,490,495
492,494,629,490,493
491,492,622,492,493
492,495,572,491,494
493,493,474,491,494
493,493,413,491,493
491,494,378,491,495
494,492,374,490,493
496,493,384,493,493
493,492,402,492,493
492,493,449,491,493
493,493,508,491,492
492,491,578,492,492
492,495,626,492,492
489,494,628,491,493
491,492,613,491,495
492,493,530,492,493
492,494,438,492,492
491,492,397,492,494
493,494,375,491,492
491,494,377,490,492
492,494,386,490,492
493,496,419,491,492
491,493,475,491,494
493,493,534,491,492
492,493,610,492,495
490,492,630,492,493
491,493,621,491,492
491,493,582,491,495
493,494,484,492,494
493,493,417,491,493
492,494,382,491,493
491,493,374,491,494
491,492,383,491,494
491,492,395,491,492
491,492,444,492,494
491,493,501,490,493
490,493,566,492,492
491,493,623,490,492
493,494,626,490,495
492,492,616,490,493
495,495,542,492,493
492,494,447,492,493
492,493,401,491,494
492,492,377,491,494
491,494,377,490,494
490,493,385,492,494
494,493,414,491,492
491,494,467,491,494
491,493,524,491,493
493,495,600,493,493
492,494,631,491,493
495,494,621,490,492
490,492,591,493,496
491,493,498,492,495
494,493,421,492,494
493,493,387,492,494
494,492,375,491,493
492,494,382,492,493
489,494,393,490,493
493,493,436,490,492
492,493,493,490,493
492,494,556,491,491
492,492,621,492,493
493,494,629,491,492
491,494,616,491,492
491,493,554,491,493
492,494,457,492,493
492,493,405,490,493
494,492,377,493,493
493,492,377,491,494
492,492,385,492,494
492,492,409,492,494
493,495,460,491,493
492,492,517,491,493
493,493,593,492,492
491,494,628,491,493
493,494,624,491,493
494,494,600,490,493
495,494,511,493,494
494,493,427,491,492
492,494,391,493,494
490,492,376,492,493
490,493,379,492,493
490,493,389,491,494
492,492,429,489,493
491,493,486,491,493
490,494,549,490,492
492,494,615,490,494
493,493,630,491,493
493,495,619,490,494
491,492,568,490,493
493,494,469,492,493
492,492,410,492,493
492,493,375,491,491
492,494,377,492,493
491,494,384,490,494
491,493,403,492,494
493,492,455,491,494
492,493,512,491,494
492,492,584,492,494
491,493,627,491,494
493,493,624,491,492
492,491,611,492,495
492,495,522,492,493
493,493,433,491,493
493,494,395,490,493
492,492,376,492,494
492,492,380,490,492
493,494,390,493,494
490,492,424,493,494
489,492,478,491,492
491,493,539,490,493
494,493,609,491,492
493,492,630,492,492
493,494,621,491,493
493,494,578,491,495
494,493,479,492,493
496,493,414,492,493
492,492,378,490,493
492,493,375,492,491
490,492,382,491,493
491,494,398,491,492
491,494,446,490,492
491,493,506,492,493
492,494,572,492,492
491,494,628,492,494
492,492,628,492,494
491,491,614,493,494
491,492,536,491,493
493,493,441,492,493
493,493,399,491,491
492,495,373,491,493
492,494,377,490,493
493,493,387,490,492
490,493,415,491,493
492,492,470,491,492
492,493,531,491,493
491,492,605,493,493
491,493,629,491,492
491,493,623,491,494
492,494,582,492,495
494,493,492,491,493
494,494,419,491,493
493,494,385,491,494
493,493,375,491,494
490,492,380,490,492
492,492,396,493,495
493,494,440,491,493
491,493,498,491,492
492,494,560,491,492
492,495,620,490,493
490,493,628,491,494
492,493,615,492,492
490,493,550,492,494
492,493,452,492,494
492,492,403,492,494
491,495,375,490,493
491,493,376,491,494
493,492,386,490,492
491,496,410,490,492
491,494,464,491,493
491,494,520,491,492
490,493,599,490,493
493,494,628,490,493
491,493,625,492,493
490,492,596,493,493
491,493,504,492,494
493,493,423,491,493
492,492,390,491,492
491,495,375,492,493
491,493,382,490,494
493,493,392,491,495
493,492,433,491,494
493,494,490,491,492
491,493,552,493,493
493,495,618,492,492
491,494,628,491,492
491,494,618,490,492
492,495,561,493,494
492,493,463,492,493
493,492,407,491,493
494,492,377,491,494
491,492,377,492,494
490,492,384,492,493
493,494,406,490,492
491,492,457,490,493
491,493,513,491,492
492,494,586,490,492
491,493,628,491,493
492,493,625,491,494
492,495,604,492,492
493,493,519,492,494
493,493,430,491,494
493,493,395,492,494
492,492,375,492,493
492,494,378,492,494
491,493,389,490,492
492,493,426,492,493
491,494,483,491,493
492,493,544,491,493
496,492,613,491,494
494,494,629,490,493
490,493,619,491,494
492,494,571,492,493
490,494,473,492,493
490,493,411,491,493
491,494,379,492,494
491,494,375,491,494
490,493,381,490,494
492,492,404,491,494
491,493,451,491,493
491,492,507,491,493
491,492,575,490,493
493,494,625,491,492
491,492,627,492,494
492,494,611,490,492
493,495,529,491,493
492,494,438,491,493
492,493,397,491,495
492,492,377,490,493
492,494,378,493,493
491,494,388,492,492
491,493,418,492,492
491,493,475,491,493
492,494,534,491,492
491,492,608,493,493
492,493,631,491,494
492,492,623,492,494
492,492,582,492,493
493,494,484,492,493
492,492,414,491,494
492,493,380,492,493
491,493,374,490,492
491,494,381,490,493
492,494,395,489,493
491,493,444,492,492
491,493,501,491,492
491,493,568,490,493
492,492,626,492,493
490,492,627,493,493
490,493,617,490,494
494,494,540,492,493
493,493,447,491,492
492,494,401,490,493
492,495,375,490,493
493,492,378,492,492
491,494,385,492,494
492,492,411,491,493
492,493,468,491,493
491,493,525,492,492
490,493,600,492,492
492,492,631,491,494
492,494,623,490,492
490,492,589,490,494
493,494,498,491,493
492,493,421,491,494
492,492,388,492,496
491,492,373,490,493
494,493,381,493,492
493,492,393,491,491
492,494,435,491,492
491,493,493,491,493
491,493,555,490,493
491,492,620,492,493
493,492,627,492,491
493,491,618,493,495
491,492,557,494,495
491,493,457,493,493
491,493,405,492,493
491,493,375,493,493
492,491,375,491,492
493,494,385,491,494
494,495,409,492,494
492,493,460,493,494
491,493,519,492,494
491,495,592,492,493
491,493,629,493,493
491,493,624,492,491
491,494,599,493,492
492,494,511,492,494
494,493,428,492,492
493,493,392,494,494
494,494,376,491,495
494,492,382,492,494
492,492,391,493,495
490,495,428,491,493
489,493,486,492,492
491,493,548,493,492
490,494,614,493,492
492,494,630,492,493
492,494,620,494,495
491,493,569,492,494
494,494,468,493,494
493,493,410,492,495
492,493,379,493,495
490,492,376,493,493
493,494,384,491,492
491,494,403,492,494
492,492,452,492,493
492,493,510,492,493
493,494,584,491,493
493,494,628,491,493
492,493,624,491,492
492,492,612,494,492
492,494,521,493,494
493,493,434,493,494
492,493,396,494,494
491,492,376,492,495
493,493,379,492,492
492,492,390,493,495
492,495,422,491,493
492,494,479,492,492
491,494,539,491,493
491,492,611,493,493
492,493,632,492,492
492,494,623,493,495
493,493,579,494,495
492,494,481,494,494
492,493,413,492,494
493,494,379,493,492
493,492,376,494,493
493,495,382,491,494
493,494,400,491,494
494,494,448,492,494
492,493,504,493,493
492,494,574,493,494
492,495,626,492,494
492,493,626,493,492
491,495,613,493,492
491,495,535,493,494
494,494,442,493,492
493,494,400,493,493
490,492,375,490,494
493,493,379,492,494
493,493,389,493,495
492,492,413,491,492
492,493,472,491,493
492,494,530,491,493
491,493,604,493,492
491,494,630,492,492
492,495,621,492,494
493,492,586,491,493
494,495,493,493,494
494,493,417,492,493
492,493,385,492,494
494,493,376,492,494
492,492,383,493,494
493,494,393,491,493
491,494,440,492,494
493,493,498,492,493
493,495,561,491,492
492,496,622,492,493
492,494,628,493,493
491,493,619,492,495
490,494,547,492,495
492,493,452,492,493
492,493,405,492,495
492,492,378,493,493
493,493,376,492,492
492,494,387,492,495
493,494,408,491,492
492,494,463,491,492
492,494,521,491,492
492,493,597,493,493
494,493,631,492,492
492,495,624,493,495
492,492,595,494,495
493,494,505,493,494
494,494,424,493,493
492,494,389,492,495
494,495,374,491,493
491,493,381,493,494
493,493,391,490,494
494,493,435,491,493
492,494,489,491,493
491,493,551,492,494
491,493,618,491,494
492,493,628,492,492
492,494,618,491,492
491,494,561,491,492
493,493,463,492,494
495,494,408,491,492
492,493,377,491,494
493,493,377,492,495
492,493,385,493,494
492,492,409,491,492
493,494,457,492,494
492,494,514,491,493
492,493,588,493,493
491,494,627,491,492
491,494,625,490,492
492,494,605,491,495
491,493,518,491,493
493,494,431,492,493
491,492,394,491,495
493,493,377,492,494
492,492,382,493,493
491,494,390,491,493
491,493,426,493,493
493,493,483,492,493
492,493,543,491,492
493,495,613,491,493
493,494,632,492,493
491,494,622,492,495
494,495,572,492,493
493,493,474,493,494
493,493,413,492,494
492,493,380,494,494
494,494,376,492,492
491,494,382,492,494
492,492,401,490,493
492,493,449,491,492
491,493,508,490,492
492,494,578,490,492
494,493,626,491,492
496,492,628,492,491
492,494,612,493,495
488,492,529,492,495
491,494,438,493,494
491,493,398,492,495
492,492,373,491,493
492,493,379,494,494
492,493,388,491,494
494,494,420,491,494
493,494,475,492,493
492,493,534,492,495
491,493,609,491,493
494,494,631,492,493
491,494,621,491,492
491,494,580,492,493
493,494,488,492,494
491,494,416,491,494
492,493,383,493,493
493,493,376,491,495
492,492,383,492,495
493,492,399,492,495
491,493,444,491,492
490,492,499,491,493
491,493,567,491,492
492,493,622,491,492
492,494,626,490,492
493,495,615,491,493
491,492,543,494,494
493,494,446,492,494
492,494,402,492,494
492,492,376,492,495
491,492,377,493,494
492,493,386,492,494
494,493,412,493,492
493,494,467,491,492
490,494,524,491,493
491,494,599,491,493
493,494,630,491,492
491,493,622,492,495
492,492,586,492,493
492,493,498,493,495
492,493,420,493,495
492,493,386,493,494
492,493,374,492,493
493,492,382,492,493
493,495,391,493,494
491,492,436,491,493
492,493,492,491,492
492,493,556,490,493
493,493,618,491,492
492,491,628,492,494
493,494,617,491,494
491,493,554,493,494
492,492,456,492,494
492,493,404,492,494
492,492,377,491,492
492,494,376,492,493
491,493,386,491,493
494,493,408,491,495
493,493,459,491,494
492,494,516,492,493
491,493,593,493,492
495,494,630,493,491
494,494,623,491,493
491,494,598,492,494
493,495,510,493,493
493,494,428,492,494
492,493,392,490,494
492,493,374,491,494
493,491,381,492,495
491,492,390,493,495
490,492,429,492,493
490,494,484,491,493
491,492,548,491,493
492,493,614,491,492
491,493,628,490,493
492,493,619,490,493
494,492,569,493,493
493,493,467,491,494
492,493,408,492,494
491,492,378,493,494
490,492,374,493,492
491,493,383,491,494
493,493,402,492,493
492,492,453,492,494
492,493,512,491,493
493,494,583,491,494
494,493,628,492,494
492,491,626,492,492
492,494,607,493,494
491,492,522,491,493
493,493,433,492,493
492,493,394,492,492
493,493,373,491,492
493,492,380,492,494
492,493,388,490,493
492,492,422,490,493
492,493,478,491,494
491,492,539,491,495
491,491,610,490,493
493,494,630,492,493
491,492,622,491,494
492,494,576,492,493
494,494,479,492,494
492,493,413,491,493
490,493,382,493,493
493,492,375,491,493
492,494,384,492,494
492,492,402,493,495
492,493,447,492,494
493,493,503,492,493
492,493,573,491,494
489,495,624,491,494
491,492,627,490,493
493,493,615,491,494
494,493,535,492,494
493,494,442,491,493
491,494,399,492,495
491,495,372,490,493
491,493,378,492,492
491,493,386,492,492
491,493,414,491,492
492,493,472,491,492
491,493,528,492,493
491,492,606,490,493
492,493,632,492,494
492,491,623,492,494
492,492,583,491,492
493,493,492,493,494
492,493,417,491,494
493,493,384,493,493
491,493,374,491,492
491,493,381,490,493
493,494,394,492,493
492,493,441,491,494
493,493,498,491,493
492,493,564,492,494
492,492,624,492,494
491,492,627,492,492
494,493,618,491,493
491,494,547,492,495
493,493,450,492,494
491,493,403,491,493
492,494,374,490,494
493,493,376,491,492
491,492,387,492,494
491,494,408,490,494
490,492,465,491,493
492,492,521,492,492
492,492,596,492,493
493,492,631,491,493
491,494,624,493,495
490,495,592,490,493
494,494,504,492,494
493,493,422,491,494
493,492,390,491,495
492,494,373,490,494
491,492,381,491,494
492,493,390,493,493
490,493,432,492,493
491,493,489,491,492
494,494,554,492,492
491,495,617,491,495
489,493,628,490,495
492,492,621,492,495
492,492,563,493,495
491,493,462,491,494
492,494,407,492,494
491,492,375,490,493
493,494,373,490,492
492,494,384,490,493
493,494,405,490,493
492,492,457,491,493
492,493,515,490,492
490,493,587,491,494
493,492,629,492,493
491,492,625,493,493
490,492,605,493,494
491,493,518,492,493
493,493,431,492,493
493,492,393,492,492
492,495,375,491,493
492,493,380,491,494
492,492,389,491,492
491,494,425,492,494
492,493,481,491,493
492,493,544,492,492
491,493,613,492,493
492,493,628,491,493
493,491,621,492,494
492,495,572,491,494
492,493,473,491,493
494,494,412,491,493
492,493,379,491,494
493,492,375,489,492
493,493,384,492,493
491,495,401,490,493
491,493,450,491,493
491,493,507,492,492
490,493,576,491,491
491,494,625,490,493
491,493,627,490,494
492,492,611,493,493
491,493,529,491,493
493,493,438,492,494
492,492,398,492,494
491,495,374,490,493
491,493,377,492,495
492,492,388,491,492
492,495,419,491,493
492,494,474,491,493
492,494,534,492,493
491,494,610,491,494
492,494,629,490,493
491,492,623,492,493
493,492,582,493,493
494,493,486,493,493
492,493,416,491,492
493,494,382,491,496
493,492,373,490,494
496,493,382,490,493
496,493,397,490,494
493,492,443,491,494
489,493,500,491,492
489,493,568,492,492
490,494,622,492,493
490,493,627,492,492
490,494,614,493,492
491,494,541,491,495
493,492,447,492,493
491,492,401,492,493
493,494,375,490,493
493,492,379,492,495
492,491,387,492,495
492,495,411,490,493
491,492,468,491,493
491,493,524,491,492
492,494,600,491,492
492,493,630,490,493
492,493,622,492,493
491,495,589,491,494
491,493,498,492,495
493,493,420,491,494
492,492,388,492,495
491,492,374,493,493
490,492,380,490,494
493,493,392,492,492
490,492,437,491,493
491,492,493,490,492
491,493,557,490,492
491,494,618,491,493
490,493,627,491,494
491,491,619,490,492
491,494,555,492,494
492,492,457,491,493
491,492,405,492,493
492,491,375,489,494
491,493,375,490,491
492,491,385,492,492
493,494,407,490,494
492,493,460,491,493
492,492,517,491,492
492,493,590,491,494
492,492,629,491,493
492,492,623,491,492
491,492,598,492,492
491,493,510,492,492
491,492,426,491,493
