Sensor0,Sensor1,Sensor2,Sensor3,Sensor4

492,494,404,490,493
492,494,371,490,492
492,492,369,9491,491
493,589,491,492,492
494,495,492,494,492
493,415,490,493,491
493,382,492,493,493
493,372,491,494,491
491,379,491,494,491
492,392,492,494,489
492,436,490,493,492
492,495,492,493,491
492,563,490,494,490
494,622,490,493,492
494,632,490,493,493
493,623,490,493,490
493,552,492,494,493
493,452,491,493,491
493,400,491,494,491
491,372,492,494,491
493,373,491,493,490
493,382,490,494,493
493,403,490,492,492
493,462,490,493,491
493,518,489,493,492
493,598,489,492,493
492,634,491,492,491
494,626,492,494,491
491,597,490,493,493
492,506,492,494,492
492,419,491,493,492
493,384,491,492,490
493,371,491,492,490
491,377,491,492,492
493,388,492,492,490
492,429,491,494,493
492,485,490,493,492
492,552,491,494,491
491,618,490,494,493
493,633,492,492,493
492,625,491,492,491
493,564,490,493,492
493,462,491,493,491
493,404,490,493,490
492,372,489,493,493
492,371,491,491,491
491,381,491,494,490
491,403,492,494,490
492,453,491,493,491
492,512,491,493,491
492,585,491,494,494
492,633,490,492,492
494,630,490,494,493
493,609,490,493,494
493,522,490,493,492
492,429,492,493,492
492,391,492,495,491
494,371,490,494,490
492,374,492,493,491
492,385,491,492,490
493,421,491,494,491
492,479,491,493,492
493,544,492,493,490
494,615,490,494,493
492,635,492,494,492
492,627,492,494,492
494,576,490,493,491
492,475,491,493,492
493,409,492,492,490
493,372,492,492,490
492,369,489,492,492
494,379,492,492,490
491,396,490,493,493
492,446,491,492,491
492,505,490,493,491
491,577,491,495,491
491,629,492,493,491
492,631,493,494,493
492,617,492,493,491
494,534,492,494,492
493,436,491,493,491
493,392,491,493,493
495,371,489,493,493
492,374,491,492,492
491,384,491,491,490
494,414,492,493,490
492,470,491,493,491
492,531,492,492,491
493,608,490,495,492
491,633,490,493,493
492,627,493,493,493
494,586,490,494,494
492,487,491,493,492
492,414,490,493,491
493,378,491,495,492
491,371,489,493,493
493,379,492,492,490
492,391,492,492,491
493,438,491,492,491
493,499,491,491,491
491,567,492,493,492
494,625,490,492,491
493,632,492,494,491
491,621,491,495,492
491,549,492,494,492
493,448,491,493,492
493,396,492,493,491
492,372,490,494,491
494,371,490,492,492
493,381,489,492,493
494,407,490,493,491
492,463,492,493,492
493,523,491,492,491
494,605,492,494,491
492,634,492,493,491
493,628,492,492,491
493,597,491,495,493
493,500,492,493,492
493,419,491,493,492
493,383,490,492,492
494,370,490,494,492
492,378,490,494,492
491,390,490,492,491
493,431,491,494,491
493,489,491,492,491
492,555,492,492,490
492,621,491,492,492
494,633,489,492,491
492,623,492,492,493
495,560,492,493,492
492,458,491,493,492
492,402,491,494,492
491,373,490,495,492
492,373,489,493,492
492,380,492,493,493
493,404,489,492,491
493,455,491,494,491
493,514,490,493,492
494,592,489,494,490
493,632,491,494,493
492,628,491,492,492
491,609,492,495,491
492,515,491,494,492
492,426,491,494,491
493,389,492,493,493
493,373,491,491,492
493,374,491,494,491
492,386,489,492,492
493,424,490,493,492
493,481,490,493,492
493,546,491,491,490
491,618,491,494,492
493,634,490,493,490
493,624,492,492,490
492,573,492,493,492
493,471,492,493,492
492,408,490,493,491
494,374,492,494,490
493,372,490,494,492
492,380,491,495,492
491,400,490,495,491
494,448,491,492,491
492,508,491,493,492
493,582,491,492,490
493,629,491,493,491
494,629,490,493,492
495,614,490,492,492
495,529,492,494,491
493,433,491,493,491
493,393,491,494,491
492,373,491,495,490
491,375,492,494,491
492,385,492,493,493
493,417,491,492,491
492,474,490,493,491
493,537,490,492,490
494,610,490,492,492
493,635,490,494,492
493,626,491,491,492
491,585,492,492,492
494,482,491,493,491
492,412,492,493,490
492,376,493,493,490
493,370,491,494,491
491,378,490,492,492
491,396,492,494,492
494,442,491,493,491
493,500,491,494,492
493,570,490,495,493
492,629,492,492,491
494,631,492,494,490
492,620,489,493,494
493,540,493,493,491
493,442,491,493,491
493,395,490,492,492
491,374,491,494,492
493,373,490,493,491
493,382,491,494,493
493,412,491,495,491
493,465,491,493,492
492,526,490,492,491
494,606,493,494,490
492,634,491,494,492
494,626,490,492,491
494,589,491,493,493
494,496,491,493,492
493,419,492,493,491
493,382,492,493,490
492,372,491,493,491
491,379,492,494,490
491,390,492,494,490
492,434,492,494,491
493,493,491,493,490
492,558,491,494,492
492,626,490,493,492
493,633,491,494,492
493,622,490,493,494
493,557,492,493,491
492,453,491,494,492
493,399,490,492,491
491,374,492,494,490
492,372,492,493,490
492,380,492,493,494
492,408,491,492,491
493,457,490,493,491
492,518,490,492,492
493,597,490,493,492
492,633,491,494,492
491,628,490,492,492
491,604,493,494,493
493,508,491,493,491
492,422,492,493,491
492,385,492,492,490
492,370,490,492,492
493,376,492,493,490
492,386,489,493,493
492,427,491,492,492
492,486,491,494,492
492,550,492,494,491
492,620,492,493,493
493,635,491,492,491
493,621,492,495,493
491,568,490,493,491
493,465,492,494,491
493,404,491,493,493
493,372,493,493,491
492,373,492,495,491
493,378,490,494,491
491,403,493,493,491
492,452,491,493,491
492,510,492,493,492
492,586,491,491,490
493,631,491,494,491
494,630,490,493,493
494,611,490,493,493
493,523,491,494,493
494,430,491,494,492
493,390,490,495,492
491,373,490,493,493
494,376,492,492,490
492,385,491,492,490
493,418,491,492,491
492,478,491,492,491
493,541,490,492,490
492,614,493,494,493
493,637,492,494,492
491,626,492,495,492
491,581,493,493,493
493,477,492,493,491
492,408,490,494,493
494,374,491,491,490
493,371,490,492,491
494,378,490,492,492
492,398,492,492,492
493,445,491,493,491
492,503,490,493,491
492,577,491,494,490
491,629,492,493,490
492,630,492,492,490
494,620,490,494,493
494,534,491,493,492
492,439,491,492,491
493,395,490,493,492
494,371,489,493,493
491,375,490,492,491
493,382,491,495,490
491,412,489,493,492
492,470,491,493,490
492,531,492,492,490
492,607,491,493,492
492,636,492,494,492
494,627,490,493,490
492,588,489,494,493
492,491,491,493,492
492,415,491,494,491
491,380,490,492,492
494,372,492,492,490
491,378,490,494,491
493,390,491,491,491
493,438,491,492,490
492,496,490,493,492
493,562,489,492,490
491,627,490,494,491
491,631,490,492,492
491,622,492,495,491
491,551,492,494,491
492,449,491,494,492
493,399,490,494,491
492,370,492,495,492
491,373,489,493,492
494,383,490,493,493
493,407,490,494,492
492,461,491,493,491
493,523,491,494,491
493,599,491,492,491
493,634,492,493,490
494,628,491,492,491
493,597,491,492,493
492,506,491,492,491
493,419,492,494,491
492,385,489,493,493
494,372,491,494,491
491,379,492,494,491
491,389,491,495,490
494,429,490,492,491
492,488,491,493,492
492,554,491,491,490
493,619,491,492,491
494,633,490,494,492
493,622,492,493,490
492,565,491,494,492
492,460,491,494,493
492,404,491,494,491
491,374,492,495,490
492,372,492,493,493
493,381,490,492,491
492,401,491,495,491
492,454,490,493,491
493,514,491,493,492
493,590,490,493,493
493,630,491,492,492
492,632,492,494,492
493,606,490,494,491
493,517,492,494,492
493,428,492,493,490
492,388,491,493,490
493,370,491,494,491
492,376,490,492,492
492,386,493,493,494
492,425,491,493,491
492,480,491,493,491
492,544,490,494,492
494,615,489,493,490
493,634,491,494,492
492,623,490,492,491
494,575,491,493,492
493,473,492,494,491
493,409,492,493,491
493,375,490,493,490
492,370,490,494,491
491,382,491,493,491
491,400,493,494,490
492,448,492,493,492
493,506,492,492,490
493,581,491,495,492
495,629,490,494,492
494,631,490,493,493
492,616,490,494,493
493,531,491,494,492
493,435,491,494,491
491,394,490,493,492
494,373,492,493,490
493,374,491,492,490
493,383,492,492,490
493,417,491,493,491
493,472,490,493,491
492,534,491,493,492
493,611,489,493,492
492,635,491,494,491
491,626,492,493,493
495,583,493,495,490
493,484,491,494,492
492,412,491,492,492
493,377,491,492,490
493,370,490,493,491
491,379,492,493,493
493,395,490,492,490
493,439,491,494,493
493,500,491,494,491
492,570,492,494,490
492,627,492,494,491
493,634,491,494,492
494,618,491,492,492
491,546,492,493,492
494,444,491,492,491
493,398,491,493,493
493,371,489,493,491
493,373,491,494,491
491,381,490,493,491
491,411,492,493,491
492,465,491,493,491
492,524,491,492,490
492,603,490,494,491
494,632,490,494,490
491,627,490,493,493
494,593,490,493,493
493,499,491,493,491
492,417,491,492,491
493,383,493,494,491
495,370,490,494,490
493,376,491,492,491
493,388,491,491,490
494,432,491,492,491
493,491,491,494,491
493,559,490,493,492
494,623,491,492,491
492,635,492,494,491
492,623,492,494,491
491,560,493,494,492
494,454,491,493,491
492,401,492,494,493
491,371,492,492,492
495,372,490,493,492
494,381,490,493,492
493,404,493,493,490
492,458,490,492,490
492,517,491,492,491
491,597,491,494,491
492,634,492,492,490
493,629,492,492,493
492,604,490,492,491
494,510,492,494,492
492,422,490,492,492
493,387,489,493,492
495,372,491,494,492
491,377,491,494,491
494,385,490,491,491
491,428,492,493,491
493,483,490,493,491
493,548,491,492,490
493,618,492,493,491
494,633,492,494,490
492,625,490,492,493
492,571,492,493,493
493,467,491,493,492
492,407,491,494,490
492,374,492,495,492
494,371,489,492,491
492,380,490,494,492
491,397,490,492,491
493,450,490,492,491
492,510,491,493,491
494,584,492,493,490
494,632,490,494,491
493,629,490,495,490
491,615,492,495,491
492,526,491,494,491
493,432,492,493,491
492,391,490,495,493
492,371,490,492,491
491,376,492,494,493
493,385,489,493,493
493,419,490,493,492
493,474,491,494,491
493,537,490,494,491
492,614,490,493,493
493,633,491,493,491
494,625,490,492,490
494,580,491,492,491
493,481,491,494,491
494,411,490,492,491
492,377,493,493,493
492,373,491,494,492
492,381,491,494,491
491,398,492,492,492
493,442,491,493,491
493,502,490,493,492
492,571,490,492,490
493,627,489,492,493
494,632,489,493,492
493,619,490,493,491
492,538,492,493,493
493,443,491,493,491
493,395,491,494,492
491,373,491,493,490
493,374,492,493,490
492,383,491,494,493
494,410,490,492,491
492,468,490,494,492
494,528,490,493,493
493,606,489,494,492
492,634,492,493,492
494,626,492,493,491
491,588,490,493,493
493,492,492,494,492
493,415,492,493,491
493,380,491,491,490
491,371,492,494,493
494,378,489,493,490
492,390,489,494,493
492,436,490,493,492
493,494,490,493,491
492,562,491,495,490
491,622,490,493,492
493,632,492,492,493
491,622,491,492,491
494,550,491,493,492
493,451,491,493,491
493,399,491,494,491
492,372,489,493,493
492,372,491,492,491
491,382,491,495,491
491,408,492,493,491
492,461,492,494,491
493,519,491,494,491
493,598,491,494,492
492,634,490,494,493
494,628,490,494,493
494,600,490,494,494
493,507,492,494,492
492,420,490,494,492
494,385,490,492,491
491,372,492,494,490
492,376,492,492,491
493,387,492,492,490
493,427,491,494,492
492,487,490,492,491
493,554,492,493,489
493,619,489,494,494
492,635,491,494,492
492,625,492,495,492
494,564,491,493,492
493,464,490,493,492
493,404,492,493,491
493,371,492,492,491
494,371,489,492,491
493,381,492,494,490
491,402,489,493,493
493,454,491,493,492
492,513,490,494,492
491,591,491,495,492
492,632,492,493,493
493,631,490,493,491
494,609,491,495,493
492,518,491,493,492
492,428,490,492,492
494,391,490,493,493
494,373,490,493,493
492,375,491,492,493
492,388,491,491,491
494,421,491,494,491
492,479,490,493,491
492,543,492,492,489
492,614,490,494,492
492,633,490,492,492
491,627,493,493,493
494,576,490,494,493
493,475,491,493,492
493,410,491,493,490
493,373,490,495,492
492,373,490,493,492
493,380,492,493,491
492,396,492,491,490
493,446,491,493,491
493,505,491,493,491
494,576,489,492,491
492,630,492,494,492
492,632,492,495,492
491,618,491,495,492
492,534,492,494,492
492,437,491,493,492
493,393,492,493,490
494,371,490,494,491
493,372,490,492,492
494,383,490,492,491
495,414,490,492,491
492,471,491,493,492
493,533,491,492,490
492,610,490,495,492
491,634,491,494,491
492,627,491,493,490
491,586,490,494,493
493,487,492,493,492
493,415,491,493,491
493,377,490,492,492
494,371,490,493,493
493,379,490,492,491
493,391,490,495,491
491,439,491,492,491
492,499,491,494,491
492,567,492,493,491
493,627,492,493,491
494,632,491,492,490
491,621,492,492,492
495,547,492,494,491
492,446,491,493,492
492,398,490,493,494
493,373,490,494,492
491,372,490,492,492
491,383,491,494,493
494,408,490,493,491
492,462,491,493,491
492,523,490,492,491
493,600,490,494,492
492,634,489,493,493
493,628,491,492,490
492,595,490,495,492
492,501,491,494,492
492,419,491,493,491
493,383,490,493,490
491,370,492,494,493
491,379,491,492,491
493,387,490,492,492
494,431,490,492,492
494,491,491,493,492
493,555,492,492,491
492,624,492,494,492
494,634,490,494,490
492,623,492,494,490
492,561,492,493,492
492,460,492,494,492
492,403,491,492,492
494,375,491,495,490
494,372,490,494,493
493,381,490,493,494
493,405,490,494,492
492,455,491,493,491
492,515,490,492,492
494,592,492,494,490
492,630,491,492,491
493,628,491,492,491
494,606,491,495,492
492,514,491,493,492
493,426,492,493,492
493,388,490,494,493
492,372,490,495,492
491,377,491,495,492
492,387,492,492,491
494,424,491,493,491
492,482,491,493,492
492,545,491,492,491
494,615,491,493,493
494,634,490,494,493
492,624,492,494,494
493,574,490,493,491
493,469,491,494,492
492,408,491,495,491
492,374,492,495,491
492,372,490,494,493
492,378,491,492,491
491,401,491,494,491
493,448,490,493,491
492,506,490,493,492
493,580,489,492,489
492,629,491,494,492
492,631,490,492,492
494,616,492,495,490
491,527,492,494,491
492,433,491,493,491
492,393,491,492,490
491,373,491,495,492
494,374,489,493,490
492,385,489,493,493
492,417,490,494,492
493,473,491,493,491
493,536,490,492,491
494,612,493,495,491
493,635,491,494,491
494,624,490,493,491
494,581,490,493,492
494,484,492,494,491
492,413,492,493,493
493,378,492,493,490
493,373,492,495,490
490,379,491,494,490
491,396,492,495,490
492,442,490,493,491
492,500,491,493,492
492,571,490,491,489
494,626,490,493,492
493,631,490,494,493
493,619,489,493,494
494,543,492,494,492
492,443,491,495,492
493,396,491,492,490
491,373,493,493,490
492,372,491,492,491
493,382,491,492,492
491,412,491,493,491
493,464,491,493,492
492,527,491,494,492
492,605,490,494,492
492,634,491,494,492
492,626,490,493,492
491,592,493,495,493
494,495,491,494,491
492,416,491,493,491
493,380,491,492,491
494,370,489,494,490
492,379,490,494,493
492,389,492,492,490
491,436,490,493,492
492,493,490,494,491
492,559,491,493,490
492,624,491,492,491
492,633,491,492,491
494,620,492,495,492
492,554,491,493,492
493,452,491,493,492
493,401,490,493,493
493,372,493,492,491
491,374,491,495,492
494,381,490,494,490
492,406,492,493,491
492,459,491,493,492
492,518,491,494,491
491,598,490,492,492
494,633,492,494,491
493,630,491,494,492
491,602,490,495,493
492,510,490,494,493
493,422,491,493,491
492,387,492,493,493
494,371,492,492,491
493,376,491,493,491
493,386,490,492,491
494,427,490,492,492
493,486,490,494,490
492,550,489,494,490
493,618,491,494,491
491,635,492,494,491
492,624,492,494,491
491,571,493,494,493
493,465,491,494,491
492,405,491,494,492
493,371,490,492,491
493,372,490,494,493
493,381,490,494,494
492,400,491,492,491
492,452,491,492,492
493,511,492,493,491
491,586,493,494,490
492,630,492,493,492
494,629,492,494,490
491,609,491,493,493
492,524,492,494,492
493,431,491,493,491
492,392,491,495,493
492,373,490,495,492
491,377,492,492,491
493,385,492,494,490
492,421,490,493,492
492,477,491,492,490
492,539,490,491,491
494,612,490,492,493
492,635,492,493,493
492,626,490,491,490
493,578,491,495,492
492,479,491,494,492
492,411,491,494,491
492,377,489,492,493
493,370,491,492,491
491,380,491,494,492
494,395,490,492,492
493,444,490,493,492
493,502,490,493,491
493,574,492,494,492
492,629,490,493,493
494,632,493,493,489
492,618,493,493,490
492,535,492,493,491
492,440,491,493,491
492,397,492,495,492
494,370,490,493,490
493,375,490,493,492
492,384,491,495,493
491,414,490,494,492
492,469,491,492,491
494,530,491,493,490
493,607,489,493,490
493,632,490,492,491
494,625,490,493,493
495,586,489,493,491
492,491,492,493,492
492,414,491,492,492
493,382,491,496,492
491,371,492,494,490
491,378,492,493,491
492,391,489,494,493
493,436,491,493,492
492,496,490,492,491
494,563,490,493,493
494,625,491,495,493
492,633,491,495,493
491,622,491,491,491
494,551,492,494,492
493,449,491,493,491
492,399,492,493,491
492,371,493,492,492
493,371,490,492,492
491,384,492,492,492
494,406,492,493,491
492,462,490,493,491
492,522,491,494,492
491,600,491,494,492
492,632,490,493,492
492,628,493,493,493
493,597,490,492,492
494,503,492,493,492
493,418,491,493,492
493,384,490,493,491
492,372,491,494,492
491,375,491,493,492
492,390,492,496,491
492,431,492,495,491
492,487,491,495,491
493,553,491,494,493
493,622,491,495,492
494,632,492,494,491
492,623,490,491,493
494,564,491,492,493
493,460,491,493,493
493,403,491,492,491
491,373,491,495,492
494,371,490,492,490
492,381,492,493,491
492,402,492,493,491
493,453,491,493,491
492,515,490,492,491
493,591,492,494,491
492,632,491,494,492
492,630,492,495,492
491,608,492,497,493
495,516,491,495,493
492,428,492,495,493
493,388,492,495,491
493,372,491,494,492
493,375,490,493,492
493,385,490,490,492
494,423,491,489,491
493,480,491,492,491
493,543,491,493,491
492,618,493,493,490
492,634,492,493,491
493,624,491,495,493
492,578,492,493,491
493,472,491,494,493
493,408,490,493,492
494,374,490,492,493
493,371,491,495,493
493,379,491,493,492
491,400,492,494,492
493,446,491,495,491
492,507,492,495,491
492,577,492,493,490
492,627,491,494,491
492,630,489,494,493
492,616,493,499,494
494,531,491,498,493
493,436,492,498,493
492,394,491,496,493
491,373,491,491,492
493,374,493,489,490
492,383,490,489,494
493,414,491,491,491
492,471,491,493,491
493,533,490,492,493
492,611,493,494,492
492,635,491,493,492
494,624,492,495,492
491,586,493,496,492
492,485,492,494,492
492,412,490,492,493
492,377,491,490,490
491,371,491,494,493
494,377,490,492,492
494,392,489,492,493
492,438,490,493,492
492,499,491,494,491
491,568,490,492,491
493,628,492,494,491
492,633,492,493,490
493,618,493,492,490
493,543,491,493,492
493,447,491,494,491
493,396,490,493,491
491,373,489,493,493
492,375,491,495,493
491,384,491,496,493
491,410,490,493,491
494,465,491,494,491
493,524,490,494,491
492,602,492,491,491
494,632,491,492,492
493,627,489,493,490
491,595,493,493,493
493,499,493,494,492
492,418,491,494,492
492,385,492,496,491
490,372,492,495,490
492,377,490,496,493
493,388,492,495,493
491,434,491,497,492
493,491,490,497,492
494,557,489,498,493
494,622,490,499,493
493,634,491,496,492
494,623,492,497,493
495,556,491,493,493
493,457,492,493,491
491,402,491,492,491
493,371,492,492,493
492,374,492,493,492
494,380,492,492,490
491,404,489,489,492
493,458,490,493,491
492,516,491,494,491
492,593,490,493,492
492,633,492,495,493
492,629,490,494,491
494,604,492,494,491
494,512,492,496,492
493,424,491,495,492
492,389,491,492,492
494,372,492,490,491
491,378,490,495,492
491,388,491,496,491
491,426,491,493,491
491,482,490,492,492
493,547,489,493,490
492,616,490,498,492
492,633,489,499,493
495,624,490,502,495
495,572,491,503,495
494,468,493,499,493
493,407,491,493,492
494,371,490,493,491
492,372,493,490,490
492,380,492,489,490
492,398,492,490,492
491,451,491,489,491
492,510,491,492,490
493,583,489,493,493
494,631,491,495,492
491,631,492,496,491
494,611,490,491,492
492,527,492,492,492
492,431,492,492,492
493,391,491,491,491
492,371,490,493,491
494,374,490,493,492
493,386,492,496,490
493,419,489,497,491
492,475,490,495,492
493,540,490,494,491
492,613,491,493,490
492,633,491,493,494
493,626,491,488,490
493,582,491,494,493
493,479,491,495,492
493,411,490,496,492
493,376,490,496,493
492,370,490,494,492
491,381,491,495,492
494,393,492,497,491
492,443,491,492,491
493,502,492,489,491
493,570,490,494,493
492,628,490,496,493
493,632,492,500,494
493,620,489,503,494
493,540,492,504,493
493,442,492,502,493
492,396,491,497,492
495,370,493,492,490
493,373,491,488,492
494,381,491,483,489
493,410,491,487,491
492,466,491,491,491
492,529,492,492,493
493,607,491,494,491
493,632,491,499,492
492,628,490,503,493
493,592,492,506,494
495,495,492,505,496
495,417,492,498,493
493,383,491,495,491
494,369,489,486,490
492,377,489,483,490
493,389,490,486,490
492,434,491,489,492
493,495,490,487,490
493,562,492,491,490
492,626,495,495,491
493,632,496,496,491
494,620,496,497,493
492,556,499,498,494
494,452,499,494,493
492,400,498,491,494
493,373,497,493,492
491,374,499,489,491
490,382,492,492,491
494,407,491,493,490
493,458,487,493,491
492,519,485,490,490
494,597,487,490,491
493,632,488,497,492
493,629,490,500,494
494,602,491,501,493
495,509,490,504,495
495,423,490,498,492
493,388,492,486,490
491,372,490,488,493
493,377,490,496,491
491,390,490,497,492
494,429,490,507,493
494,488,491,515,495
494,554,491,522,497
495,621,492,514,495
496,637,492,501,492
494,622,489,483,491
492,567,492,477,491
492,464,492,481,491
492,404,492,485,493
491,374,491,495,493
494,373,492,510,493
493,382,490,517,497
495,404,490,508,494
493,454,490,501,494
494,511,490,497,493
492,588,492,479,491
492,630,490,470,490
493,628,490,484,491
493,609,490,490,491
494,521,490,492,491
492,430,490,491,492
492,389,492,487,490
491,372,490,489,491
491,377,491,499,492
492,387,493,505,493
492,421,492,502,496
494,478,491,495,493
494,542,492,496,491
491,613,490,491,492
494,635,491,488,493
492,626,492,502,495
493,576,491,517,496
495,479,492,519,496
496,410,492,505,495
494,376,496,481,491
493,371,494,472,488
491,378,492,472,489
489,398,489,478,490
492,447,491,490,489
492,503,489,487,492
492,577,489,490,493
492,631,491,495,491
493,630,490,494,492
493,618,493,493,494
493,534,492,490,493
493,437,490,496,493
494,395,489,500,493
495,372,488,501,494
494,374,490,494,491
493,385,489,494,491
494,412,489,492,492
493,472,489,500,492
493,533,491,502,491
492,609,493,495,493
492,635,492,488,492
494,628,493,490,491
495,585,489,482,493
493,489,491,486,492
492,415,492,494,491
493,378,492,491,492
493,373,492,493,493
494,379,493,500,493
493,393,494,507,494
495,440,493,508,493
493,499,491,500,492
492,564,489,492,493
491,628,491,492,491
492,632,492,476,491
491,621,493,493,492
491,551,494,495,491
492,448,495,494,493
494,398,497,500,492
492,373,495,500,494
494,371,494,488,492
494,382,493,486,493
494,408,492,484,492
492,461,490,486,493
493,523,487,486,490
493,599,489,487,488
492,634,491,486,490
493,628,491,492,490
492,596,490,498,494
492,502,491,498,493
493,421,491,501,494
494,383,490,496,494
495,372,489,497,493
492,379,491,503,491
493,386,491,490,491
491,432,492,480,490
493,489,493,493,491
493,555,493,495,491
493,621,492,491,491
494,632,491,483,492
492,623,495,487,493
494,563,495,495,492
492,460,497,500,494
493,404,496,501,493
492,374,494,497,492
492,373,491,501,495
494,381,490,499,493
493,405,485,507,492
494,454,488,494,492
494,514,489,481,491
493,590,489,467,489
492,630,492,487,492
491,632,491,487,491
493,608,493,491,491
492,515,494,491,492
493,427,493,491,491
492,389,490,493,494
492,370,489,490,491
492,378,491,492,493
492,385,489,491,494
493,424,491,496,493
493,482,491,500,493
492,546,491,505,494
495,619,492,509,493
495,634,491,495,493
495,623,492,493,494
495,575,491,485,491
493,471,491,480,490
491,408,491,481,491
493,374,495,493,490
492,373,498,500,494
492,382,500,498,494
492,401,499,496,493
492,448,496,494,492
493,507,493,478,491
492,580,489,485,491
493,628,486,492,493
494,630,485,494,493
494,615,487,495,491
493,528,489,489,493
493,434,492,486,491
492,393,493,492,493
491,373,492,494,492
492,376,494,502,493
493,385,496,511,498
493,418,498,510,496
494,474,502,503,494
491,535,499,477,491
492,609,498,479,492
492,634,497,480,492
492,623,493,486,491
492,584,490,489,493
495,482,483,486,492
493,411,484,496,492
493,377,489,503,491
493,371,488,509,492
491,380,488,502,494
495,396,492,502,491
493,441,488,494,491
493,499,488,471,491
492,570,490,491,492
495,626,489,495,492
494,632,491,499,495
493,621,492,495,492
494,541,491,500,494
493,445,490,491,492
493,397,490,484,493
495,372,492,480,492
492,375,490,495,490
493,381,489,489,490
490,411,491,487,490
492,466,491,489,492
492,526,492,486,494
493,603,492,488,493
494,635,493,502,491
494,627,494,508,495
495,592,493,501,494
494,498,492,484,492
492,416,492,485,493
492,383,490,497,492
495,371,490,503,492
492,378,489,511,493
493,389,491,490,491
493,433,491,487,493
493,492,491,497,493
493,560,492,494,494
494,623,490,490,495
493,634,491,496,493
492,623,491,495,491
491,559,491,480,490
493,453,491,493,494
493,403,493,505,496
494,371,496,507,495
495,373,493,506,492
494,381,492,475,493
492,406,494,496,496
495,459,489,500,493
493,519,488,493,492
491,597,490,498,492
492,634,491,491,489
493,628,490,475,490
491,600,491,473,490
491,512,491,491,491
492,422,491,489,493
493,387,490,489,494
494,373,490,488,491
494,375,491,486,492
491,388,491,488,492
494,429,496,488,491
492,484,495,484,491
493,549,495,486,491
494,619,495,490,493
493,636,493,499,494
495,624,488,492,491
493,571,487,508,496
495,468,489,523,498
496,409,490,521,498
495,377,491,496,494
495,373,492,481,489
493,380,489,453,485
490,399,490,487,490
491,450,490,487,491
492,510,490,488,491
491,586,495,490,496
495,632,498,510,498
496,634,498,520,496
493,615,494,508,494
493,526,491,490,490
492,431,489,472,491
492,389,488,492,494
492,372,486,469,490
493,372,486,481,493
493,384,488,499,494
495,421,490,503,495
495,476,491,501,492
493,541,491,490,493
495,613,492,492,491
492,634,492,500,490
492,625,491,490,490
493,580,492,483,492
492,480,490,486,492
494,410,490,498,493
493,376,490,506,497
494,374,491,512,499
494,382,490,512,493
492,394,491,476,489
491,444,493,479,489
491,503,493,481,488
490,572,493,469,489
492,626,489,482,491
494,631,489,488,490
491,619,491,487,494
495,538,493,488,492
493,441,496,492,494
493,397,498,507,497
494,375,498,519,496
494,377,497,523,496
494,384,492,495,490
493,410,490,481,492
493,467,487,489,493
495,529,486,495,495
496,607,487,479,493
494,633,492,478,492
492,629,494,517,494
496,590,495,511,493
493,493,497,486,492
492,415,494,463,492
492,380,494,479,493
491,372,488,486,493
494,380,492,496,492
494,391,496,482,492
492,436,498,485,493
493,496,500,506,495
495,564,503,503,496
493,628,505,517,498
495,635,498,492,490
493,618,485,471,488
493,549,481,479,491
493,451,486,472,490
493,400,488,487,490
492,372,486,491,490
492,373,489,498,494
492,384,492,520,497
493,410,493,512,497
494,462,491,493,492
492,518,491,466,489
492,600,491,475,491
495,632,491,505,494
495,629,489,513,495
495,599,486,506,496
494,506,490,501,494
492,421,492,482,492
493,384,495,466,489
491,371,495,482,488
491,375,493,487,490
492,386,491,492,492
491,428,489,489,492
494,487,490,492,494
496,555,494,503,497
497,622,496,508,498
495,636,496,478,491
491,624,499,464,493
494,565,497,500,495
493,463,492,509,495
493,404,492,490,492
494,370,493,478,493
495,373,491,507,496
493,383,490,516,494
493,404,489,492,488
491,452,492,464,488
490,512,490,475,491
491,589,488,488,493
493,631,489,502,494
494,629,490,511,494
494,613,491,501,494
496,519,493,481,493
494,427,491,455,493
494,390,491,477,492
495,374,492,508,491
491,377,490,493,492
494,388,493,507,491
491,423,492,503,491
491,479,491,491,492
492,542,492,512,494
491,618,494,529,495
493,633,490,494,491
492,624,491,479,493
493,577,495,474,493
494,474,496,477,493
493,411,501,484,496
495,376,503,493,495
494,372,500,500,491
492,378,496,488,490
492,394,492,476,490
491,444,490,477,492
492,506,492,494,496
494,577,491,505,497
496,633,492,524,496
494,632,493,486,492
491,617,492,486,490
490,531,488,459,489
490,434,493,476,492
492,395,497,492,492
494,371,495,495,495
495,375,493,504,493
494,385,491,504,494
494,416,493,497,492
493,471,494,506,497
495,533,489,484,490
491,609,491,473,490
494,633,490,479,491
494,625,487,491,491
492,589,485,498,491
494,487,483,506,495
495,415,492,518,500
496,383,502,517,501
494,374,505,480,494
491,376,499,444,492
489,392,498,454,492
490,438,489,480,489
492,498,482,488,488
492,562,480,478,490
495,625,484,499,491
494,634,487,512,496
496,621,492,513,493
493,550,496,495,492
493,449,496,497,494
493,400,497,499,495
492,375,497,487,494
492,374,495,491,492
494,381,495,501,495
494,408,499,493,492
494,463,501,500,493
493,524,496,495,494
492,602,505,475,490
489,633,504,469,494
493,626,497,476,492
492,596,497,497,495
494,501,487,518,498
497,420,478,524,494
497,385,484,484,490
494,371,486,477,487
491,377,487,487,489
489,388,490,473,491
488,431,494,489,492
492,490,494,500,495
493,557,494,513,500
498,622,494,500,497
496,633,491,485,491
493,620,487,468,489
493,559,486,494,492
493,460,490,493,491
492,402,492,478,490
492,373,491,508,494
494,376,490,534,497
496,385,491,551,501
499,410,494,546,496
494,456,491,453,489
488,512,492,464,490
491,592,499,468,486
492,630,505,472,490
494,629,506,487,496
494,609,504,492,497
495,516,500,505,497
497,428,501,507,495
496,391,490,493,493
493,373,476,488,490
493,376,475,497,493
493,388,486,514,494
493,427,487,494,494
494,483,486,474,492
495,547,487,500,491
493,617,487,490,489
490,634,491,455,489
490,622,492,483,491
491,572,489,512,496
495,473,492,530,497
495,409,492,512,496
495,374,494,499,493
493,373,492,448,491
494,379,489,496,490
493,402,490,497,493
495,450,494,495,493
493,510,496,507,493
491,581,494,469,489
494,630,495,487,490
493,631,491,501,491
495,614,495,504,493
494,528,494,497,495
493,433,490,474,493
492,394,492,487,495
493,372,491,497,492
493,377,488,498,493
493,386,487,493,495
494,419,491,517,494
493,474,490,480,487
492,536,490,487,486
491,609,492,480,490
490,634,492,483,494
495,627,492,500,498
495,583,490,505,498
496,485,493,520,497
496,414,491,490,494
496,375,486,484,491
492,372,490,484,489
493,379,492,499,494
495,394,491,502,499
495,446,491,528,496
495,502,489,492,489
490,569,486,464,489
490,627,490,476,490
489,631,493,480,490
490,618,496,485,492
491,543,502,494,495
495,445,503,513,497
498,400,505,543,501
501,376,503,528,501
501,376,494,521,494
496,384,483,477,484
488,408,474,443,485
485,463,482,459,487
488,526,485,469,488
489,605,488,483,490
492,633,490,485,494
493,629,487,495,493
493,590,489,503,495
494,495,492,499,495
494,417,491,491,491
492,382,491,491,493
494,371,493,517,497
495,382,495,515,500
497,389,495,462,494
495,435,494,453,489
492,493,492,483,487
488,558,491,503,490
488,626,494,490,491
492,633,494,499,493
493,624,490,509,496
492,557,494,469,491
491,452,496,479,492
491,401,497,482,490
493,370,495,490,490
491,373,490,503,495
494,381,481,519,495
497,407,485,533,497
496,460,487,494,494
495,519,488,459,487
492,596,488,478,488
492,632,490,482,492
492,632,491,497,492
491,606,492,517,495
493,513,491,517,497
496,424,493,503,496
496,388,492,493,499
496,372,490,488,494
492,376,490,461,488
491,387,490,491,490
491,427,490,494,489
490,484,491,470,490
490,548,491,488,492
491,620,493,502,494
493,635,494,521,494
495,624,494,538,496
496,574,491,528,494
496,466,492,492,494
495,405,489,468,492
493,372,486,479,487
486,370,489,453,488
487,379,493,463,491
492,398,497,483,490
490,450,496,480,492
491,510,496,486,491
492,585,498,495,492
493,630,500,501,495
493,632,500,513,496
497,613,489,505,494
500,524,491,510,494
496,431,489,453,489
493,392,489,488,490
491,374,481,496,493
493,375,488,490,493
493,387,489,498,491
493,419,492,470,488
490,476,495,479,490
491,540,494,496,492
492,612,493,490,491
492,633,496,484,490
490,624,487,487,492
491,581,485,488,491
492,479,489,483,490
491,410,491,497,492
493,377,489,510,492
495,371,487,514,493
492,380,487,485,492
494,395,484,459,493
494,444,488,483,495
494,503,490,493,492
495,577,491,495,491
495,630,489,506,494
494,631,490,493,490
491,616,489,471,486
491,536,488,495,491
492,440,490,494,492
493,397,492,501,491
492,371,487,489,493
492,375,490,499,493
492,386,492,523,494
492,415,492,500,493
495,468,490,496,491
491,529,490,462,488
489,607,489,481,489
494,633,490,479,492
494,627,490,504,495
495,589,494,515,492
492,493,496,494,492
492,413,496,473,489
490,380,495,483,488
490,370,493,470,488
492,376,491,481,493
492,391,487,500,493
495,437,487,524,497
496,498,486,523,496
495,564,486,489,490
492,624,489,444,487
489,629,489,463,489
490,621,491,474,491
493,549,490,481,491
491,448,490,486,491
492,398,491,484,492
493,370,492,486,494
494,372,494,501,493
493,384,492,504,493
492,408,492,516,491
492,463,492,498,489
491,521,488,472,488
489,599,487,478,491
492,632,486,495,491
494,629,490,510,495
493,596,492,519,497
498,507,494,513,494
495,420,493,478,491
492,383,490,459,486
491,371,487,469,489
492,373,489,483,491
490,389,493,489,490
491,430,496,487,492
492,488,499,505,494
493,555,504,504,492
496,624,508,502,495
496,635,503,493,496
493,623,496,477,491
491,564,498,463,490
489,459,494,494,490
491,401,487,492,490
490,371,480,476,490
492,369,484,481,489
492,378,483,483,491
493,401,485,493,491
493,454,486,497,492
494,514,485,502,492
492,590,488,482,494
493,632,488,498,492
490,631,490,474,487
488,609,491,478,491
493,517,492,496,493
493,428,491,507,493
492,389,489,498,489
490,372,488,477,488
490,375,491,495,488
492,384,489,499,491
491,423,492,483,490
492,477,491,478,489
492,543,492,484,490
492,617,493,495,492
493,635,495,502,494
492,624,490,480,492
490,577,492,477,488
491,472,493,495,490
490,409,493,488,489
491,373,491,486,489
492,369,485,492,492
492,380,486,489,490
493,399,488,482,490
492,445,490,482,490
492,505,491,483,491
493,578,492,491,492
491,629,494,498,493
492,632,491,489,492
494,614,491,486,494
492,532,490,496,497
496,437,491,507,494
493,395,489,490,491
494,372,490,499,489
492,375,488,492,489
491,381,487,474,486
490,411,484,473,487
490,470,486,481,488
491,532,487,491,489
490,610,488,492,491
492,635,492,489,489
491,626,489,488,493
493,584,489,495,492
493,487,494,483,491
491,413,496,493,494
493,380,493,493,490
493,370,492,492,491
490,378,489,490,490
490,393,487,490,490
491,438,486,490,489
491,496,487,491,491
493,566,487,499,493
492,627,490,507,492
492,631,490,487,488
491,617,491,472,490
491,545,490,480,490
492,444,490,485,490
491,394,489,487,492
494,369,490,487,494
495,375,492,494,495
494,385,492,507,492
493,408,492,501,491
492,464,491,486,490
490,523,490,487,491
491,604,487,497,490
492,634,488,492,488
492,627,486,485,491
493,594,496,487,491
492,499,501,494,494
493,418,504,501,495
493,383,506,500,492
491,371,506,490,494
492,378,502,477,490
492,386,496,466,488
490,429,483,484,488
491,488,481,487,490
492,556,482,480,489
493,623,488,489,488
492,633,488,490,490
493,621,489,498,493
491,560,493,504,493
493,457,491,501,495
493,403,487,490,495
492,373,488,494,496
493,372,490,488,490
491,382,489,477,488
492,400,490,480,491
493,457,492,490,490
493,516,491,494,490
493,594,492,498,496
496,636,490,499,491
495,630,489,494,489
490,605,487,471,487
489,512,489,476,489
491,422,491,484,492
491,387,492,488,493
493,372,490,491,491
493,374,489,489,491
493,385,487,495,492
494,425,487,498,491
492,482,490,486,493
492,548,492,486,491
492,619,493,501,494
492,636,495,505,492
491,625,497,507,493
492,574,499,482,492
492,467,495,474,490
491,406,493,485,491
490,370,491,493,490
493,370,489,495,491
493,379,493,485,492
493,399,493,485,490
492,449,491,490,492
493,509,489,503,493
492,583,487,502,493
492,631,489,499,491
493,629,483,491,493
493,614,487,500,492
495,528,488,472,492
494,432,489,490,491
492,391,488,482,490
494,371,488,476,489
490,374,491,476,490
490,385,489,480,489
492,417,489,487,490
491,473,489,490,491
492,538,490,499,491
491,613,492,509,494
494,636,492,518,497
495,625,492,484,492
490,583,493,472,490
491,479,494,477,490
492,410,494,487,491
492,377,493,493,489
492,370,491,496,492
492,378,487,499,491
491,396,488,505,491
491,441,488,482,490
492,500,490,482,490
492,571,490,498,492
494,627,490,509,493
493,633,491,499,492
493,617,491,480,492
494,538,492,467,491
493,441,493,481,491
492,395,491,486,494
492,369,492,486,491
491,374,489,493,491
492,383,488,497,490
492,411,488,480,490
491,466,489,482,492
492,527,492,492,491
493,608,496,498,490
493,633,494,504,493
495,628,495,517,495
497,593,497,532,495
495,495,497,487,493
493,416,495,487,493
492,379,491,471,489
488,369,493,472,488
490,376,494,483,489
492,388,489,491,493
491,433,492,486,493
492,493,492,480,490
492,559,487,485,491
494,622,484,493,494
493,634,485,498,490
494,619,488,499,493
492,556,491,501,493
494,454,494,496,494
493,401,496,492,494
493,372,496,473,490
493,372,496,485,490
490,383,494,495,490
493,404,490,485,490
491,460,493,489,490
492,518,490,484,492
491,598,489,485,492
491,634,493,485,492
494,629,498,488,491
494,601,500,498,492
494,508,498,514,494
495,424,493,513,493
495,387,487,510,494
492,373,491,496,494
493,377,489,473,490
492,388,484,483,490
491,429,486,489,491
493,486,486,480,490
492,550,486,474,491
491,618,491,489,492
489,635,493,496,492
492,623,499,496,492
492,568,507,494,493
493,465,504,489,492
491,405,501,487,493
491,372,491,496,493
495,372,494,502,492
496,381,497,492,493
492,401,491,495,489
491,452,487,502,490
490,511,489,492,491
494,585,492,487,489
492,632,491,498,495
494,631,490,499,496
494,613,486,501,492
492,520,487,467,489
490,428,488,476,491
494,390,488,483,489
492,371,491,489,492
493,375,490,494,493
492,386,489,493,489
488,420,488,486,490
490,478,492,492,490
489,542,494,499,492
488,614,493,488,493
497,634,493,487,492
496,626,492,488,496
494,580,489,505,494
493,476,488,510,492
491,408,489,479,490
493,372,488,479,490
493,371,486,485,492
493,379,491,489,489
491,397,493,492,490
492,444,494,491,491
490,504,491,495,491
490,575,495,494,490
493,628,495,490,492
492,631,492,485,492
494,618,490,493,490
494,535,488,500,493
494,438,489,502,495
495,396,490,507,496
494,371,493,499,492
492,376,496,506,493
494,385,496,497,491
492,413,496,485,491
492,467,493,456,488
491,530,492,482,489
493,609,491,491,490
493,635,487,507,493
495,627,492,510,497
494,590,492,512,495
491,490,490,503,494
492,415,492,487,489
492,377,492,465,488
490,370,489,470,491
492,374,490,488,492
492,389,491,508,493
494,437,491,511,491
492,497,492,485,489
490,562,489,468,488
492,623,491,484,490
491,632,492,488,490
492,619,494,489,491
492,549,493,489,492
492,448,491,494,491
492,398,490,491,491
494,369,487,493,492
493,372,487,497,493
491,382,489,487,494
492,409,491,489,492
493,459,490,495,491
492,522,490,491,492
492,601,499,491,490
493,632,503,491,493
494,628,502,503,495
492,600,504,509,496
494,503,498,504,494
493,420,494,481,490
491,384,488,492,491
491,370,477,495,490
493,377,482,489,493
494,386,494,484,493
494,432,490,488,492
493,488,491,502,491
492,552,490,484,490
492,619,487,491,489
491,633,490,495,491
490,623,489,481,490
491,564,494,481,490
490,459,495,489,491
491,402,496,491,491
492,372,499,487,491
492,373,497,490,491
493,378,492,490,490
492,403,485,490,492
492,453,483,489,491
492,512,486,492,493
492,591,490,489,492
494,632,495,498,492
494,630,491,499,491
493,607,491,496,490
493,515,490,492,491
493,427,490,493,492
491,391,492,495,494
494,370,491,502,491
493,378,489,498,492
492,387,489,507,492
491,424,491,500,492
493,481,491,498,492
492,545,496,492,494
491,614,497,467,490
491,633,500,469,490
492,622,498,480,492
493,573,493,486,492
492,472,490,492,493
492,407,487,501,498
495,374,492,510,496
494,374,491,498,489
490,378,491,468,487
489,397,492,484,489
491,447,488,488,491
492,504,488,490,491
492,579,488,496,493
494,630,490,502,494
493,632,489,509,493
492,614,489,501,494
493,532,491,515,494
493,434,490,480,488
490,391,492,469,488
489,371,493,482,489
492,372,493,483,491
490,385,494,484,490
493,416,498,489,491
492,472,497,491,492
492,535,496,494,492
491,610,493,498,493
492,635,491,497,493
494,625,485,486,490
491,583,484,488,493
493,484,488,489,490
490,411,488,490,490
492,375,488,487,490
493,372,491,490,489
492,377,488,490,490
492,392,490,492,492
493,442,490,495,492
493,499,491,497,491
492,569,492,498,493
494,627,491,488,490
492,633,491,490,490
493,619,490,486,492
495,543,491,492,492
494,446,490,498,493
494,399,491,513,496
496,374,492,519,496
498,375,493,518,492
493,384,493,465,487
490,409,493,468,488
489,463,490,479,488
490,524,489,481,490
492,600,490,488,491
491,635,492,493,492
492,628,490,493,493
493,593,490,495,494
493,499,491,497,492
493,417,491,501,491
492,381,489,491,491
490,370,490,484,489
492,375,491,487,491
493,387,490,497,492
493,436,491,505,492
494,493,491,515,495
494,559,490,502,495
494,626,491,493,489
491,633,491,467,487
490,621,489,470,491
493,558,492,492,491
491,455,491,493,490
492,401,491,491,490
493,370,491,487,491
493,371,490,481,493
493,382,490,491,490
492,404,490,506,492
493,458,490,517,494
494,519,491,515,493
492,596,492,498,490
492,631,491,470,489
491,629,490,482,490
493,601,491,494,492
491,514,491,517,492
493,425,492,513,494
493,388,492,495,495
493,371,492,467,490
492,375,490,466,488
492,385,488,482,489
492,426,492,491,490
492,483,491,488,490
492,546,490,484,493
491,620,492,485,491
493,634,492,492,490
493,625,491,494,493
493,572,491,502,494
493,468,491,508,493
493,406,491,493,491
494,371,489,483,490
491,370,492,485,492
492,380,490,483,490
493,398,490,488,491
493,449,490,490,491
492,509,491,490,490
492,584,489,490,492
492,630,492,490,491
492,633,493,492,490
491,615,493,492,492
492,526,492,490,493
492,433,491,489,490
492,390,491,495,492
492,370,489,499,493
495,377,490,520,495
495,387,490,527,497
495,420,491,510,491
494,476,491,482,490
491,537,490,476,490
491,615,493,488,490
493,634,493,488,490
493,624,491,479,489
492,580,492,481,491
492,480,493,487,493
492,412,493,490,493
494,376,490,491,492
493,371,491,486,491
492,379,490,488,491
494,393,490,490,491
491,444,490,491,492
492,503,491,491,491
492,572,492,490,490
491,627,491,491,493
493,633,492,492,492
494,619,491,492,492
492,540,493,493,493
494,443,491,492,493
492,397,491,494,492
492,373,491,493,492
494,374,492,496,489
492,383,490,498,492
494,410,491,489,490
493,466,491,488,489
493,527,491,492,491
494,605,491,496,490
493,636,493,498,491
491,628,491,488,491
493,592,492,489,491
491,494,492,488,492
492,415,493,490,492
492,381,490,491,493
492,369,490,489,491
493,379,491,489,492
494,389,489,489,492
493,435,490,490,492
492,493,489,491,492
493,560,490,493,494
491,622,489,493,495
492,634,491,495,493
493,621,493,497,494
493,553,493,494,492
493,452,491,492,492
494,400,491,497,496
492,373,489,499,499
494,375,490,503,500
493,384,491,498,499
491,407,492,482,494
492,459,491,487,481
492,519,491,486,484
493,598,490,490,486
493,632,491,490,490
493,627,490,494,491
494,599,490,496,489
493,510,491,491,490
492,420,491,479,490
492,387,491,489,492
491,373,492,491,488
492,376,493,491,489
493,387,489,490,488
493,428,491,491,491
493,485,491,489,489
494,552,489,490,489
495,619,490,495,491
493,635,491,501,491
493,626,491,498,494
494,565,491,488,495
492,464,491,491,493
491,405,492,494,491
492,372,493,490,491
492,370,490,491,492
491,382,490,493,491
494,402,492,489,490
494,453,490,489,489
493,512,491,492,492
492,588,491,498,493
495,631,490,501,492
494,631,493,504,496
494,612,493,505,494
496,522,492,513,493
495,432,492,497,495
493,391,492,504,498
493,373,491,497,497
493,375,492,480,496
491,387,491,471,496
489,422,492,474,497
490,477,491,485,499
493,541,489,490,487
492,615,491,496,487
492,634,490,500,492
496,626,489,503,493
496,579,491,505,489
494,477,491,504,489
493,410,491,473,491
491,376,490,480,487
493,369,492,489,487
492,381,493,490,490
491,398,492,491,490
492,445,490,493,489
493,505,491,493,487
492,578,491,496,489
496,630,489,495,490
493,633,491,497,490
492,618,491,491,490
495,533,492,489,494
493,438,493,489,494
493,394,493,490,494
491,373,494,489,494
493,373,493,488,494
493,384,494,493,489
495,413,493,490,486
491,471,495,493,490
493,533,493,491,489
492,610,489,493,488
492,634,490,493,488
492,627,488,492,493
495,587,492,492,492
493,489,489,493,492
493,414,492,492,494
494,378,492,491,494
494,371,493,493,496
493,378,496,495,500
493,394,492,494,498
494,440,491,496,501
493,499,494,498,501
493,567,494,498,492
493,626,492,496,500
496,633,492,500,497
492,622,492,499,487
496,547,490,487,485
495,449,491,486,486
493,399,493,485,493
493,371,491,491,491
491,373,490,490,489
492,382,491,491,487
491,408,491,491,487
492,463,491,492,490
492,521,490,491,493
491,603,491,491,493
493,633,492,493,490
492,629,490,493,490
493,598,491,494,487
493,503,492,492,490
493,417,491,487,492
493,384,493,489,494
493,371,491,490,497
494,376,491,496,497
494,387,490,498,496
494,430,490,494,496
492,490,491,493,496
492,555,491,495,491
492,624,491,495,486
493,635,492,488,491
492,623,493,493,493
493,563,491,493,497
493,460,493,492,496
492,403,492,492,490
494,370,491,493,488
495,373,490,493,486
494,382,490,495,485
493,402,492,495,490
493,457,490,496,493
493,515,490,497,496
492,594,493,497,497
494,633,493,496,500
494,629,492,497,495
492,611,491,491,479
494,517,492,489,484
493,426,492,490,488
493,390,492,491,490
493,373,494,494,490
494,375,493,492,492
492,388,496,492,494
493,424,494,493,494
492,481,490,492,493
493,546,493,491,495
495,615,494,494,494
492,636,491,493,489
494,624,492,491,494
493,576,490,495,495
493,472,488,493,491
493,409,489,494,494
492,375,491,493,496
494,372,489,493,490
494,380,488,495,483
495,396,487,492,487
494,448,488,491,488
493,507,487,492,493
492,580,487,491,495
494,632,490,492,497
493,631,495,495,497
492,618,495,496,498
493,531,493,494,493
493,436,491,494,492
492,392,492,492,499
491,374,492,494,490
493,374,489,493,483
493,384,490,492,486
492,417,491,494,487
493,470,492,493,491
493,537,495,492,491
494,612,500,494,491
494,634,499,492,491
495,626,498,492,487
494,583,496,493,488
492,486,494,494,490
494,413,487,494,488
492,376,487,494,493
492,373,487,495,493
492,380,489,495,494
491,395,490,492,493
493,442,493,492,491
492,499,492,493,491
493,567,491,492,490
494,627,487,492,491
494,632,486,494,490
493,620,490,495,494
493,546,491,494,491
493,445,490,495,492
492,398,491,495,490
492,374,492,494,490
492,375,490,495,492
494,381,489,492,491
492,412,492,493,492
493,465,492,494,492
494,526,494,494,493
493,605,493,495,493
493,635,493,494,493
495,629,494,494,489
495,592,489,495,491
493,498,489,495,492
494,418,489,494,491
494,382,490,493,493
492,372,491,494,492
494,378,492,494,490
492,389,490,495,493
492,434,490,493,492
493,492,490,494,491
491,557,490,492,492
492,625,497,494,493
493,635,496,494,491
494,621,493,493,492
495,558,491,494,492
494,456,488,496,491
493,402,486,494,494
494,373,490,494,490
491,374,489,496,493
492,383,490,495,492
491,407,491,495,491
492,458,490,495,492
494,516,489,493,491
493,594,490,496,492
492,632,490,494,493
495,630,490,494,493
495,605,493,495,494
493,512,497,496,493
494,424,498,495,492
494,387,499,497,492
491,374,498,495,491
493,377,495,493,491
492,388,502,495,493
491,428,498,493,492
493,485,498,495,493
493,549,498,494,495
494,618,498,495,494
493,635,490,495,492
494,622,480,494,492
493,572,480,495,492
494,466,484,496,492
493,406,487,495,491
494,372,489,494,491
494,372,487,494,492
494,381,490,496,491
495,401,487,494,490
493,452,490,495,492
493,511,488,495,493
493,587,490,496,492
492,632,491,495,493
494,631,490,493,491
494,615,490,496,494
494,524,490,496,492
494,433,490,495,492
494,393,490,495,492
492,374,492,495,493
492,377,490,494,491
494,384,491,497,492
491,420,491,495,492
492,476,490,494,491
492,538,490,495,493
493,612,491,494,492
492,636,491,496,492
494,624,489,495,493
496,580,489,496,494
495,481,491,496,492
494,411,491,494,492
494,374,490,496,492
493,371,490,495,492
492,378,492,494,491
494,395,491,493,491
494,443,491,495,491
493,502,490,495,492
494,572,489,495,491
493,629,490,496,493
492,633,491,496,493
492,620,491,497,492
492,540,490,496,492
494,440,491,496,492
493,396,490,496,491
492,370,492,495,492
495,373,489,494,492
494,383,489,494,490
491,412,491,494,492
493,468,490,494,491
492,530,490,496,492
491,607,490,496,491
492,634,491,495,490
493,627,492,494,490
494,589,490,497,492
494,494,491,496,492
493,416,490,495,492
494,380,489,494,493
495,372,489,496,493
493,379,491,494,491
493,393,490,497,491
494,436,491,495,491
493,495,491,496,490
493,561,491,494,491
493,625,491,495,492
492,634,492,495,493
494,622,492,497,491
492,552,491,497,493
494,451,491,496,493
493,401,491,497,493
492,370,490,496,492
492,374,492,496,493
494,382,490,496,490
493,406,491,494,491
493,460,491,494,491
493,520,490,494,491
494,598,491,496,491
493,634,490,495,493
494,628,491,494,492
492,601,491,498,493
493,508,491,497,493
493,422,491,496,492
493,385,489,495,491
493,371,490,496,492
491,375,490,495,492
494,385,489,494,493
494,429,490,495,492
494,487,491,495,492
492,553,490,496,491
495,619,491,496,491
493,634,491,495,490
493,623,491,495,491
493,567,492,497,493
493,463,491,496,492
493,406,491,496,490
494,371,489,494,493
493,373,490,496,495
493,382,490,496,493
492,403,491,497,491
493,452,490,496,492
493,514,490,495,492
494,589,492,495,491
493,631,491,495,492
495,630,491,494,492
494,614,493,498,492
495,521,491,496,492
493,430,493,496,493
492,391,491,497,494
492,373,491,496,492
492,378,491,496,492
493,385,491,496,491
493,423,490,496,493
492,479,491,495,491
493,541,490,495,492
495,614,489,495,494
493,635,491,495,494
492,627,491,494,491
494,577,492,498,492
493,476,491,496,493
493,410,491,495,492
493,376,493,496,490
493,372,490,496,493
494,378,490,494,491
491,400,493,494,492
493,444,490,494,492
493,504,490,495,493
493,577,490,494,490
493,628,491,496,491
492,631,489,495,493
492,617,493,497,491
493,534,493,496,493
493,439,492,496,491
492,395,492,498,492
495,370,491,496,490
493,375,491,496,493
493,384,489,497,494
492,416,489,497,493
492,470,490,495,492
494,532,490,496,491
494,609,489,496,491
494,634,491,495,492
494,626,489,495,493
495,586,489,495,493
495,490,491,497,492
492,415,490,496,493
494,379,492,495,490
492,372,491,497,492
491,379,492,496,491
492,394,493,496,489
493,438,490,495,491
492,496,491,495,492
493,566,489,494,491
493,624,489,495,493
494,632,489,495,493
494,622,493,496,490
492,548,492,497,494
494,448,493,496,493
492,398,493,497,492
491,372,492,496,491
492,373,491,495,493
493,382,490,495,490
493,405,490,496,492
492,463,491,495,491
493,522,491,495,493
494,601,490,496,494
493,635,492,496,492
494,627,490,495,491
492,598,492,495,493
494,502,490,497,492
493,418,491,495,492
493,384,491,495,491
493,370,492,497,491
492,375,489,495,493
493,389,492,495,493
492,432,490,496,492
493,489,490,496,492
492,556,490,496,491
494,620,490,496,491
492,634,489,496,493
493,622,491,496,491
493,562,491,496,492
493,459,490,496,492
494,404,494,496,491
494,371,492,495,491
493,373,494,497,492
492,383,494,496,491
491,405,494,497,492
493,456,491,496,492
493,516,489,496,492
493,591,491,495,491
492,634,493,497,493
494,629,491,496,493
493,606,490,495,494
494,517,490,496,492
493,426,491,497,493
492,390,489,494,491
494,374,489,497,491
492,375,491,496,491
493,386,492,495,490
493,425,489,496,491
492,481,489,495,492
492,548,491,494,491
494,616,489,496,493
493,634,489,497,494
493,626,491,495,491
494,573,492,497,493
493,470,490,496,492
492,408,491,496,491
492,373,493,496,491
493,370,490,494,492
494,379,489,494,491
491,401,491,495,493
494,448,491,496,491
493,508,490,496,493
492,582,490,497,494
492,631,491,496,492
493,631,490,496,493
493,616,492,496,494
494,531,491,496,492
493,434,492,496,491
493,392,490,495,492
495,371,490,496,490
492,376,491,495,493
492,383,492,494,491
492,419,491,496,492
492,473,490,496,492
492,536,490,496,490
494,611,489,495,491
493,634,491,496,492
491,628,489,494,492
495,583,490,496,493
494,483,490,496,493
493,413,490,496,493
493,378,492,494,490
491,372,491,496,493
494,379,489,496,490
491,395,492,495,490
491,441,491,495,492
492,500,491,495,492
491,571,490,494,492
495,630,491,496,491
493,634,491,497,493
492,620,490,498,493
492,544,491,496,493
494,443,491,495,492
492,397,492,495,493
495,370,493,495,490
494,371,491,494,491
494,381,489,494,491
494,408,491,496,491
492,465,490,495,492
491,526,491,495,493
491,605,490,495,492
489,634,492,496,492
490,627,492,496,491
491,594,493,495,494
493,497,492,496,493
493,415,490,495,492
494,380,490,494,491
493,369,489,495,493
493,377,489,495,493
492,390,492,495,493
492,434,490,495,491
493,493,491,496,491
492,560,491,496,491
492,624,492,495,492
494,634,491,497,493
491,620,490,494,491
492,559,491,497,493
494,455,491,496,492
493,401,490,495,494
494,371,489,495,492
494,372,490,497,492
491,382,490,494,492
495,408,492,495,491
492,459,492,495,492
492,518,492,495,491
493,595,491,494,490
492,635,492,496,492
493,629,489,496,490
493,605,490,496,494
493,512,491,496,493
493,424,490,496,492
492,389,491,494,491
494,373,492,496,491
493,377,489,496,491
493,386,492,494,490
493,426,491,495,492
493,485,491,495,492
492,551,492,495,493
493,619,493,495,491
494,637,492,496,492
491,626,492,497,492
491,573,493,497,493
492,466,492,495,492
491,406,492,495,494
492,372,489,494,492
493,371,489,495,491
493,379,489,495,492
494,400,489,495,494
492,452,491,496,491
492,510,490,496,492
493,584,489,493,492
491,633,491,496,490
492,630,492,494,491
493,615,492,495,494
493,527,491,496,492
492,431,491,496,492
492,391,491,495,492
495,371,491,496,493
492,376,491,496,493
491,384,492,493,490
491,420,492,496,492
493,476,491,495,491
492,541,490,495,490
492,613,491,495,492
493,634,489,497,491
491,627,490,495,493
494,582,493,496,492
493,479,490,496,493
493,411,491,496,493
491,377,490,497,493
491,372,492,496,493
494,379,490,495,491
493,395,489,496,493
492,443,491,494,491
492,502,490,495,491
493,571,489,494,492
494,630,492,495,490
492,633,490,496,492
493,618,491,497,493
491,540,492,497,493
492,441,491,497,492
492,396,492,495,494
494,371,493,495,490
493,374,491,496,493
494,382,489,493,492
494,411,489,495,492
493,466,490,495,492
492,529,491,494,492
492,608,490,495,493
494,633,492,495,491
492,628,492,495,490
492,590,493,496,491
492,493,492,496,492
492,415,491,496,492
493,377,491,494,492
491,372,492,495,492
493,377,490,495,492
492,389,490,495,493
492,435,490,494,491
492,494,491,495,491
491,560,489,493,492
491,626,491,495,491
493,632,490,494,491
493,619,489,494,491
492,554,491,496,492
494,450,490,497,492
492,399,490,496,493
493,371,490,496,493
491,373,491,497,492
491,381,490,494,492
494,407,492,495,491
492,459,489,495,492
493,519,490,494,491
493,597,491,494,491
493,632,490,495,493
493,629,490,495,491
492,600,490,497,494
492,504,492,496,492
493,420,491,496,491
491,385,492,497,491
490,370,492,495,491
493,376,490,496,490
492,384,491,497,493
491,429,490,494,491
493,486,490,494,491
493,550,489,494,493
493,619,492,494,491
493,635,491,496,491
494,621,489,493,492
491,568,493,496,492
492,462,492,496,491
491,403,491,494,493
491,372,489,493,491
493,370,492,496,490
491,379,490,495,493
494,401,489,495,492
492,452,490,495,492
493,511,490,495,492
494,586,490,494,490
492,631,492,496,493
493,631,491,494,491
494,609,492,494,491
494,519,490,496,492
493,429,491,496,492
492,390,491,495,493
492,372,491,494,492
492,377,491,496,491
491,386,491,497,491
490,421,491,495,491
493,478,490,495,491
492,542,489,495,492
491,613,491,494,491
493,633,489,494,492
494,624,489,495,493
494,578,493,495,492
493,475,491,495,491
492,407,490,496,492
491,376,492,497,491
492,372,492,494,490
491,377,492,494,491
492,395,489,496,492
491,444,491,494,491
492,504,491,495,492
493,577,489,495,493
494,630,491,496,493
492,632,491,496,492
494,615,490,497,491
491,534,491,496,492
493,436,491,495,491
492,393,492,494,491
491,370,492,494,491
493,375,491,496,491
493,382,490,494,490
490,413,491,494,493
492,470,490,494,492
492,532,491,495,491
490,608,490,493,492
494,632,492,495,491
491,625,490,496,494
493,584,492,494,492
494,487,492,496,492
492,412,491,495,492
493,376,490,494,491
492,371,492,496,493
492,378,491,494,492
493,393,491,496,491
492,439,491,495,491
493,496,491,496,491
492,565,490,495,494
493,625,491,494,492
492,632,492,494,493
493,620,489,495,493
494,548,491,496,493
493,447,491,495,492
493,398,491,496,492
491,368,490,494,492
492,373,492,495,491
492,382,491,494,489
492,407,491,494,491
492,462,489,495,491
493,521,490,495,490
490,602,489,494,493
493,634,490,496,492
492,629,491,496,492
491,597,490,497,492
492,500,491,495,492
492,418,492,495,493
493,383,490,494,491
492,370,490,493,491
493,375,490,494,492
493,386,489,496,491
492,431,490,494,492
492,489,491,494,491
492,556,491,496,492
492,623,492,495,491
491,633,493,495,490
492,622,491,494,490
493,559,493,496,492
492,458,492,495,491
493,401,490,494,491
493,370,489,493,492
493,372,491,494,491
493,382,491,495,492
494,401,490,493,491
492,455,491,494,492
492,515,491,494,490
491,591,493,494,490
493,630,492,495,492
491,631,490,494,492
494,608,493,496,491
494,515,490,495,492
492,426,490,495,492
492,389,490,496,493
493,370,489,493,490
492,376,492,494,493
492,385,492,493,490
492,424,491,494,491
492,481,491,494,491
493,544,491,495,491
492,617,490,495,493
493,633,491,493,493
491,626,491,496,493
491,576,492,496,491
492,471,492,495,492
493,406,491,494,491
493,372,490,495,492
491,369,490,493,492
494,379,490,493,491
494,397,491,494,491
492,448,491,494,492
492,507,492,493,491
491,582,490,493,492
493,629,492,495,491
492,630,492,494,490
492,615,492,494,490
493,528,491,495,493
493,434,492,494,491
491,394,493,496,492
494,370,490,494,493
492,376,491,495,492
492,385,491,496,491
494,414,490,495,492
492,474,491,494,491
493,535,494,494,490
493,611,496,494,491
493,634,494,494,493
494,626,495,495,492
494,583,490,495,491
492,483,491,495,493
493,411,487,495,493
492,379,489,496,492
491,371,491,496,490
491,378,489,494,493
494,393,492,494,490
491,440,490,494,491
492,499,490,494,491
493,568,489,493,492
494,626,490,494,491
493,631,491,495,492
492,621,491,494,491
494,543,492,496,493
492,444,491,495,491
492,397,492,494,490
491,371,489,495,493
493,372,490,493,491
491,383,492,494,492
494,409,489,494,492
494,465,491,494,492
493,526,491,493,491
493,602,491,496,491
492,634,490,495,492
493,628,492,494,491
492,592,493,494,491
493,498,492,495,491
493,417,491,494,492
492,384,492,493,492
494,371,493,494,491
492,377,490,495,492
492,390,490,495,492
491,434,491,494,492
492,490,490,493,492
491,560,492,494,491
494,621,491,493,491
493,631,490,492,492
494,621,490,493,491
495,555,491,496,492
492,456,491,494,492
493,401,492,494,491
492,372,490,495,493
491,374,491,494,491
491,382,492,494,490
494,404,489,494,490
492,458,492,494,491
493,517,491,493,492
494,594,490,493,492
494,633,491,495,493
493,630,491,495,492
492,601,491,493,492
492,512,492,496,492
493,422,491,495,492
492,387,492,494,490
491,372,492,493,491
493,376,492,495,492
491,387,490,493,491
494,428,492,494,491
493,483,491,493,493
493,549,490,494,492
492,619,491,494,491
493,632,490,493,491
492,624,493,493,493
493,570,494,495,493
492,466,493,495,492
493,406,491,494,491
494,371,491,496,491
491,372,490,494,494
492,380,492,492,493
491,401,491,495,492
492,451,491,495,492
492,511,492,494,490
491,583,493,494,493
494,631,492,492,492
494,631,493,495,491
494,610,491,493,493
495,525,492,494,492
493,432,492,494,492
492,391,492,493,494
491,374,492,492,491
493,374,493,494,491
492,385,493,494,490
492,419,492,493,491
491,476,492,494,492
492,538,491,492,491
491,615,492,495,493
493,634,490,494,493
492,626,491,495,493
493,581,491,496,492
493,478,492,495,492
492,411,491,494,492
493,375,493,494,490
493,369,491,493,491
493,378,491,493,491
494,394,490,493,492
492,444,491,495,490
492,504,491,493,491
493,572,491,495,493
492,630,492,495,491
492,633,493,494,490
492,618,490,494,494
493,537,492,495,492
493,441,492,495,491
493,394,490,493,492
495,371,490,493,493
493,375,490,494,491
492,382,491,495,493
492,415,491,493,491
493,469,491,494,492
492,530,492,494,490
491,608,493,494,490
492,634,491,495,493
493,626,491,493,491
492,591,493,494,492
494,491,491,494,492
493,416,490,494,493
493,383,491,495,494
492,372,490,493,492
494,380,492,494,490
494,390,490,494,491
492,436,492,493,491
493,496,491,493,491
494,562,490,493,492
492,627,492,495,493
494,634,492,493,491
493,623,490,496,494
492,554,492,496,493
493,452,492,495,492
492,399,491,494,493
492,373,493,493,493
492,375,491,493,491
493,380,490,493,491
495,405,490,493,492
493,461,490,494,491
492,520,491,494,493
493,599,491,493,490
491,635,492,495,491
492,629,492,494,490
492,601,493,495,490
493,507,492,495,492
493,420,491,494,492
494,385,492,495,491
491,370,489,494,493
493,377,490,494,494
492,389,490,495,492
492,427,491,493,490
492,487,491,495,491
493,553,490,494,490
492,620,493,493,492
494,634,490,493,491
494,622,490,496,491
491,568,490,494,493
494,465,491,494,491
493,404,491,495,493
492,373,490,496,492
492,374,492,495,490
494,380,490,494,490
491,402,492,494,491
492,453,491,493,491
492,511,490,493,492
494,587,490,492,491
494,632,490,494,492
492,629,492,493,491
491,612,491,496,491
494,519,492,496,492
493,429,491,495,491
492,391,493,494,490
491,373,492,495,492
491,376,491,493,492
494,388,492,496,491
494,422,490,494,492
493,478,491,493,492
493,544,491,494,492
493,613,491,494,492
491,635,492,494,493
493,626,492,493,490
493,576,493,494,492
493,476,492,495,492
493,410,492,494,491
491,374,490,492,492
492,373,492,494,492
492,381,491,495,492
491,398,491,495,491
492,447,491,494,490
493,505,491,493,492
492,575,492,493,490
493,630,491,495,491
494,629,490,493,492
493,616,490,494,493
495,535,492,494,492
492,438,492,494,493
492,396,492,493,491
494,371,492,495,490
492,374,494,495,491
493,384,497,493,490
492,414,497,495,493
492,470,495,494,491
493,534,495,494,492
494,608,491,494,493
493,634,487,495,493
492,627,487,495,491
494,584,488,497,492
492,488,489,494,492
493,414,491,494,491
493,378,491,494,491
493,370,490,493,491
493,379,490,493,491
491,394,492,495,493
494,439,489,494,491
492,498,490,493,492
492,566,490,495,492
492,627,491,495,491
492,633,490,494,493
492,618,493,494,491
493,549,491,495,492
493,447,491,494,491
493,397,490,493,492
494,371,489,493,490
492,372,492,495,493
492,384,491,492,490
494,410,492,495,491
492,463,491,494,492
492,523,491,493,490
493,602,491,495,493
494,631,490,493,492
492,629,492,494,493
494,594,490,494,494
493,501,491,494,493
493,419,491,494,492
492,386,492,493,490
493,372,492,495,491
494,377,490,494,490
492,387,492,493,491
492,430,490,493,491
493,489,490,493,492
492,556,491,493,491
494,620,492,493,491
493,634,491,495,493
491,623,491,496,494
492,564,492,495,493
493,458,492,495,492
492,401,492,494,493
493,372,490,493,491
493,370,490,493,491
494,379,489,493,492
495,403,489,494,490
492,456,490,494,492
493,516,490,492,491
491,595,491,496,493
492,632,492,495,491
492,629,491,493,491
493,608,492,493,494
492,516,491,494,492
493,426,491,495,491
492,388,490,494,493
494,371,490,494,494
492,378,490,495,492
492,385,491,492,491
491,425,491,494,491
494,482,490,494,490
492,546,492,493,490
492,616,492,492,492
494,633,490,495,490
491,625,489,493,493
495,576,493,494,491
494,471,491,495,492
492,408,491,495,492
492,376,491,496,492
494,372,490,494,490
492,380,492,494,493
493,401,492,492,490
493,447,491,493,492
493,507,490,493,492
495,581,489,493,493
494,630,492,493,491
492,632,492,495,492
495,615,490,496,491
491,530,492,495,492
493,435,491,494,491
493,394,491,495,493
492,373,490,494,492
494,377,491,494,490
493,385,489,493,493
493,417,489,494,492
493,473,490,494,492
492,535,490,492,491
491,612,491,492,493
494,635,492,493,490
493,624,491,493,490
494,582,491,493,493
495,486,491,495,492
493,411,490,494,493
493,379,492,494,493
492,374,491,495,491
491,380,491,495,491
491,396,491,495,491
492,441,491,493,491
493,499,491,494,491
493,571,490,495,492
494,626,490,494,493
494,632,489,494,494
494,620,489,494,493
493,541,492,494,493
493,444,491,494,491
493,397,492,495,490
491,373,492,494,490
493,372,491,493,491
494,382,491,495,492
491,407,489,493,491
492,466,490,493,491
493,526,490,494,492
493,604,489,494,492
492,634,491,495,491
494,626,489,495,490
491,593,489,494,494
494,497,493,494,491
492,416,491,494,492
493,381,490,493,491
494,372,489,494,492
492,379,492,493,493
493,390,489,493,491
493,434,491,494,492
492,492,490,495,491
492,559,491,495,491
492,625,491,495,492
493,632,491,493,491
492,624,491,496,491
495,555,490,495,492
494,454,491,495,492
494,402,490,493,491
492,372,493,495,492
492,374,489,493,492
494,383,492,494,490
491,406,493,494,490
492,458,491,494,491
492,518,491,494,492
492,594,491,492,492
492,634,491,493,492
493,629,490,494,492
493,602,489,495,494
493,512,490,495,493
493,424,491,493,491
493,388,491,496,491
496,372,490,494,491
493,375,491,493,491
493,385,490,493,491
495,426,490,493,490
492,485,491,493,492
492,549,491,493,490
492,620,491,495,491
492,634,492,495,491
492,624,492,495,491
492,571,490,494,493
492,467,492,495,493
493,406,490,493,491
493,371,491,492,491
494,371,490,494,493
493,381,489,493,490
491,401,489,495,492
492,450,491,493,491
493,511,491,494,490
491,585,491,495,490
491,629,492,493,491
493,629,491,492,492
491,615,491,493,492
495,524,492,495,492
493,433,491,493,492
493,392,490,494,494
493,372,490,495,492
492,375,490,493,492
491,385,492,495,493
494,419,489,494,491
492,475,491,494,491
492,538,491,493,491
494,610,490,495,491
492,635,490,495,493
493,625,491,492,490
493,582,491,495,492
492,480,491,495,492
492,411,491,495,492
494,377,490,492,490
492,371,491,494,493
492,381,490,492,491
494,394,491,492,491
493,443,490,493,491
493,502,490,492,492
493,574,492,492,490
493,629,491,495,492
495,631,489,494,491
491,620,493,495,491
492,539,493,494,493
493,443,491,494,492
492,397,490,493,491
493,373,491,494,491
494,374,490,493,492
493,383,490,494,493
492,412,490,494,492
493,467,491,493,492
492,528,491,493,493
494,606,493,494,491
493,634,492,493,491
494,625,491,492,492
494,589,492,496,492
492,492,492,494,492
492,416,492,494,493
493,382,490,494,494
493,372,491,495,492
491,378,491,495,491
492,392,492,492,492
493,435,490,494,491
492,494,489,493,492
493,561,490,492,491
494,623,490,493,492
494,632,489,493,493
493,622,492,493,494
493,553,491,494,493
493,451,491,495,492
492,400,492,494,491
491,373,492,494,491
492,373,490,495,494
492,380,491,493,491
491,408,491,495,492
494,460,491,493,491
493,520,490,494,493
493,598,490,494,491
494,633,491,494,491
491,629,489,494,493
494,601,493,495,491
492,507,492,495,492
492,420,491,494,491
493,385,491,493,491
492,373,491,495,492
494,375,490,494,491
492,389,489,493,493
492,430,490,494,492
492,485,491,494,493
492,553,489,492,491
494,621,491,494,491
493,634,490,494,490
493,622,491,493,491
493,565,491,494,492
493,463,491,494,492
492,406,492,493,493
494,371,493,494,492
493,374,491,495,492
491,382,491,495,491
491,403,492,495,491
492,452,490,493,491
492,512,491,493,492
492,589,490,493,490
494,630,490,494,492
494,630,490,494,493
493,609,490,494,494
493,521,492,494,491
493,429,490,494,492
493,389,490,492,492
491,374,492,494,490
492,375,492,493,491
492,385,491,493,493
492,423,491,493,490
492,477,490,494,492
492,543,489,492,492
494,615,490,494,492
492,634,491,495,493
491,624,489,492,491
491,580,493,496,493
494,474,491,494,492
492,410,491,494,491
492,374,492,493,490
493,370,490,495,491
491,382,489,493,491
494,398,492,493,491
493,447,490,494,491
493,506,490,494,491
492,577,491,496,492
492,630,492,494,493
494,632,491,492,490
493,615,490,495,494
492,533,491,494,492
493,437,491,493,492
493,394,490,494,493
495,373,492,493,490
491,376,491,495,492
493,382,490,495,491
491,416,491,494,491
491,470,491,494,491
492,531,491,494,493
492,609,492,492,492
493,635,491,494,491
494,627,489,493,493
495,586,490,494,494
493,488,490,494,492
493,414,491,493,492
491,380,492,492,491
494,370,491,493,490
492,378,492,493,490
492,391,492,492,491
493,437,491,493,491
493,499,490,495,490
494,565,490,493,491
492,626,492,494,492
492,634,492,495,492
491,621,492,496,492
491,549,492,494,492
493,448,492,494,491
491,397,490,494,494
493,370,492,492,491
494,372,490,492,491
493,381,490,493,493
492,409,492,493,492
492,462,491,494,491
492,522,490,494,491
492,604,491,495,491
492,633,492,493,490
492,627,490,494,493
493,595,492,493,492
492,501,491,495,492
493,418,492,493,492
494,384,490,493,493
493,371,490,495,493
492,377,490,492,491
493,387,492,495,490
491,430,490,494,492
493,490,491,493,491
493,554,491,492,491
493,620,491,493,492
492,635,492,494,493
493,623,490,494,491
493,561,490,494,493
493,459,491,494,492
492,403,491,495,491
491,372,489,492,493
494,373,492,493,490
492,381,490,494,491
494,401,490,492,491
493,455,491,493,490
493,513,490,493,491
492,593,492,493,493
492,633,491,492,492
494,631,491,494,491
492,609,492,495,491
492,516,492,495,493
492,426,491,494,492
492,390,491,495,490
493,370,491,495,491
491,376,489,493,493
493,387,489,493,493
492,424,490,494,493
492,480,490,493,491
494,547,491,495,491
495,615,490,494,491
493,635,492,492,491
493,623,491,492,491
494,574,492,493,493
493,474,492,494,491
493,407,493,494,491
492,375,490,494,493
492,374,491,495,492
491,381,491,495,492
491,397,488,492,492
492,449,490,494,491
492,507,489,492,491
493,580,490,491,491
494,630,490,493,492
493,631,489,494,494
493,616,492,493,491
493,531,491,494,493
492,435,491,493,493
493,395,492,495,491
491,375,492,494,490
493,374,492,493,493
493,387,490,492,490
493,415,491,494,493
492,473,490,493,492
494,537,490,493,492
494,611,491,495,493
492,634,490,493,492
491,628,492,494,492
495,582,490,494,491
493,485,492,494,492
492,413,491,493,491
493,376,491,495,493
492,374,490,492,492
494,379,492,493,490
493,395,489,494,493
492,443,490,493,492
492,499,491,494,491
491,569,491,495,492
495,626,490,493,490
494,631,491,495,493
492,618,491,492,491
495,542,491,493,491
493,446,491,493,492
493,397,492,493,490
494,372,489,494,491
493,373,490,495,492
491,384,492,494,491
491,412,492,494,491
492,465,491,494,492
493,526,491,492,491
493,605,491,496,493
494,633,490,493,493
494,628,491,495,493
494,592,490,495,493
493,496,491,494,493
493,418,491,493,491
494,381,492,496,490
491,372,492,493,490
492,378,492,493,490
492,388,492,493,490
493,434,490,494,492
492,492,490,493,491
491,559,491,492,493
494,623,490,494,492
492,634,491,495,493
491,622,491,492,492
495,556,492,495,491
492,453,491,493,492
492,401,491,494,491
492,372,492,492,491
493,371,491,493,492
492,382,492,494,492
494,404,489,494,491
492,457,490,493,492
493,518,490,494,491
492,597,491,495,492
492,633,490,494,493
493,629,492,492,491
492,604,490,495,491
494,510,491,494,492
493,423,491,493,492
493,387,490,493,491
494,372,489,493,490
493,377,491,494,492
491,385,490,492,491
491,429,491,493,492
492,484,491,494,491
492,549,492,493,490
493,618,490,494,491
493,633,491,494,491
491,624,490,492,493
495,570,491,494,493
493,468,492,494,492
492,406,491,493,492
493,375,491,495,491
493,372,490,493,491
492,380,492,492,491
492,400,492,492,490
493,449,491,493,492
493,510,490,493,492
494,585,493,494,490
492,631,490,495,493
493,632,491,495,492
491,615,491,496,491
492,525,492,494,492
493,431,490,492,491
492,391,491,495,494
492,372,491,492,492
494,375,489,492,492
494,384,489,493,492
494,419,492,493,491
492,477,490,493,492
493,538,490,492,492
491,615,491,495,491
492,635,492,493,490
492,625,492,492,494
493,582,490,493,491
493,480,491,494,491
492,409,490,493,493
494,376,489,493,493
493,373,490,494,492
491,377,490,492,492
492,398,491,495,492
493,443,490,494,492
493,502,491,492,491
493,572,491,492,491
493,628,490,493,493
494,631,492,494,491
492,620,489,493,493
492,537,492,494,493
493,441,491,493,492
491,398,492,494,491
491,373,492,494,493
493,374,490,493,491
493,383,491,495,493
492,409,490,492,491
493,468,490,493,492
493,528,490,493,492
493,606,492,493,491
492,635,490,494,491
494,625,489,495,491
491,590,492,495,491
492,494,491,494,491
492,415,492,494,493
492,382,491,492,491
493,372,492,494,490
493,376,489,493,493
493,390,489,493,493
493,436,490,494,492
492,494,490,494,492
493,560,489,495,491
492,626,491,494,492
493,631,491,492,491
494,620,491,492,491
494,552,491,494,492
493,452,491,494,492
494,400,490,493,490
492,372,493,494,493
492,374,490,494,493
492,383,491,494,491
491,407,491,493,492
493,458,491,493,492
492,518,490,493,492
492,596,491,492,491
494,631,490,493,492
493,628,490,493,493
491,600,493,494,494
493,506,490,494,492
493,420,490,494,492
491,386,491,495,493
491,373,492,494,490
492,377,492,493,491
492,387,489,494,494
493,427,491,493,492
492,486,491,493,492
493,552,489,493,493
494,619,490,494,493
492,633,491,493,491
494,622,492,496,492
491,564,491,493,492
492,463,491,494,492
492,406,492,493,491
492,373,493,493,491
491,373,491,495,492
494,379,490,494,490
491,402,489,493,492
493,453,489,493,492
493,512,491,493,492
491,588,490,492,491
493,631,492,493,490
493,629,491,494,491
492,609,493,493,492
493,519,492,494,492
493,430,492,493,492
493,389,491,495,492
492,374,490,494,493
492,375,491,493,492
492,386,491,495,493
492,423,491,495,491
492,479,491,494,491
493,541,489,494,490
493,613,491,495,492
491,634,489,493,493
494,624,490,494,493
494,577,489,493,492
493,475,491,494,492
492,409,490,494,493
494,375,493,493,494
492,373,491,495,493
492,381,490,495,492
492,398,490,494,491
493,443,491,493,493
493,505,491,493,491
494,577,492,495,492
492,628,491,494,491
493,631,492,493,490
493,616,493,493,491
492,534,491,495,492
493,438,491,495,492
492,394,491,493,493
495,371,490,493,493
493,375,491,495,493
492,384,491,493,491
494,415,492,494,492
494,469,492,494,492
492,532,492,493,491
494,607,491,493,493
495,634,491,494,492
492,627,492,495,494
495,586,493,494,491
492,487,491,494,492
493,414,490,494,492
492,381,491,496,493
492,370,490,494,493
492,378,492,493,493
493,393,489,493,491
492,437,491,494,491
492,496,491,493,492
493,564,490,492,491
494,624,492,494,492
492,634,491,494,493
493,620,492,493,494
492,549,491,495,494
494,449,491,494,492
492,400,492,495,493
494,370,490,493,491
493,374,491,495,493
492,380,491,492,492
494,406,490,493,492
494,463,491,493,492
494,523,492,493,491
492,603,490,495,492
495,632,491,495,491
492,629,493,493,491
492,597,493,493,491
493,503,492,493,495
492,420,491,493,492
493,385,492,495,491
494,370,490,494,493
493,377,490,493,493
493,389,490,493,493
491,431,491,492,492
491,487,491,492,492
491,556,490,493,493
493,622,491,494,491
494,632,491,492,491
495,622,491,491,491
495,565,492,496,492
494,458,491,494,492
492,404,492,494,494
493,371,490,493,494
491,373,491,493,493
491,382,492,493,493
495,401,492,494,491
493,455,491,494,492
493,515,491,493,492
494,591,491,492,492
494,631,491,493,493
491,630,494,491,495
491,607,491,492,490
494,516,491,495,492
494,426,491,495,492
493,390,491,495,493
492,374,492,492,491
492,376,489,495,493
493,385,491,493,493
493,425,490,493,492
492,480,490,493,491
493,545,490,492,492
495,615,490,493,492
492,634,490,494,494
492,624,490,493,490
491,576,491,495,492
492,472,491,495,493
493,410,492,494,492
493,374,490,494,491
493,370,490,494,492
492,381,490,493,492
494,398,489,493,493
493,447,490,493,493
493,508,492,493,491
493,582,491,496,493
495,630,491,494,492
493,632,492,494,491
493,615,493,493,491
493,530,491,493,492
493,436,491,495,492
491,394,489,492,493
495,375,492,493,490
493,375,490,495,493
492,385,490,494,494
492,417,491,494,492
492,471,491,493,493
492,535,491,492,493
494,610,493,493,491
492,633,491,492,491
493,625,490,492,491
495,583,493,496,491
492,483,491,494,492
493,413,491,493,493
492,378,490,493,493
491,372,491,495,491
491,379,491,495,492
494,392,489,494,491
492,440,490,494,492
493,500,491,492,491
493,567,489,491,493
495,626,490,494,493
494,633,491,495,493
493,619,492,492,495
492,544,491,493,492
493,444,491,494,491
492,397,492,494,492
492,372,493,494,491
492,373,491,495,493
491,379,490,492,491
492,411,491,494,492
493,464,491,493,491
493,524,491,493,493
493,603,491,493,490
493,632,493,495,492
491,628,491,493,492
495,594,493,495,491
492,496,491,495,492
492,417,491,494,492
493,383,490,495,493
493,368,490,492,492
492,378,492,493,493
493,388,489,494,493
492,432,489,494,493
493,490,489,494,492
492,559,490,493,492
494,624,492,494,491
494,634,490,494,490
493,620,491,493,491
494,555,490,493,492
493,455,491,493,492
492,402,491,494,493
494,370,493,494,492
492,373,491,494,493
491,381,490,494,492
490,404,491,494,492
492,456,490,493,490
492,517,491,493,493
493,595,489,492,491
493,631,490,492,492
494,627,489,493,492
495,602,489,495,491
492,513,491,494,492
492,422,492,494,492
492,388,491,495,492
491,372,491,495,491
491,375,492,494,491
492,386,493,493,493
493,425,491,493,491
492,482,491,494,492
492,548,489,492,491
495,616,489,494,494
493,635,490,495,494
493,624,491,492,491
492,573,492,495,493
494,466,491,494,492
492,406,492,494,491
492,371,493,494,491
493,370,491,494,492
492,381,491,493,491
493,401,492,494,491
494,450,490,492,491
492,508,490,493,492
491,583,489,494,493
493,629,490,492,491
491,631,492,494,493
493,612,493,493,490
492,525,492,492,491
492,431,492,494,492
492,390,491,493,491
494,374,492,495,490
493,374,490,494,491
493,384,493,494,493
491,420,492,495,491
492,474,491,495,493
493,538,491,493,493
495,613,493,495,491
493,635,491,495,494
494,625,490,493,491
495,580,491,494,492
494,480,492,494,493
492,413,491,493,493
493,376,489,493,490
492,370,491,494,492
490,380,491,493,491
491,396,492,495,491
492,442,490,493,492
493,501,491,493,490
492,573,490,495,491
493,628,490,493,492
494,630,490,493,492
493,618,489,493,494
