Sensor0,Sensor1,Sensor2,Sensor3,Sensor4

493,493,492,493,382
491,492,490,492,407
492,491,491,493,495
492,494,492,493,416
492,493,491,493,379
492,492,490,492,368
490,492,492,494,378
5,493,493,493,493
495,492,494,492,493
416,492,493,491,493
379,492,492,490,492
368,490,492,492,494
378,492,493,490,493
388,5,492,494,492
493,416,492,493,491
493,379,492,492,490
492,368,490,492,492
494,378,492,493,490
493,388,490,493,490
492,433,491,493,492
492,493,491,493,491
490,560,492,494,491
491,625,492,493,492
493,635,493,492,490
493,623,491,495,494
494,554,491,492,492
493,453,491,494,492
493,399,490,493,493
492,371,492,493,493
492,373,491,492,491
493,378,491,494,491
491,406,492,493,491
492,459,491,492,492
492,517,490,493,492
492,597,491,492,490
492,634,491,494,493
493,629,490,494,493
494,603,491,494,493
493,509,492,494,492
492,421,491,493,491
493,385,492,496,491
492,368,489,493,493
493,376,491,492,492
493,386,492,492,491
493,425,491,493,492
492,485,489,494,491
493,550,489,494,490
492,621,489,494,492
493,637,491,494,492
491,626,492,495,493
491,572,490,493,492
493,466,491,493,491
493,403,491,494,491
492,370,493,492,490
493,370,490,491,491
493,378,489,493,491
491,403,492,493,492
493,451,492,493,491
492,511,490,494,493
492,590,491,494,492
492,633,492,494,491
491,632,493,494,490
493,613,490,493,490
493,522,491,494,493
492,429,490,492,491
493,390,490,492,493
494,370,490,493,493
493,375,492,492,491
493,386,492,495,493
493,418,491,493,492
492,479,491,492,491
492,543,492,492,489
492,615,493,492,493
492,637,491,492,491
494,626,492,494,491
491,578,489,493,493
494,477,490,493,492
493,409,491,494,493
492,372,491,492,492
492,373,491,494,493
494,377,490,493,491
492,396,492,493,490
492,445,491,492,490
492,503,491,492,491
493,574,491,494,491
492,631,490,493,492
493,632,491,492,493
492,621,490,494,492
492,537,492,494,492
492,438,492,494,492
494,393,491,494,491
492,371,491,494,493
492,372,490,492,492
494,382,491,492,492
495,412,491,493,492
493,470,491,493,491
493,532,490,493,490
493,608,491,494,491
491,637,492,493,491
492,629,492,493,490
491,589,493,494,494
493,489,492,494,491
492,412,490,494,492
493,376,490,492,491
494,370,489,493,492
493,379,490,494,492
493,389,490,494,491
493,437,490,494,492
491,497,491,493,491
493,567,492,493,490
492,629,491,492,490
493,633,492,492,491
493,623,491,495,493
495,548,491,494,493
492,447,492,493,493
494,398,490,493,493
492,371,489,494,493
491,374,491,492,492
494,380,492,494,490
491,406,490,494,492
492,462,490,493,492
492,523,490,492,491
493,601,490,492,490
492,636,491,494,492
493,630,490,492,491
492,597,491,495,493
492,502,491,494,492
493,419,491,494,491
492,384,493,496,492
491,369,490,494,493
493,375,491,492,493
491,388,490,492,492
494,430,490,493,491
493,489,491,492,492
492,555,490,492,491
492,622,491,494,491
492,633,490,493,492
492,625,491,495,491
492,564,492,494,491
492,460,491,494,490
493,400,490,494,491
493,369,491,495,491
491,373,489,493,492
494,380,490,493,493
493,404,489,493,492
492,455,491,493,492
492,516,492,493,491
493,593,490,492,491
492,633,492,493,491
494,630,492,492,491
493,607,492,492,492
493,514,491,495,493
493,427,490,493,492
493,387,492,494,491
494,371,490,494,493
492,378,491,494,492
492,386,492,496,490
495,423,490,493,491
492,482,491,493,492
492,547,490,491,490
493,617,490,492,492
494,635,490,492,492
494,626,493,494,491
492,576,491,493,492
493,470,492,493,492
492,407,490,494,491
491,374,491,495,491
492,372,493,493,493
493,378,490,492,490
492,398,491,494,491
491,447,491,492,492
492,507,491,492,492
494,582,489,492,492
494,632,490,494,492
493,631,490,492,492
491,619,491,492,492
494,527,491,494,491
493,434,491,493,491
492,392,492,492,491
492,370,491,494,492
491,374,490,491,491
492,385,492,494,493
494,417,490,493,492
493,474,491,493,492
492,537,491,494,491
494,611,490,494,492
492,638,491,493,492
492,626,492,492,490
493,583,492,492,491
494,484,492,493,491
493,412,492,494,491
494,376,489,492,490
493,370,491,495,493
492,379,491,495,492
492,396,491,495,491
492,442,491,494,491
492,500,489,493,492
493,572,491,491,489
492,629,491,494,492
494,632,489,493,493
494,620,490,492,492
495,541,492,493,491
492,442,492,493,491
492,396,492,492,490
493,371,491,494,491
492,373,492,494,491
492,382,493,493,490
491,410,492,493,492
493,466,491,492,491
492,528,490,493,492
494,605,489,492,493
493,635,491,494,492
493,630,492,492,491
494,590,491,495,492
493,494,492,493,491
492,415,491,494,491
493,379,492,493,491
492,370,491,492,491
493,375,491,492,492
492,391,492,492,493
494,435,491,493,491
492,493,490,493,493
492,563,490,493,493
492,627,491,494,491
492,633,490,493,493
493,623,492,493,493
494,555,491,493,492
492,451,491,493,491
493,399,490,492,491
494,369,490,494,491
492,372,490,494,493
492,380,491,491,490
491,407,491,494,492
492,460,490,493,491
493,520,492,493,490
493,599,490,493,491
494,634,490,494,491
491,631,490,493,493
494,600,490,493,494
494,508,490,492,491
493,421,491,493,493
492,384,491,493,491
493,372,491,494,492
494,375,490,494,492
493,387,493,493,491
494,428,492,493,491
493,486,491,494,491
492,552,489,491,491
495,623,493,492,490
493,636,491,494,493
493,626,491,494,493
492,571,492,495,492
493,462,491,494,492
492,404,492,493,492
493,370,494,494,490
493,369,491,492,491
493,379,490,492,491
495,400,492,495,490
491,452,489,492,492
493,513,490,492,492
492,591,490,494,493
492,633,491,494,491
493,632,492,493,490
492,613,494,493,494
493,521,491,493,491
493,428,491,493,492
492,387,490,492,491
494,370,489,493,490
494,376,490,494,493
492,384,491,492,493
492,423,491,492,491
494,478,491,493,491
492,543,492,493,490
492,616,493,491,491
493,635,492,494,491
491,625,489,492,492
491,580,494,494,493
493,474,490,493,492
493,408,490,493,493
493,375,490,494,490
494,369,491,495,491
492,379,491,493,493
494,397,495,493,491
493,445,492,493,492
493,505,492,491,491
493,577,490,492,491
491,630,491,493,492
494,634,489,491,491
493,618,489,496,493
492,534,491,493,493
493,438,491,494,492
492,394,490,493,493
494,371,492,492,490
491,375,491,494,490
494,381,490,491,491
495,413,489,493,492
493,470,491,492,490
492,531,491,493,493
492,612,490,491,492
494,636,492,494,491
491,628,492,493,491
493,589,493,494,491
494,488,491,494,492
492,412,491,493,491
492,379,492,492,491
494,370,490,494,494
493,378,491,494,494
493,392,491,495,492
492,438,491,493,491
492,498,490,494,491
493,566,490,492,491
492,627,491,492,492
494,632,490,492,492
495,620,490,492,491
491,548,492,493,492
494,446,491,494,491
492,396,491,495,493
492,370,489,494,492
491,373,492,494,491
491,380,490,493,492
491,407,492,492,492
493,463,491,493,491
492,523,492,492,491
494,601,491,491,491
494,635,492,493,490
492,628,492,494,494
492,594,492,492,491
492,500,491,495,493
492,417,491,494,493
492,383,492,494,492
491,370,492,492,494
491,377,490,492,493
494,387,491,495,489
492,430,490,492,490
493,490,490,493,491
493,557,490,493,492
493,621,490,492,491
492,635,492,493,492
495,623,490,495,490
492,559,492,494,492
492,457,491,493,491
493,401,491,495,491
491,372,490,492,492
494,373,493,493,490
492,381,491,494,493
492,404,491,495,492
493,457,490,493,491
493,515,491,493,490
491,596,493,492,493
493,635,492,492,491
493,629,492,492,492
494,604,492,492,493
495,515,493,493,493
493,425,493,494,491
493,387,489,494,489
493,370,490,495,490
491,377,491,494,491
492,386,492,494,490
492,425,492,493,492
493,482,490,493,491
493,550,491,494,491
494,617,490,493,493
493,635,490,494,494
493,627,490,494,494
492,572,492,493,493
492,468,491,493,492
493,405,492,494,491
492,371,493,494,491
493,370,492,492,491
494,379,492,494,492
492,397,490,493,492
493,451,492,493,491
492,509,490,493,492
492,584,490,494,494
493,633,491,494,492
491,632,493,493,493
494,613,493,494,491
493,526,491,493,492
491,430,492,493,491
493,389,490,492,491
494,370,490,492,493
491,375,493,493,493
493,385,490,492,489
493,417,490,494,491
492,475,490,493,492
492,539,491,493,490
492,615,489,492,492
494,634,491,492,491
492,628,492,494,489
495,580,491,493,491
494,480,491,494,493
494,411,491,493,492
492,376,496,494,494
492,372,492,492,492
495,381,494,494,491
492,396,494,494,491
492,442,492,493,492
493,502,490,492,491
491,574,489,495,492
494,629,488,494,492
492,634,489,494,494
492,620,489,494,495
493,540,490,494,492
493,440,491,493,490
493,394,491,495,491
494,369,490,493,489
492,372,492,493,491
492,381,491,492,490
493,410,490,491,491
492,468,491,493,491
493,528,491,492,490
492,608,490,494,492
491,636,491,494,492
491,630,492,494,492
492,589,490,493,493
492,493,492,495,493
492,414,491,492,491
492,378,492,492,489
492,369,490,492,492
494,377,491,492,492
493,390,494,493,490
492,436,490,493,492
492,496,491,492,490
491,564,492,494,490
492,627,491,493,491
493,634,490,492,492
492,623,490,492,491
494,551,491,494,492
493,450,491,493,491
493,398,490,493,493
494,370,489,493,494
493,371,490,492,491
492,382,492,495,492
495,405,490,493,490
492,461,491,493,491
492,520,491,492,490
493,600,491,494,492
492,636,490,493,492
493,630,492,492,490
493,601,490,494,493
492,506,492,494,493
492,420,490,494,492
492,387,492,494,490
494,370,491,493,491
493,376,490,493,492
493,385,491,492,489
493,427,490,493,491
492,488,490,492,491
493,554,491,493,490
494,622,489,494,491
493,634,490,494,491
491,626,492,496,491
492,568,493,494,492
493,463,491,493,492
493,404,491,492,491
494,372,491,495,492
494,371,491,493,492
494,380,491,494,494
494,402,490,494,493
493,453,492,493,491
492,513,491,492,492
495,590,492,493,490
493,633,493,493,491
493,630,492,492,491
494,610,492,492,491
494,522,491,494,492
493,427,490,493,491
492,390,492,493,493
493,372,489,495,493
491,376,490,495,492
492,386,491,492,491
494,421,491,493,491
492,480,490,492,492
493,544,492,492,490
493,615,491,492,492
494,635,490,493,493
492,627,493,493,494
493,578,491,493,492
493,474,490,494,491
492,408,491,495,491
492,374,492,495,491
492,371,490,494,492
493,377,491,493,492
492,399,491,495,492
494,446,491,493,492
492,505,490,493,492
493,579,489,493,493
493,632,491,491,492
493,630,492,494,491
491,617,489,493,493
493,531,493,494,491
492,434,492,493,492
492,391,492,491,492
492,372,492,494,492
493,373,490,494,490
492,383,490,492,492
492,415,490,493,491
492,470,490,493,491
493,534,491,491,491
494,612,492,494,490
493,636,491,493,490
494,625,492,491,490
494,583,490,492,492
494,485,490,493,492
492,414,492,494,492
492,377,492,492,490
493,372,491,494,491
491,379,492,494,490
491,392,493,494,491
492,439,491,493,491
493,499,490,493,491
493,566,490,494,491
492,630,490,493,491
493,633,490,494,492
493,622,489,494,494
493,547,492,493,491
493,444,491,494,491
494,395,490,493,490
492,371,494,493,491
493,371,492,492,491
494,380,490,492,492
492,411,492,492,491
493,463,491,492,492
492,526,490,493,493
492,605,490,494,492
491,635,492,494,491
492,628,490,492,493
491,594,494,493,493
493,497,492,493,491
493,416,492,492,490
493,379,491,492,491
494,369,489,493,493
493,377,492,492,490
493,389,489,494,493
493,431,490,492,491
492,492,491,493,491
491,559,492,493,490
492,624,491,492,493
492,636,492,492,491
493,620,492,495,492
491,557,491,493,492
493,454,492,494,493
492,400,491,494,494
493,370,492,492,491
492,373,493,494,493
494,380,491,492,490
492,405,494,492,491
493,457,493,493,492
492,516,492,493,491
490,598,491,492,490
493,633,491,492,491
493,632,491,494,493
492,605,490,495,493
491,511,490,494,493
493,422,490,494,491
494,385,490,494,490
492,370,490,494,493
492,374,491,491,491
493,384,490,492,491
494,425,490,492,491
494,485,491,493,491
492,550,490,493,491
493,619,491,494,491
492,637,492,494,490
492,626,493,494,491
492,573,494,494,493
493,468,493,494,491
492,405,492,494,491
495,370,490,492,491
494,372,489,494,493
493,380,490,494,494
493,399,491,492,491
492,452,491,494,491
493,510,491,492,490
492,587,492,492,490
493,631,491,493,492
494,631,491,492,493
494,618,493,495,490
494,524,492,494,492
493,431,493,493,492
492,392,492,495,493
492,372,492,495,492
492,376,493,493,493
494,385,493,494,490
492,418,490,493,493
493,477,491,493,491
493,539,490,492,491
493,612,490,492,493
492,637,492,492,492
492,628,491,492,490
494,580,491,495,492
492,480,491,494,492
492,410,492,494,492
492,375,489,492,493
493,369,491,492,491
491,379,491,494,492
494,394,489,492,492
493,444,491,492,491
492,503,490,493,492
492,575,490,492,491
493,629,493,494,490
492,633,490,493,494
494,619,493,493,490
493,537,493,494,492
493,440,492,493,491
493,395,492,494,493
495,370,490,494,491
493,373,491,494,492
492,384,492,495,492
491,414,491,494,492
492,469,491,492,491
494,531,492,492,489
493,608,490,493,492
494,635,491,492,492
494,628,490,493,493
495,588,491,493,493
493,492,492,493,493
492,414,492,493,493
493,380,490,494,494
492,372,491,494,490
492,377,492,494,489
492,390,492,493,489
493,436,491,492,489
493,495,491,494,491
492,566,489,492,491
495,625,490,493,493
492,634,491,494,493
492,623,491,492,489
494,552,493,494,491
493,448,492,493,492
492,398,493,493,490
493,370,494,492,490
493,370,490,492,491
492,382,492,492,491
494,405,492,493,490
492,461,489,493,492
493,522,491,494,492
491,602,491,495,492
492,633,491,492,492
493,629,494,492,493
493,599,491,492,491
494,503,492,493,491
493,418,491,493,492
494,383,490,492,492
495,371,491,492,491
493,378,490,494,493
494,385,490,492,492
492,432,491,493,491
492,489,491,493,491
493,555,491,492,493
493,624,490,492,491
493,634,492,494,491
492,624,490,492,493
494,565,491,494,493
493,460,492,493,493
492,403,490,492,491
491,373,491,496,492
495,371,490,492,490
493,380,492,492,490
492,401,492,492,488
493,453,491,492,492
493,516,491,492,492
494,593,493,493,491
493,635,490,494,493
493,633,491,494,491
491,610,492,496,492
492,518,491,494,492
494,426,490,493,492
492,387,491,495,494
493,370,491,491,492
495,374,490,493,492
494,385,490,493,494
494,423,492,493,491
493,482,491,493,491
493,545,490,494,491
492,619,492,492,490
492,635,492,493,490
492,624,491,495,495
493,578,492,492,492
492,471,491,494,493
493,406,490,492,492
495,372,490,492,492
493,371,490,494,492
494,378,490,491,493
491,401,491,492,491
493,446,491,493,491
493,508,492,492,490
491,580,492,492,490
492,629,491,492,492
494,634,492,494,490
494,616,490,493,490
493,530,492,494,493
493,435,491,494,492
493,393,491,495,492
493,373,491,492,493
494,375,492,493,490
493,384,491,494,494
494,416,491,492,492
493,473,491,493,491
493,535,490,492,493
492,613,492,493,492
493,637,491,492,489
494,625,492,494,492
492,587,492,494,491
492,484,492,493,492
492,412,490,493,493
493,376,493,492,490
492,371,492,494,492
494,377,490,492,492
495,392,490,492,492
493,441,491,492,492
492,500,490,492,491
493,570,491,494,492
492,627,490,493,493
492,633,493,492,491
493,620,493,493,490
493,542,491,493,491
493,445,491,494,491
493,396,491,494,491
491,372,489,493,494
492,375,491,493,492
491,383,492,494,492
490,410,489,492,493
492,466,490,493,492
493,526,489,493,490
493,605,490,491,491
494,635,490,492,492
494,628,490,494,490
492,595,493,493,494
493,497,493,494,492
492,415,491,493,492
492,382,492,494,492
492,371,492,494,490
492,377,491,494,491
493,389,489,494,491
493,432,491,494,493
492,492,490,492,492
494,560,489,492,493
494,624,491,493,493
493,635,490,492,490
494,625,492,495,492
494,555,491,493,493
492,455,491,493,492
492,401,492,493,490
492,371,493,492,492
492,373,491,491,491
494,380,492,494,490
491,404,489,492,492
493,458,490,492,491
493,519,490,493,491
491,596,490,492,491
492,636,492,493,492
492,631,490,492,492
493,602,493,492,491
494,510,492,493,491
492,422,491,492,492
493,385,492,494,492
492,372,490,494,492
493,375,492,492,493
492,388,491,494,492
492,430,492,494,491
492,485,491,493,492
493,551,489,491,490
492,620,490,494,492
491,633,490,492,492
494,625,489,492,493
495,569,491,494,493
493,465,491,493,492
493,405,491,493,491
493,368,491,495,492
491,373,492,493,491
492,380,493,493,490
491,400,494,494,493
492,452,492,492,490
492,512,492,493,490
494,587,491,492,492
495,633,490,493,492
492,633,491,494,492
491,614,489,495,492
495,521,490,493,494
492,430,491,493,493
492,388,491,493,490
492,371,491,491,491
494,374,490,492,492
494,385,491,495,491
496,420,490,492,491
492,478,490,492,492
493,543,490,494,492
492,617,491,493,491
491,636,492,493,493
494,626,492,492,491
492,581,490,494,493
493,475,491,492,492
493,408,491,492,491
494,374,491,492,492
491,371,493,492,494
493,380,491,492,492
494,395,490,495,491
493,445,491,493,491
493,506,491,492,490
492,576,492,493,490
492,631,490,494,493
494,632,490,492,491
492,620,492,492,493
496,535,491,493,493
494,438,492,493,493
493,394,491,492,491
494,369,491,494,491
492,373,490,492,492
493,383,492,493,490
492,413,490,492,490
493,470,490,493,491
492,532,490,494,492
494,608,490,494,491
492,636,491,494,493
493,630,490,494,492
493,589,492,496,493
492,490,491,495,493
494,414,492,495,491
495,378,491,495,491
493,369,491,494,493
495,377,491,494,493
494,390,490,493,492
495,437,491,494,492
493,499,490,493,492
493,567,491,493,490
493,629,491,494,492
493,635,492,494,491
492,623,493,495,491
495,548,490,494,493
494,449,492,494,492
493,398,491,492,492
494,369,492,491,493
494,373,491,492,492
493,382,492,494,491
491,410,491,496,491
492,463,493,495,492
492,523,493,495,492
492,605,494,494,491
492,636,495,490,492
491,630,493,490,492
493,596,490,496,493
492,500,490,495,493
493,416,490,496,494
495,383,490,496,494
496,372,491,499,494
495,375,491,497,492
493,390,492,496,493
495,431,492,497,493
493,490,491,493,492
493,556,492,488,491
493,622,492,494,493
493,636,490,493,494
493,624,493,494,495
495,564,491,496,493
495,459,492,494,492
492,404,492,498,491
492,368,491,502,491
491,373,491,501,493
493,380,492,499,491
493,402,491,496,491
495,457,490,493,492
494,517,491,490,491
494,595,489,489,491
493,634,491,496,494
492,633,492,501,494
492,611,492,504,493
493,517,493,505,493
493,426,491,497,494
493,387,493,493,491
492,372,493,489,492
493,374,493,486,493
493,386,491,488,492
492,424,492,489,490
491,481,490,491,493
491,548,489,493,492
494,620,491,497,491
495,635,489,496,492
494,625,490,496,492
494,577,491,498,495
494,469,491,493,492
492,407,491,487,493
493,371,489,486,493
492,372,491,489,492
492,381,492,491,491
495,397,493,494,491
493,449,492,492,491
493,509,493,492,491
492,582,491,492,491
492,631,490,493,493
493,632,490,494,490
492,617,493,494,494
495,530,492,495,493
493,433,491,497,494
492,392,491,498,493
492,373,490,500,491
492,374,489,496,493
492,382,492,490,493
491,418,490,492,491
490,472,491,495,492
491,536,489,492,492
491,611,490,491,491
491,634,491,494,493
491,626,491,492,491
494,585,492,496,492
496,482,491,497,494
495,413,491,497,493
494,376,490,497,492
493,369,491,495,493
491,380,491,492,493
493,392,490,488,493
493,441,491,486,491
493,501,490,491,491
492,571,491,491,491
492,631,492,493,492
494,634,491,494,490
493,620,494,496,492
494,541,494,499,494
493,443,490,502,494
493,396,488,501,493
495,374,490,495,490
493,373,488,491,492
493,382,489,485,493
492,413,491,490,491
493,466,496,493,492
492,528,498,493,493
493,608,499,493,491
493,634,497,491,493
494,627,495,488,493
495,590,492,492,492
492,493,489,491,493
493,415,489,494,493
492,380,489,503,494
492,369,490,500,491
492,377,492,494,491
493,389,494,501,495
493,435,491,503,493
493,495,490,502,493
494,561,490,500,495
495,624,490,500,495
495,636,491,498,494
494,620,491,492,494
492,556,491,492,492
494,451,492,496,492
491,399,492,494,491
490,371,493,493,491
492,371,491,496,494
491,379,491,495,491
492,408,492,493,492
493,458,491,493,492
495,519,490,497,494
493,600,491,496,491
492,633,492,497,494
492,631,491,499,495
497,602,495,495,491
493,506,492,488,492
493,419,493,496,492
494,385,494,500,491
490,372,496,499,495
491,376,494,496,494
491,386,492,495,495
491,428,491,495,493
493,485,489,491,492
494,553,487,483,491
494,620,491,476,489
491,636,490,483,492
493,622,490,487,492
494,565,490,495,493
493,463,491,499,491
493,403,492,505,495
493,371,492,496,493
495,373,492,497,493
494,380,492,506,497
494,403,493,507,496
495,454,489,494,493
493,512,490,486,492
491,592,491,481,488
492,632,491,472,489
491,630,490,479,491
491,612,490,488,493
492,521,491,492,492
492,427,490,494,493
494,388,490,496,492
492,372,492,503,494
494,374,489,502,493
495,384,487,499,493
492,424,492,499,494
494,479,494,489,493
493,544,496,477,493
492,616,495,492,494
492,637,494,507,492
492,627,489,501,492
491,578,492,491,493
493,474,491,501,492
492,408,492,501,492
494,372,492,494,492
495,370,491,492,493
493,380,491,495,496
494,396,493,484,493
493,447,494,480,491
492,505,494,481,489
489,578,494,490,488
489,631,494,494,491
492,633,492,506,493
495,617,490,513,495
493,533,491,517,496
495,435,490,503,494
494,392,490,484,495
494,370,492,488,492
491,374,491,480,492
493,381,489,477,489
490,413,492,472,491
492,470,491,495,492
492,533,491,505,494
493,612,491,497,493
494,636,492,489,491
494,629,490,499,494
493,586,490,496,493
491,486,491,485,492
491,411,491,483,490
490,377,493,484,492
492,369,492,491,491
492,376,493,498,494
493,390,493,500,496
495,438,493,505,496
495,501,494,508,495
494,568,490,501,492
494,628,490,490,490
490,634,492,482,488
490,621,495,479,490
492,547,495,487,492
494,445,493,488,492
492,396,493,486,492
493,368,492,481,492
493,371,489,486,495
493,381,488,491,496
493,408,491,498,495
493,464,489,502,494
494,525,489,507,492
492,607,493,515,492
493,635,493,492,492
494,628,493,494,494
492,593,493,492,493
492,499,491,471,492
493,416,491,482,494
494,382,491,487,496
493,371,491,495,496
493,379,491,512,495
495,388,492,512,491
492,432,492,488,492
492,492,495,484,490
491,556,495,465,489
491,622,492,489,491
490,636,495,499,494
494,624,492,503,494
493,560,490,502,497
493,457,489,511,495
491,401,490,492,493
490,371,490,474,493
492,371,494,484,491
492,380,491,478,490
496,402,491,491,493
494,457,493,501,496
494,517,495,501,496
494,599,496,500,497
494,636,494,500,494
493,633,494,495,492
490,607,493,492,492
491,512,492,487,490
491,422,492,479,490
491,385,491,486,489
490,368,492,487,493
490,376,491,485,491
493,383,489,482,491
493,423,489,482,492
493,483,490,494,491
492,549,491,498,494
493,618,492,496,494
493,637,495,501,493
492,625,494,488,490
492,572,495,485,493
493,468,493,492,493
492,405,491,503,495
492,371,490,491,494
494,372,491,502,494
493,381,491,511,495
492,397,492,484,494
491,451,493,505,496
492,509,489,503,491
489,583,491,476,490
489,630,493,504,491
492,630,493,492,492
495,613,498,480,492
492,527,496,483,493
492,430,495,473,490
490,390,491,480,493
491,371,488,495,493
493,374,489,507,496
495,385,487,506,493
495,418,489,502,494
494,476,489,488,490
492,538,488,483,490
492,611,488,489,493
493,636,491,490,491
492,628,491,481,490
493,579,490,483,492
492,481,491,501,494
493,411,493,502,495
493,375,496,497,497
493,372,494,488,491
493,378,495,483,490
493,392,492,483,492
492,443,494,491,492
492,502,494,493,493
492,574,491,490,493
494,629,487,497,495
494,634,488,503,497
494,620,491,494,488
491,536,490,481,491
492,440,490,496,492
493,395,491,494,493
495,369,488,492,491
493,373,489,496,492
492,384,489,492,493
490,413,491,496,493
492,467,491,496,493
494,529,491,485,491
492,608,489,490,495
494,635,491,507,492
494,628,489,496,493
494,588,490,500,494
493,493,493,491,493
492,413,492,472,490
491,376,493,472,490
489,370,496,481,489
490,377,496,489,491
491,389,495,493,491
491,437,491,494,493
492,495,490,494,492
492,564,488,484,494
495,625,486,493,495
493,635,491,501,495
492,624,493,496,494
494,551,501,499,494
493,449,504,496,494
493,398,504,482,492
493,371,502,500,495
495,371,498,500,496
494,384,501,505,496
497,406,494,496,494
492,460,491,462,489
491,520,495,464,490
489,602,498,494,491
490,634,489,496,492
493,629,485,495,490
493,598,483,491,492
493,503,485,488,494
493,418,487,503,496
495,384,488,508,496
496,371,487,498,492
493,376,488,491,493
491,384,489,482,491
491,431,490,490,492
490,487,490,482,490
490,554,493,488,490
493,622,491,487,490
493,633,491,492,492
493,625,489,491,495
495,566,491,501,495
494,461,490,498,495
494,403,489,503,492
493,373,486,481,488
493,368,487,471,489
493,380,490,485,491
492,404,491,495,493
493,454,491,503,494
494,516,492,496,494
495,591,493,497,493
492,635,492,497,494
492,633,493,479,491
489,611,494,484,493
491,519,496,489,493
492,426,495,487,493
491,387,496,500,496
492,370,493,496,494
493,374,492,498,495
493,383,486,486,491
493,421,486,494,490
493,480,488,493,492
492,544,489,493,493
492,619,490,481,490
491,636,492,485,489
492,626,493,483,495
494,576,491,494,493
494,473,492,505,493
492,406,493,501,494
493,372,496,500,494
491,370,497,479,494
490,377,498,484,492
491,399,497,502,493
497,448,495,493,496
497,510,491,510,493
494,583,488,507,490
492,630,485,489,491
493,631,489,480,490
490,616,490,470,489
490,530,493,474,491
493,434,492,490,492
493,394,492,503,496
495,372,492,511,497
497,375,490,510,496
495,386,486,496,497
495,416,488,482,490
492,473,488,463,487
492,534,490,471,489
492,614,494,493,493
494,638,494,510,495
494,628,494,527,501
495,589,491,504,499
494,485,490,483,493
492,411,488,473,492
495,375,491,506,490
493,371,489,513,493
494,377,490,499,491
494,390,490,464,489
491,438,490,466,489
489,499,488,481,489
489,569,490,499,494
491,630,490,512,498
497,637,495,525,499
498,625,497,509,497
496,545,495,474,489
492,442,490,457,489
490,395,488,481,488
487,370,487,479,491
491,372,487,480,492
492,382,490,487,493
492,409,491,487,492
493,464,492,509,494
495,528,491,525,498
496,608,494,528,496
496,636,490,481,490
492,626,490,466,488
489,594,492,482,491
493,496,491,488,492
492,416,490,495,495
492,381,491,488,496
492,371,492,483,492
490,375,492,490,492
491,387,491,507,495
492,434,496,511,496
496,493,493,495,491
495,559,491,499,491
496,625,497,506,495
494,635,496,487,492
493,621,492,477,495
492,555,495,491,492
492,454,496,494,493
494,401,497,503,495
494,373,497,501,494
492,373,494,480,493
494,378,488,484,491
491,406,479,506,491
492,456,483,478,488
492,517,487,487,491
491,598,488,487,490
493,635,489,477,490
492,630,488,485,490
491,603,492,498,493
494,510,492,511,497
497,424,493,515,499
497,385,491,482,496
494,373,489,495,497
494,377,492,517,492
490,387,490,494,490
487,427,490,478,488
490,483,490,480,490
493,549,488,482,489
492,621,492,496,493
493,636,491,507,496
496,626,493,507,498
497,571,496,484,496
495,465,496,472,494
491,405,493,491,491
490,369,493,479,488
487,370,490,484,490
486,378,492,493,489
489,400,495,503,494
494,451,495,501,493
494,511,497,494,492
491,585,497,474,491
494,631,493,477,491
494,632,486,485,493
492,613,484,500,495
495,523,488,508,497
497,432,490,510,497
497,391,490,527,494
494,373,491,512,494
497,376,491,531,495
496,385,491,502,492
492,419,490,464,492
492,477,491,471,493
493,542,489,485,491
492,616,489,474,489
489,637,491,493,492
492,626,491,492,492
493,582,492,514,499
496,478,493,522,498
495,410,490,514,495
496,374,488,487,487
492,370,490,467,486
490,377,489,476,486
489,394,492,486,490
489,444,490,483,491
491,504,490,481,490
491,577,491,491,491
491,630,490,504,495
493,633,491,512,494
493,621,492,512,494
496,534,491,489,496
496,440,491,495,495
495,394,490,501,489
490,370,493,487,489
491,374,495,484,490
492,382,499,486,491
491,413,499,490,493
493,470,496,497,493
493,531,491,485,493
494,607,485,472,491
490,635,486,492,493
492,629,487,494,493
493,590,490,503,495
493,491,491,500,494
493,412,493,496,493
493,377,494,489,495
491,370,497,498,492
492,376,497,479,491
494,389,495,473,492
494,438,496,484,492
492,497,493,487,493
494,567,491,506,494
495,630,492,514,498
495,638,499,521,496
494,625,498,501,495
492,548,489,488,491
490,446,490,470,488
489,396,492,473,487
492,367,489,474,490
493,372,484,488,491
493,382,488,492,490
492,407,489,500,494
493,464,489,505,492
492,524,488,504,492
491,604,488,480,491
493,636,489,483,491
492,630,491,490,491
493,595,491,487,491
492,503,491,487,493
492,417,491,488,493
494,384,491,490,496
495,372,491,491,496
494,374,486,496,498
495,391,488,497,495
493,430,488,476,489
492,489,489,486,487
491,556,490,498,488
491,622,491,493,492
490,635,490,505,495
494,625,494,504,492
493,564,494,506,496
494,459,495,509,496
492,404,495,493,491
493,366,490,455,487
491,371,494,476,492
492,382,493,490,491
491,400,490,477,491
492,455,491,488,492
493,516,492,485,490
492,594,489,491,495
494,635,491,496,494
494,634,494,511,493
493,611,494,494,490
492,516,490,462,491
491,425,490,480,492
490,386,490,487,490
491,373,488,489,489
493,373,487,489,493
493,385,486,487,494
493,425,489,494,495
493,482,490,512,496
494,550,492,527,496
496,618,493,512,490
493,634,491,472,489
493,624,491,478,490
494,574,490,500,494
494,470,489,492,494
495,408,491,474,494
493,370,489,484,494
492,372,491,496,492
492,381,491,522,494
496,398,490,520,491
492,449,489,486,490
493,508,490,479,489
492,581,491,479,490
492,630,492,475,492
493,632,492,484,492
491,616,494,483,493
493,529,490,481,490
492,432,488,487,493
493,391,487,500,493
493,374,489,505,493
494,374,489,490,495
493,382,491,488,491
491,419,491,495,491
493,473,491,509,494
494,537,489,495,491
493,611,489,459,488
491,634,492,475,490
491,628,489,481,492
495,585,491,488,490
493,482,491,497,492
492,412,495,500,493
493,377,497,498,495
494,369,495,489,491
492,379,500,478,492
492,392,495,486,495
493,442,491,500,495
494,502,487,505,491
491,572,490,480,491
493,630,487,503,493
494,635,489,515,495
496,620,493,510,493
496,540,490,474,489
493,441,491,479,489
490,395,492,481,492
492,369,491,470,488
492,372,488,486,491
491,381,489,487,491
492,411,491,494,492
493,465,490,501,493
493,527,491,497,492
492,608,492,475,492
494,633,493,479,492
493,628,493,496,492
494,592,492,506,493
494,495,492,498,498
496,415,489,499,496
494,381,487,497,490
491,369,490,485,491
493,376,490,490,489
491,387,490,468,489
489,434,490,479,490
491,494,491,489,490
490,562,489,490,494
491,624,491,497,494
490,635,492,497,494
493,622,491,490,495
496,555,493,480,492
493,451,492,486,489
490,397,491,497,491
493,369,489,487,491
495,372,489,494,491
492,382,489,493,493
494,406,491,489,490
491,460,490,498,492
491,520,490,501,493
491,602,492,506,496
497,636,493,506,497
496,630,494,482,495
493,603,492,485,489
495,507,492,487,490
493,422,489,485,490
493,386,489,485,492
493,371,491,484,491
492,377,489,491,491
494,386,490,485,489
491,429,491,493,491
492,488,490,498,491
492,553,494,502,493
492,623,498,491,493
494,637,499,486,491
493,625,496,473,491
492,567,493,480,491
493,463,492,483,492
492,403,491,484,491
492,371,486,484,492
494,371,486,487,490
492,378,487,490,491
493,399,488,488,491
494,453,489,491,490
492,511,489,489,492
492,591,492,493,493
492,635,490,497,493
492,632,491,501,494
492,614,491,505,495
494,524,490,503,494
496,428,491,506,494
494,390,490,495,493
492,370,491,490,493
493,374,490,487,492
492,384,489,474,490
489,420,493,471,490
491,477,491,487,490
492,543,492,501,493
491,618,493,513,494
494,636,491,501,491
494,625,490,471,492
493,576,491,481,492
493,476,490,499,492
493,408,491,499,493
494,372,490,476,491
492,371,490,481,490
493,377,491,481,491
491,398,490,483,492
494,447,492,489,491
492,506,492,488,490
492,577,491,487,490
493,630,491,490,493
492,633,492,499,496
495,618,489,503,494
494,535,490,494,495
493,435,488,491,495
493,394,490,503,496
495,375,490,512,494
496,374,491,501,490
494,383,488,476,488
492,412,490,478,493
492,469,490,483,493
493,532,489,483,488
490,611,491,493,489
490,635,490,490,490
492,629,491,489,492
489,586,491,482,491
489,486,491,493,493
491,411,490,495,493
492,375,492,497,496
491,371,491,489,492
497,375,489,477,492
496,389,489,487,493
494,439,490,489,493
493,499,491,490,491
493,569,490,490,492
495,627,489,486,490
492,633,492,487,489
494,620,492,488,490
494,546,490,489,491
494,447,491,492,491
494,396,491,494,491
493,370,489,496,493
493,374,490,491,493
492,382,491,488,492
492,407,491,485,490
491,464,491,496,492
493,525,489,504,491
494,605,492,502,494
495,634,490,484,494
494,628,489,480,492
491,599,490,486,493
493,500,492,489,493
493,417,491,485,494
492,383,490,487,495
492,370,491,488,494
492,378,491,495,495
493,388,488,489,494
491,431,489,493,496
493,492,490,498,494
493,555,489,492,496
494,623,490,494,495
493,635,492,492,486
492,624,491,491,487
494,559,491,493,487
492,456,491,488,489
492,400,492,481,490
493,371,493,494,492
493,374,491,506,491
494,381,490,497,490
496,403,489,501,493
493,456,489,508,492
494,516,489,503,495
495,595,490,487,495
492,634,490,465,493
494,631,492,491,491
493,608,496,490,490
492,513,497,467,492
493,423,495,487,493
494,389,491,488,491
493,369,489,489,492
492,377,491,488,497
492,386,489,487,498
492,425,490,488,496
493,483,490,486,492
493,548,492,491,491
491,618,490,493,496
493,636,492,497,497
494,625,491,499,499
495,572,490,505,498
494,471,492,504,498
496,406,491,501,490
494,371,490,490,480
492,373,493,485,484
490,379,493,489,486
490,400,490,478,488
492,448,493,479,488
491,509,490,483,488
492,584,489,486,488
494,631,489,490,491
493,632,489,491,492
492,616,490,484,489
494,525,493,489,491
493,431,493,490,490
493,391,494,492,490
491,372,492,489,489
492,373,489,488,490
492,385,491,487,490
494,416,492,492,491
492,477,490,493,490
493,539,489,492,492
492,613,488,488,493
492,637,489,491,491
494,628,492,496,491
495,581,492,493,492
492,480,495,495,493
493,410,492,493,491
493,372,492,489,493
492,373,494,488,492
493,378,496,492,491
492,396,494,485,493
491,444,494,488,492
492,504,495,491,493
491,574,494,487,493
494,631,491,488,492
493,631,489,491,493
492,621,485,486,490
495,537,488,491,491
494,439,489,483,491
493,395,492,479,490
492,370,490,486,493
494,372,490,488,492
492,385,492,494,490
492,413,493,494,491
492,469,490,496,492
493,531,489,492,489
492,606,490,494,491
491,636,490,496,492
494,629,490,489,493
493,590,490,489,493
493,493,492,498,492
494,415,491,507,494
496,379,491,505,494
493,372,492,479,489
493,377,492,475,490
491,389,492,483,491
493,436,490,491,492
493,496,491,489,491
492,565,492,493,492
494,628,491,489,491
491,635,492,490,490
491,623,492,479,491
495,551,491,489,491
492,449,491,493,492
494,398,492,487,491
494,370,492,490,492
494,372,490,492,493
495,383,492,493,491
494,407,490,492,491
492,461,491,492,491
492,522,491,496,491
491,602,492,491,491
491,634,491,488,492
493,631,492,483,489
493,600,491,494,492
494,504,492,494,491
493,419,491,492,490
493,383,490,488,490
495,371,490,487,490
493,375,492,485,492
491,388,491,488,492
494,432,492,495,491
492,488,491,494,490
492,553,491,495,490
493,624,490,500,491
494,635,491,501,490
492,626,492,496,493
496,567,491,491,492
494,460,491,481,493
493,403,490,488,491
494,370,491,495,489
491,371,490,494,493
493,380,491,482,490
492,400,492,481,489
493,453,491,487,489
493,515,492,488,492
493,592,490,488,492
494,634,491,494,496
495,634,492,494,496
493,613,492,496,495
493,520,492,498,496
494,428,490,495,495
493,388,492,487,494
493,372,492,491,490
495,375,491,486,487
494,384,490,486,489
494,421,490,490,491
492,481,491,489,493
491,543,490,489,493
492,620,491,491,494
492,637,493,493,495
493,626,493,494,496
494,579,492,495,487
494,472,493,493,490
493,408,491,491,490
495,373,490,489,489
494,371,490,491,490
493,379,491,489,490
494,400,492,494,489
493,445,490,493,491
493,508,491,494,491
493,581,492,491,493
493,630,491,492,495
494,632,490,496,491
493,621,490,499,492
495,532,492,504,492
494,436,491,499,494
493,394,492,494,493
492,372,492,487,490
495,374,491,487,489
494,384,493,497,492
494,417,492,493,491
494,473,492,498,492
494,535,491,497,495
496,611,493,491,495
492,638,491,480,495
493,626,490,477,499
492,588,493,487,492
493,486,493,491,496
493,412,493,492,498
493,377,490,489,492
493,370,491,497,494
492,377,491,497,502
496,393,491,497,502
495,441,492,498,494
494,500,491,491,494
493,570,492,493,501
493,631,493,497,499
495,635,493,499,492
494,622,495,494,488
493,544,494,492,493
493,445,492,495,493
494,397,491,494,490
492,372,492,487,489
493,373,491,487,481
492,382,492,490,483
491,409,491,490,484
494,464,491,488,485
492,526,490,489,490
493,606,492,490,494
495,635,490,490,498
494,628,490,492,502
495,597,492,496,500
495,498,492,496,490
493,416,492,496,491
494,383,491,496,495
493,372,491,491,488
492,377,491,491,487
493,388,489,491,487
493,433,492,488,491
493,492,489,486,496
495,560,490,484,496
495,624,491,490,501
496,636,492,496,501
495,625,493,499,504
495,561,494,500,493
495,456,494,500,501
494,403,493,499,501
494,374,494,497,500
493,374,490,496,508
494,381,491,493,505
491,406,491,490,498
493,458,490,491,484
493,518,490,487,477
492,596,488,486,473
494,633,490,491,479
492,630,490,491,484
493,605,494,492,485
494,512,493,493,490
493,423,493,493,495
493,386,491,492,492
493,373,493,493,495
494,377,492,492,492
494,388,490,494,487
493,429,491,493,484
494,485,491,493,495
492,551,490,492,498
492,623,494,494,500
494,637,493,495,500
496,626,492,493,501
496,571,492,492,479
494,465,492,492,477
494,406,489,490,480
493,370,492,491,482
492,373,491,494,492
493,382,492,494,496
492,402,493,492,486
493,450,490,491,486
493,511,492,492,490
491,589,490,489,487
495,633,489,491,490
494,633,490,493,493
493,614,490,494,495
494,524,492,494,502
494,432,492,497,507
495,389,492,496,507
494,375,494,496,507
495,376,494,496,504
493,384,493,495,482
492,422,490,489,479
494,477,491,490,486
493,542,490,490,482
493,616,490,493,485
492,637,491,495,494
494,627,489,494,502
492,583,494,494,499
494,478,493,492,500
493,410,492,493,491
494,373,492,491,481
494,370,493,492,489
492,380,492,493,491
493,395,494,493,488
493,446,489,494,487
493,506,489,493,489
492,578,491,494,487
493,631,491,494,491
494,635,490,492,489
495,622,491,496,490
496,536,490,492,490
495,440,491,491,493
494,395,490,494,495
493,370,492,491,492
492,376,493,492,495
494,383,493,494,493
493,414,493,493,490
493,470,493,493,489
493,530,492,494,491
492,609,490,491,493
492,637,493,492,494
493,631,497,494,495
494,592,498,495,495
493,492,499,495,494
494,413,497,493,496
493,381,495,493,499
494,369,492,490,500
495,377,488,494,492
495,390,488,493,487
495,437,489,494,488
493,499,489,494,490
493,567,487,492,490
494,627,487,494,492
493,637,489,494,491
492,623,491,495,490
493,551,490,495,494
495,450,491,494,493
493,399,491,496,493
495,370,488,493,492
494,375,489,494,493
493,384,490,495,491
494,407,493,494,491
493,465,494,493,491
493,524,497,493,491
493,604,500,493,491
494,635,500,493,493
495,632,499,495,492
497,598,494,493,491
493,503,494,494,494
493,418,490,495,494
494,385,489,496,493
492,372,486,496,491
492,376,483,494,493
495,389,488,494,491
493,431,487,495,492
493,489,487,493,492
494,556,488,493,491
496,622,488,495,492
494,635,490,495,493
493,627,490,494,493
495,566,492,496,493
494,461,493,495,492
493,404,495,494,491
493,370,491,494,493
494,373,491,494,491
492,382,491,494,493
495,402,487,493,494
494,457,488,493,494
493,515,489,494,492
493,592,489,495,494
492,634,490,494,493
492,632,492,494,492
494,611,493,493,491
494,517,492,496,492
493,427,492,495,494
493,390,492,493,492
495,371,492,496,491
493,376,489,496,493
494,387,489,496,494
493,425,491,495,492
493,481,490,494,492
493,549,491,495,493
494,617,490,493,492
493,635,492,493,492
495,626,491,494,492
495,575,493,498,494
494,473,494,496,496
496,409,495,496,491
494,374,490,494,493
493,373,491,495,492
493,381,490,495,490
494,397,489,493,489
492,450,490,493,489
493,508,488,494,490
493,582,490,494,491
493,632,491,493,493
494,632,492,493,493
495,619,494,497,496
496,530,496,496,494
494,433,493,495,494
494,392,489,493,493
495,370,487,494,493
494,374,487,496,491
492,385,486,493,491
495,419,490,495,492
493,473,489,493,491
494,538,490,493,493
493,612,489,493,493
493,636,490,494,494
493,630,490,493,490
495,582,491,497,494
492,484,491,496,492
492,413,491,495,490
493,377,489,494,492
493,371,489,493,491
493,380,490,496,491
494,391,489,493,492
495,442,489,493,490
494,502,490,494,492
493,571,489,495,491
492,630,490,495,493
493,633,490,492,492
491,623,492,498,493
492,544,492,496,492
493,444,491,496,490
493,396,490,495,491
493,371,491,496,490
492,374,489,494,493
494,383,489,494,494
494,412,489,494,492
493,466,490,495,492
493,528,490,495,492
494,606,490,493,491
492,636,492,494,492
494,629,491,493,492
494,592,492,493,492
492,497,491,496,493
493,416,492,496,491
493,381,490,495,494
494,371,490,496,493
492,379,491,496,491
492,391,492,497,492
494,434,489,494,491
493,494,493,494,492
494,562,493,493,491
494,625,492,493,492
494,634,493,494,492
493,623,494,496,490
493,556,488,496,493
493,452,487,495,493
493,399,488,497,492
493,373,489,496,490
493,373,491,495,493
493,381,489,495,490
494,404,490,495,491
492,458,490,495,492
493,519,489,494,492
494,599,489,494,493
493,633,490,494,492
493,632,491,496,492
495,600,490,497,491
492,509,491,496,492
494,424,491,495,491
494,386,490,495,490
493,370,490,497,491
492,376,489,495,492
492,388,493,496,493
493,429,489,496,493
493,487,490,495,493
493,554,491,496,493
495,619,489,494,492
493,636,491,496,493
492,623,490,494,492
495,568,490,495,492
494,465,491,496,491
494,404,492,496,490
494,372,488,495,491
494,371,490,497,492
492,381,491,496,491
492,404,491,496,491
493,453,490,495,491
493,512,489,494,490
494,592,489,496,491
494,632,490,496,492
494,632,489,496,492
493,613,490,496,493
493,522,492,496,492
493,428,491,496,492
493,391,489,494,493
494,372,491,494,491
493,375,491,494,491
494,385,489,494,489
494,422,490,497,490
494,478,490,495,490
492,544,492,495,493
493,617,490,496,493
492,637,491,495,492
492,628,492,495,493
495,578,493,496,491
494,475,490,496,492
493,408,490,496,491
494,373,490,494,492
495,372,490,495,492
493,379,492,496,493
493,399,489,492,492
493,446,491,497,492
493,506,489,496,491
492,579,491,496,491
492,631,491,495,490
494,633,491,496,492
495,618,490,494,491
492,536,492,496,492
494,436,490,495,492
494,394,487,496,494
494,372,488,495,490
494,372,490,496,490
492,384,489,494,492
492,414,491,495,491
491,472,490,495,491
492,533,491,493,490
491,611,490,497,493
494,636,489,495,490
494,628,490,497,493
493,587,489,497,493
493,488,491,496,492
493,414,491,495,492
495,378,492,496,490
493,371,491,496,491
493,376,491,495,492
495,389,489,494,492
495,439,490,495,491
493,499,489,495,491
492,567,491,496,492
493,628,492,494,492
492,635,494,497,491
493,622,495,496,491
492,549,495,496,491
493,446,491,496,491
493,397,489,496,492
491,373,489,495,492
494,372,490,495,493
494,383,491,495,494
493,409,491,495,490
493,463,489,495,491
494,524,488,495,491
492,605,490,496,490
493,634,488,494,490
495,629,489,493,490
492,598,491,495,493
494,501,491,497,492
493,418,489,497,493
493,383,490,496,494
492,372,490,496,492
492,379,491,496,491
494,387,490,495,490
493,432,492,495,492
493,491,491,495,491
493,556,490,494,491
494,623,490,495,492
494,635,491,495,490
493,625,489,496,494
494,559,490,496,492
493,457,490,496,492
492,402,490,496,491
492,373,492,496,493
493,372,490,495,491
494,379,491,497,492
492,401,489,495,492
493,456,490,495,491
494,516,489,495,492
494,595,491,495,490
492,634,490,495,493
495,630,489,497,489
492,607,492,497,491
493,513,491,496,492
493,425,491,495,491
493,386,491,497,492
491,369,489,494,492
493,377,492,494,493
492,386,489,496,494
492,426,490,496,492
493,484,490,496,489
493,546,489,496,488
492,620,489,496,490
493,634,490,494,489
494,624,489,494,492
495,573,490,495,495
494,470,492,496,493
494,406,490,496,492
494,372,492,497,492
491,373,492,497,491
492,380,492,496,491
492,400,493,496,493
493,450,491,496,492
493,510,489,495,490
494,584,489,494,491
494,632,490,496,493
493,634,491,496,493
492,617,492,497,491
494,525,492,496,493
493,432,491,494,491
494,390,492,496,491
491,372,491,495,490
494,374,491,493,491
493,386,490,497,492
493,416,489,494,491
492,476,489,495,491
493,539,489,495,492
493,614,489,495,491
493,637,491,494,492
494,626,492,496,491
492,582,490,496,493
493,480,491,496,492
493,409,490,495,492
494,375,489,492,492
492,372,492,494,493
493,379,490,495,492
494,394,491,497,493
492,444,490,495,491
493,502,490,495,491
493,575,491,495,490
492,630,491,496,492
494,632,490,494,491
492,622,492,495,493
495,538,490,496,492
494,441,491,495,491
493,396,491,494,490
493,369,491,497,491
492,374,490,495,491
493,382,493,495,491
493,411,491,495,492
493,468,490,494,490
493,530,491,496,491
495,606,489,495,490
493,636,491,496,492
491,630,491,497,492
492,592,491,497,493
493,494,491,495,491
493,414,492,496,491
493,379,490,495,490
493,368,491,493,492
493,375,489,495,492
494,388,489,494,493
494,437,490,495,490
493,494,490,495,492
492,563,490,492,490
491,628,491,495,490
492,635,492,495,490
493,623,492,495,490
493,555,491,497,491
494,450,491,496,491
493,401,490,495,491
494,370,490,495,494
493,374,491,496,493
492,383,491,494,491
495,407,493,496,491
494,461,490,494,491
492,522,491,494,490
493,599,492,494,491
494,634,490,494,490
493,631,493,495,493
494,600,494,495,491
493,507,491,496,491
493,419,491,496,491
492,385,491,496,491
492,372,491,496,490
493,376,490,495,491
492,386,492,495,493
492,430,492,494,489
493,487,493,493,491
493,552,490,493,492
495,621,493,494,491
492,636,492,496,492
493,623,488,493,491
492,567,491,496,492
493,461,490,496,493
492,403,491,495,494
494,371,491,494,492
495,370,493,496,491
493,380,491,494,493
494,402,491,496,493
493,453,490,494,492
493,513,491,494,491
491,591,490,496,492
494,633,489,494,491
493,630,491,494,491
494,609,491,495,491
495,518,490,495,492
493,428,490,496,491
492,388,491,495,493
492,373,491,494,492
492,376,490,496,492
492,385,490,496,492
491,423,491,495,491
493,479,490,495,491
493,543,489,495,492
492,615,491,494,491
494,633,490,495,492
494,626,489,495,493
495,579,493,495,491
492,473,491,496,493
494,407,491,496,491
491,374,492,497,490
492,370,492,494,490
493,378,492,495,492
492,398,491,493,491
493,448,489,494,492
493,506,490,495,492
493,580,489,495,493
493,632,490,496,491
492,633,492,496,491
494,616,490,497,491
492,532,491,496,493
494,435,493,495,492
492,391,494,495,493
494,369,493,494,491
495,377,496,496,489
493,384,493,495,489
493,415,493,495,492
493,473,489,495,492
492,535,487,495,492
492,612,487,493,495
494,636,489,495,493
493,629,490,496,491
494,584,490,494,491
494,485,490,496,492
493,412,489,495,493
493,379,492,495,493
492,371,490,494,492
494,377,491,496,491
491,394,492,495,491
491,439,491,495,491
492,499,490,494,490
493,570,490,495,492
493,627,489,494,491
492,634,492,495,492
493,621,489,496,494
493,545,491,496,493
494,445,491,494,491
493,395,492,497,491
492,369,489,495,493
493,372,492,493,491
493,380,490,494,491
495,408,490,494,492
492,466,491,494,492
493,525,490,494,490
492,606,490,495,491
492,637,492,496,491
491,630,492,496,491
491,596,491,494,494
494,498,493,497,491
493,416,490,495,490
494,380,491,493,490
493,370,490,494,493
494,376,490,494,492
493,390,488,494,489
492,432,489,494,492
493,493,490,493,491
492,561,491,495,490
491,625,491,495,491
493,634,490,493,490
493,626,491,496,490
495,556,490,496,494
493,456,490,495,492
493,400,490,495,493
492,370,489,495,493
491,373,489,493,491
494,381,492,496,490
495,403,489,494,491
493,458,491,494,491
492,516,490,493,492
493,595,489,492,492
492,635,491,496,492
493,631,491,494,491
494,606,490,497,493
492,512,491,496,492
492,422,490,496,492
492,387,492,495,491
495,372,490,495,490
493,374,492,496,493
492,388,491,494,491
494,426,491,495,491
493,485,491,494,491
493,550,490,493,489
493,621,489,495,492
494,635,489,495,490
492,626,492,496,490
492,572,493,495,492
492,467,491,495,492
493,406,491,494,491
494,369,491,497,491
492,372,490,495,493
493,381,490,495,493
492,401,490,495,492
492,450,489,494,491
492,511,490,495,492
494,586,488,494,490
492,632,491,494,491
494,631,490,494,492
494,613,490,494,493
495,526,492,496,492
492,430,491,495,493
492,390,491,494,492
492,374,491,496,490
492,376,493,496,491
493,385,493,496,493
494,419,491,494,491
492,476,488,494,492
492,540,488,493,490
494,614,489,495,492
493,636,489,496,493
493,626,491,493,491
492,583,492,496,493
494,477,491,495,492
493,411,492,495,491
492,375,492,495,489
493,369,490,495,491
492,380,490,493,492
493,398,491,496,491
492,444,489,493,490
493,503,490,494,490
492,575,489,496,492
492,630,491,495,492
494,632,490,496,490
492,618,489,496,495
494,536,491,496,493
492,439,490,495,491
493,392,490,493,493
495,373,493,494,490
493,374,491,495,490
494,381,491,496,492
492,414,493,495,490
493,469,491,494,490
492,530,491,494,492
493,609,492,494,490
493,636,491,496,491
494,626,489,494,492
495,587,489,495,493
494,490,490,495,494
493,415,490,494,492
492,380,490,494,490
494,368,491,495,490
492,378,491,494,489
492,390,492,494,490
492,435,490,494,492
493,497,490,494,493
493,563,489,493,490
491,629,491,493,492
493,635,491,494,492
492,623,491,497,494
492,552,491,494,491
494,448,491,495,491
492,396,490,494,493
493,370,493,492,490
494,370,491,491,491
494,380,490,492,491
491,409,492,497,492
493,461,491,494,492
492,521,490,496,492
492,603,490,497,491
492,635,491,495,490
492,628,490,495,494
494,597,492,494,492
492,503,490,496,492
494,417,491,494,491
494,383,490,494,492
495,370,490,495,493
494,378,491,494,491
494,386,490,497,492
492,429,489,494,492
493,489,490,495,490
492,555,491,494,490
492,622,491,493,491
492,637,491,495,492
494,623,489,497,491
492,565,490,494,492
494,460,491,495,492
492,402,491,496,493
492,372,491,492,491
494,373,492,495,490
493,379,490,494,490
492,403,492,493,490
493,454,491,494,491
492,514,489,494,491
491,594,491,493,492
493,633,491,494,491
493,632,491,496,493
491,610,491,496,491
492,517,492,496,492
493,426,491,495,490
494,388,490,494,490
492,371,492,495,492
492,376,490,493,492
493,385,490,493,492
495,423,490,494,492
494,481,490,494,491
493,547,490,495,492
493,616,491,494,490
492,636,492,494,489
492,626,493,494,490
493,576,494,494,493
494,472,492,495,491
492,406,491,496,492
492,371,489,492,491
494,372,488,494,492
493,380,489,495,493
492,397,489,493,491
492,450,490,495,491
492,507,489,494,490
492,584,491,494,490
491,632,491,493,491
493,632,490,493,491
494,616,491,496,492
491,530,491,495,492
492,435,491,495,492
493,394,491,495,492
493,372,491,496,491
491,375,492,495,493
494,384,490,495,489
491,416,491,494,493
493,474,492,493,491
492,536,491,493,490
494,611,490,493,492
494,636,490,493,491
492,629,490,495,490
493,582,489,496,492
494,484,490,495,492
492,413,491,495,491
492,377,492,493,493
494,371,491,493,490
494,379,491,496,492
495,392,490,493,493
495,441,490,494,491
492,501,490,494,492
493,570,489,494,490
492,630,490,495,491
491,634,490,494,493
495,622,492,496,491
493,543,492,495,492
492,442,491,495,491
492,396,490,495,493
493,370,491,493,491
492,373,492,493,492
494,383,490,494,492
494,410,490,494,492
492,465,490,493,491
493,527,491,494,490
492,605,490,493,493
493,636,491,494,491
494,629,491,492,491
494,592,492,494,492
492,498,491,496,492
493,416,492,495,491
492,381,491,494,494
494,372,491,494,493
493,379,492,495,492
490,391,492,496,491
491,433,492,493,490
493,494,491,494,491
493,560,488,493,489
493,625,490,493,490
494,634,489,493,491
494,622,488,497,492
492,559,489,494,493
493,453,491,495,492
493,400,490,495,492
493,371,489,494,492
491,373,491,496,492
494,379,489,493,490
491,407,491,492,493
492,457,490,494,491
491,519,490,493,489
492,598,491,493,489
493,632,490,494,491
492,629,489,492,492
491,604,492,496,492
494,507,490,495,491
493,420,490,494,491
493,384,489,493,490
494,371,489,492,490
492,376,489,494,490
492,385,492,493,490
492,428,490,494,492
492,485,490,494,491
491,550,490,494,490
493,619,489,495,492
493,633,490,495,490
490,625,490,493,493
495,569,491,495,491
493,464,492,495,491
491,404,491,494,490
494,373,491,495,490
492,371,488,494,491
492,378,488,493,490
494,399,488,492,490
492,451,489,493,490
492,512,489,494,491
491,589,490,492,490
492,632,490,494,491
491,631,492,494,490
491,614,492,497,492
490,522,491,496,493
494,427,490,493,491
492,390,493,495,492
495,369,492,492,490
493,373,491,492,491
492,384,489,493,491
493,419,491,495,491
492,478,489,493,490
491,543,490,494,493
494,616,489,494,492
493,637,490,494,492
493,626,490,495,491
491,580,492,494,493
493,476,492,495,491
491,407,490,495,493
494,374,488,493,492
492,372,490,495,492
492,377,491,493,491
491,399,490,495,491
493,444,490,494,490
493,505,491,493,491
492,578,491,493,490
493,629,490,493,491
493,632,492,495,491
492,618,492,493,490
492,536,493,496,492
493,437,493,494,491
494,394,493,494,491
495,370,491,494,490
494,374,490,495,492
491,385,489,493,491
494,415,489,494,492
493,472,489,494,491
492,533,491,493,489
492,611,489,495,493
494,635,490,494,491
492,629,492,495,493
495,588,489,495,493
494,490,491,495,492
493,413,490,495,492
494,376,492,496,491
492,370,490,494,492
494,376,490,494,491
494,390,490,493,491
494,439,491,494,490
493,498,491,493,491
492,568,491,493,492
494,627,492,495,490
493,635,490,495,493
494,623,489,494,493
494,548,490,495,492
493,447,491,494,491
494,399,490,495,490
493,369,491,495,491
491,374,492,495,491
492,383,491,495,489
492,407,492,495,492
493,463,491,493,491
493,524,491,494,490
494,602,489,493,493
493,636,490,494,492
492,630,491,495,492
493,594,490,494,493
492,503,491,494,491
492,417,491,494,491
493,382,492,492,490
493,369,491,493,491
494,376,491,494,492
493,389,493,495,490
494,432,491,493,490
492,490,491,494,492
492,559,490,495,492
492,625,491,494,491
492,634,491,495,494
493,624,491,494,491
493,563,491,496,493
492,456,491,495,492
493,401,490,494,491
495,370,490,493,491
493,372,491,494,494
494,383,491,493,492
493,402,492,495,492
492,457,491,494,490
493,518,490,493,490
492,594,490,494,493
493,633,491,492,491
492,632,493,495,493
493,606,491,494,494
494,516,493,495,492
493,426,492,495,491
492,388,492,493,491
494,370,491,495,489
492,376,488,494,493
493,385,490,493,492
494,424,489,493,491
493,483,490,493,491
492,549,490,494,493
495,618,489,493,490
493,635,490,495,492
491,627,491,496,492
492,576,492,495,491
492,470,490,495,492
493,406,491,494,491
493,372,490,495,491
493,369,489,494,493
494,379,490,494,492
495,399,489,494,491
493,449,491,494,492
493,509,491,493,491
493,586,491,495,492
492,632,491,494,491
493,632,492,493,491
494,616,492,494,490
493,528,491,495,492
493,433,491,495,491
492,392,491,494,493
495,370,491,494,492
492,376,491,495,492
491,385,491,492,490
495,419,491,493,490
493,474,490,494,491
492,538,490,493,490
493,613,490,492,491
494,635,489,493,490
492,627,491,494,493
495,584,493,494,491
492,481,490,495,492
492,410,490,494,492
492,378,491,496,492
492,369,490,494,494
493,378,492,494,493
492,396,490,494,491
493,441,490,494,491
493,502,490,493,491
494,572,489,493,493
495,630,491,494,491
494,636,491,496,491
495,620,490,493,491
493,542,491,496,493
493,442,491,495,491
493,396,492,494,493
495,371,489,492,491
494,373,491,495,490
491,381,489,493,492
495,410,489,493,492
493,468,490,493,491
493,529,491,493,490
493,608,490,494,492
494,635,490,495,489
492,629,492,494,490
493,592,493,494,492
493,495,492,495,491
493,414,491,493,492
494,382,492,496,491
494,370,489,494,493
493,377,490,494,492
493,391,490,495,491
492,435,492,495,491
493,495,492,493,491
492,563,492,493,493
493,625,494,493,492
494,633,492,492,492
495,622,492,493,492
495,555,491,495,491
494,451,488,495,491
493,399,490,496,493
493,371,490,496,492
492,374,492,495,491
493,382,492,493,493
494,405,491,493,492
491,461,490,494,491
493,519,490,493,491
494,598,488,492,491
494,634,489,493,492
492,630,492,494,494
493,602,490,494,491
494,508,492,496,493
493,420,491,495,492
493,386,492,496,494
492,372,492,495,491
492,375,489,494,493
493,387,491,494,493
493,429,490,494,490
492,486,490,494,491
495,552,490,493,491
495,620,490,494,490
493,635,490,495,493
493,625,491,493,490
492,569,491,496,493
492,463,492,494,493
492,404,492,495,491
494,370,490,493,492
493,371,490,495,492
492,382,490,494,492
495,400,490,494,492
495,454,490,493,492
493,514,491,493,491
492,592,490,494,493
494,633,490,493,490
493,633,491,495,492
491,614,491,496,493
493,522,491,495,493
494,428,491,494,492
493,388,492,496,492
491,369,490,493,492
492,375,492,495,491
492,385,491,495,490
492,422,492,494,492
493,478,490,493,491
493,543,490,494,492
492,618,491,493,492
493,635,490,493,493
494,626,489,494,493
495,579,493,493,492
492,473,491,495,492
493,408,490,493,492
492,375,491,496,492
492,371,492,494,490
493,380,492,493,492
493,398,490,493,491
492,445,490,494,492
493,506,490,493,491
494,578,489,493,492
494,631,489,494,493
494,634,490,495,492
494,617,492,493,493
493,534,491,494,491
493,436,492,496,493
493,393,494,496,492
493,373,493,495,491
493,375,493,494,493
494,382,493,495,489
494,415,489,494,489
492,471,490,494,489
493,533,489,493,488
494,610,491,493,488
493,637,490,493,491
494,626,491,495,493
493,585,491,493,494
494,486,492,494,495
493,412,490,493,492
494,380,491,496,492
494,369,488,493,491
492,379,491,494,492
494,392,489,494,493
493,438,490,493,493
493,499,490,493,493
493,569,492,494,491
493,629,491,495,492
495,633,490,493,491
492,623,492,497,493
492,547,492,496,493
493,446,490,494,490
493,396,490,495,492
492,372,489,493,493
493,373,491,493,490
492,382,492,494,490
493,409,490,492,490
492,465,490,493,491
492,524,490,492,490
493,607,491,492,492
493,636,490,494,492
491,629,491,494,492
492,596,490,493,491
494,498,492,495,491
492,415,489,493,493
492,380,492,492,489
492,368,489,493,492
494,377,489,494,492
494,390,488,493,490
493,431,490,494,491
492,491,491,494,491
493,559,492,493,489
492,624,490,492,491
493,633,489,492,492
494,624,491,495,492
494,557,490,494,492
492,457,491,494,492
493,401,490,494,494
492,371,490,494,491
491,373,491,493,491
493,380,489,494,489
490,403,489,493,492
492,458,492,494,490
492,516,491,493,491
493,593,488,490,490
492,634,492,494,491
492,631,491,492,492
495,604,491,496,492
492,513,493,495,493
493,422,492,494,491
493,386,492,493,489
491,372,491,494,491
495,374,490,493,491
492,387,493,493,492
492,426,488,494,491
492,482,487,494,491
492,550,489,493,491
495,618,492,493,491
494,637,491,495,493
495,624,491,493,491
494,570,491,494,493
495,469,492,495,491
491,407,491,495,491
494,370,491,496,491
492,374,489,495,493
493,380,489,494,492
493,400,488,494,492
493,450,490,493,489
493,510,489,494,491
494,585,489,493,492
492,633,491,494,490
492,632,492,494,490
491,616,493,495,491
492,526,492,494,493
494,430,492,493,492
493,391,491,495,491
494,369,490,493,492
493,374,489,493,492
493,384,489,493,494
491,418,491,493,492
491,475,490,494,491
493,540,491,495,490
491,616,490,494,490
492,635,491,494,491
492,627,490,494,493
495,582,492,495,493
494,478,491,494,491
492,410,491,494,490
493,374,492,496,491
492,370,490,493,493
493,380,490,492,491
494,393,490,495,491
492,443,490,493,490
493,502,490,493,490
493,573,488,492,491
494,630,490,494,493
494,631,492,491,493
491,620,490,492,492
495,537,491,496,493
493,438,492,495,492
492,395,491,496,491
492,372,490,493,492
495,373,491,496,489
494,382,490,493,489
491,413,491,494,490
492,467,489,494,492
492,530,491,494,491
494,607,490,495,492
491,635,489,494,494
494,629,492,494,491
491,591,492,496,491
493,491,490,495,492
494,413,490,493,493
492,379,493,495,493
494,370,490,493,490
494,376,492,493,491
493,388,491,492,491
494,435,491,492,491
493,497,492,494,490
491,564,491,494,493
493,626,490,492,490
492,635,492,495,489
492,622,493,496,490
492,553,493,495,491
494,450,491,495,490
493,397,491,495,494
492,370,491,493,492
494,372,489,493,493
494,381,489,493,495
495,408,491,493,492
493,461,490,494,492
493,522,491,495,492
492,604,491,495,492
492,636,493,495,491
492,630,493,494,493
495,600,493,494,491
493,504,491,494,493
492,419,491,493,492
494,383,491,493,492
495,371,490,494,493
494,377,490,495,490
493,387,492,496,492
492,431,489,493,490
494,492,491,495,490
492,555,492,494,490
492,623,492,492,492
494,637,491,495,493
493,623,489,493,493
492,567,492,494,493
494,460,491,494,493
493,403,490,495,493
492,371,489,492,491
493,371,492,495,491
491,378,489,493,493
491,403,492,492,490
492,454,491,493,490
492,513,490,493,491
492,593,490,495,490
494,631,489,494,491
492,630,490,494,494
492,610,490,495,494
492,517,492,495,493
493,426,491,494,492
492,387,490,493,492
491,371,492,494,493
493,376,491,491,491
494,384,491,493,490
494,421,490,493,491
493,481,491,494,490
492,545,489,493,492
493,617,491,492,491
492,638,491,494,491
492,626,492,495,492
491,578,492,494,492
494,471,491,494,492
492,406,492,494,493
492,373,491,492,491
494,370,490,493,491
494,378,490,493,491
495,396,492,492,490
493,447,490,493,491
492,507,490,493,491
492,583,491,494,491
492,631,492,493,490
492,631,492,492,489
493,616,493,495,493
492,532,492,494,492
493,435,491,494,492
494,392,491,493,493
494,370,490,494,492
492,375,490,494,492
495,383,490,492,490
491,417,492,494,492
494,472,491,493,491
492,537,492,492,490
493,610,491,492,492
493,635,490,494,491
491,628,490,494,493
492,585,492,494,493
493,485,490,493,491
493,411,490,494,492
491,377,490,495,491
494,370,489,493,489
492,378,490,494,492
493,392,491,492,489
493,441,490,493,489
492,500,490,493,492
493,568,489,492,493
492,631,491,492,492
492,634,491,492,492
495,620,490,495,492
492,545,492,496,492
492,444,491,494,493
492,395,490,493,492
493,370,492,493,490
491,373,491,495,491
494,381,490,493,491
495,409,490,493,492
493,464,490,493,490
493,527,491,493,491
491,607,490,492,493
494,636,491,493,490
492,629,492,492,490
492,593,492,493,493
494,497,489,494,495
493,416,490,493,491
492,381,491,493,491
495,371,489,494,492
492,378,490,495,492
492,389,490,495,492
492,434,490,493,491
493,493,491,494,491
492,559,489,493,490
493,625,490,492,490
494,632,490,491,492
494,621,489,493,491
492,559,492,494,492
493,453,491,494,491
492,401,490,495,492
492,373,491,494,491
491,372,492,494,490
492,380,489,494,493
491,404,492,493,491
492,458,490,493,491
493,518,490,492,491
494,597,489,492,491
493,634,489,493,490
493,630,490,494,492
492,601,492,492,492
492,511,492,494,492
492,422,492,494,491
493,386,492,494,490
492,370,491,492,493
492,378,491,492,491
494,385,492,496,490
492,427,490,493,492
493,485,491,493,491
492,550,490,494,492
492,618,490,491,492
491,636,492,493,493
493,624,489,493,490
493,570,492,493,492
493,466,492,494,491
492,403,492,494,493
491,373,492,492,491
493,372,492,494,490
494,379,491,493,493
494,400,490,493,492
493,450,488,492,491
493,511,489,492,492
492,589,489,492,490
494,630,490,493,492
492,632,491,493,491
493,614,492,494,490
492,523,491,494,491
493,429,489,494,490
493,389,490,493,491
491,372,490,492,492
493,375,489,493,492
493,385,490,494,493
492,420,490,493,491
492,477,490,493,491
492,539,489,492,492
491,617,491,492,490
493,635,491,491,490
493,625,490,492,491
492,582,490,495,491
493,476,491,494,491
492,409,489,493,492
494,374,489,492,492
494,372,490,494,492
493,379,491,493,491
494,398,491,495,491
494,443,490,493,491
493,505,490,492,490
492,577,491,493,490
492,629,491,493,491
494,632,491,494,493
492,622,491,492,491
495,536,491,495,492
493,437,491,493,492
492,394,490,492,493
493,369,489,493,493
493,373,491,493,491
492,385,490,492,490
495,411,491,493,490
493,472,490,493,490
492,532,490,494,489
491,609,489,494,492
492,635,489,492,493
491,629,492,495,492
495,587,489,492,492
494,491,490,493,491
492,413,490,493,492
493,378,491,494,494
492,372,490,492,492
494,379,491,494,492
492,394,493,494,491
491,438,492,494,491
492,496,491,493,491
493,566,489,494,489
493,625,490,494,491
491,634,489,492,493
494,622,489,493,493
494,550,490,495,492
494,447,490,494,491
492,399,490,495,492
493,369,491,492,492
491,375,491,494,490
492,382,491,494,490
491,407,491,493,492
493,462,489,492,491
492,523,491,494,491
491,601,489,492,491
494,635,489,493,492
493,630,490,494,493
494,597,492,493,491
493,503,490,494,491
492,417,492,494,492
492,384,492,495,491
491,372,492,494,490
492,377,494,493,491
493,386,491,495,493
492,430,492,493,490
492,489,490,494,491
494,556,488,492,492
494,622,489,493,492
493,635,489,494,492
493,623,489,495,494
492,565,490,494,493
493,459,490,495,493
493,404,491,494,491
491,373,492,496,490
492,372,489,494,491
493,380,491,492,490
491,404,491,492,490
493,455,490,493,490
493,515,490,493,491
494,593,488,493,490
493,633,490,494,492
492,629,490,492,491
491,610,491,495,492
492,517,491,494,492
493,425,491,494,491
492,387,492,492,493
494,372,490,493,491
494,375,491,495,491
492,385,488,492,492
495,425,489,493,491
493,481,491,493,493
493,547,491,493,491
493,620,490,494,492
494,634,490,494,491
492,627,492,494,491
492,576,493,494,491
493,470,491,494,492
493,406,491,493,491
493,373,490,495,492
494,369,489,493,492
494,379,489,493,491
495,398,489,493,492
493,449,491,494,492
493,510,490,493,490
493,582,490,495,493
492,633,491,494,492
492,633,492,494,490
492,617,493,495,491
492,528,491,494,492
493,433,492,493,492
492,391,491,493,491
494,370,490,492,491
494,374,490,493,492
493,383,489,494,489
492,417,491,493,492
492,474,492,493,491
492,539,492,495,491
492,615,492,495,490
491,635,492,494,491
493,627,488,493,491
492,582,490,496,492
492,481,491,495,490
494,410,489,493,491
495,375,489,493,491
494,371,492,494,492
493,380,490,493,493
493,393,491,492,493
492,443,489,494,491
493,502,489,493,489
492,574,491,494,490
492,629,491,493,492
494,634,491,492,490
493,622,489,495,493
495,539,490,493,492
493,442,490,493,491
493,395,490,493,492
491,372,492,494,493
493,374,489,493,490
493,381,490,494,493
492,412,490,494,491
492,466,490,493,491
492,527,489,492,492
494,608,492,494,489
493,636,490,494,491
494,627,491,492,492
495,591,491,493,491
494,494,491,493,492
493,416,491,493,493
494,381,492,493,490
492,370,490,495,493
492,378,491,495,492
492,391,492,495,490
492,434,491,494,491
493,494,490,493,491
493,561,491,494,493
492,626,490,492,492
494,634,490,493,492
494,623,490,493,493
495,555,491,493,492
493,453,491,493,492
493,398,491,494,492
492,372,491,495,491
492,373,492,493,490
493,381,492,493,494
493,406,491,492,491
494,460,491,494,490
492,519,490,493,492
494,599,489,492,492
493,636,491,494,492
492,628,491,493,493
492,604,492,495,492
494,507,491,496,492
493,420,492,494,491
493,385,492,493,490
492,370,492,492,491
494,374,491,494,492
492,387,489,492,492
492,428,491,493,492
493,487,490,493,493
492,555,491,495,492
492,622,492,494,492
493,635,490,493,491
492,624,491,494,494
492,566,492,493,492
493,463,490,493,491
494,403,490,493,492
495,372,492,495,490
494,373,490,494,489
494,378,491,495,492
491,403,492,495,492
493,453,492,494,492
493,513,491,493,492
493,588,491,493,490
494,634,491,494,491
494,630,489,492,493
494,610,489,493,493
495,522,490,493,492
493,428,491,493,491
493,389,491,495,493
492,373,490,492,492
493,375,492,494,491
492,386,493,493,490
492,422,493,493,490
492,478,492,493,492
493,543,492,491,491
490,618,493,494,493
493,635,490,494,493
492,628,491,495,493
493,580,489,493,492
494,473,490,493,492
492,407,490,494,493
492,372,492,494,491
493,369,490,492,492
493,378,490,493,492
491,398,492,495,493
494,445,490,494,491
493,506,490,494,490
492,579,490,494,492
492,632,491,494,490
492,633,492,493,489
492,617,489,493,494
493,533,492,493,492
493,435,492,493,491
493,391,491,492,491
495,370,491,492,493
493,374,490,492,491
492,383,489,494,493
493,413,490,493,491
492,472,489,493,492
493,535,490,493,490
492,611,492,494,491
493,636,490,495,491
494,626,490,494,492
491,589,490,492,493
493,486,490,493,492
493,412,490,493,492
493,379,491,493,490
493,371,491,494,491
494,377,490,493,491
491,393,492,493,491
492,439,491,493,491
492,500,492,492,491
492,565,490,494,492
492,630,489,493,493
494,635,492,493,490
492,622,490,494,493
493,548,490,494,492
493,447,491,494,492
493,395,490,493,491
492,373,492,494,493
493,373,492,493,491
493,380,491,492,491
494,407,490,492,492
493,463,490,493,492
491,525,489,493,492
491,605,492,493,492
492,635,490,495,492
492,631,491,495,491
492,598,492,495,493
494,498,491,494,494
493,417,490,493,492
493,379,492,493,491
492,369,490,492,492
494,376,489,492,493
493,389,489,492,492
491,432,491,493,491
492,491,490,493,490
493,557,491,495,492
492,626,491,494,491
493,635,492,493,490
493,623,491,494,494
493,559,492,493,492
493,457,491,494,493
493,400,490,493,493
495,370,489,493,493
493,374,491,494,491
494,379,491,494,493
492,407,490,493,492
493,458,491,494,491
492,517,491,493,490
493,596,492,493,489
494,635,492,494,491
494,629,490,492,490
492,608,494,493,493
494,512,492,494,492
493,423,492,493,492
492,387,493,495,492
492,372,491,492,492
494,376,492,493,491
493,385,489,493,489
493,423,490,493,491
493,484,489,493,491
494,547,488,492,490
491,621,491,493,492
493,637,491,492,490
494,626,491,495,493
492,574,491,495,491
493,468,491,493,492
492,404,490,494,494
492,371,492,493,493
493,372,491,492,493
493,378,489,493,493
495,398,489,493,493
493,450,490,493,491
492,509,490,494,493
492,585,490,491,491
491,633,492,494,491
493,631,492,493,491
494,616,493,493,491
494,527,492,494,491
493,431,490,493,491
494,391,492,495,491
491,369,490,494,494
493,375,490,494,494
492,386,490,493,493
492,416,491,494,491
492,476,491,494,491
493,539,490,494,490
492,613,492,493,491
493,635,491,492,491
494,626,490,495,491
492,584,490,493,493
494,481,492,494,492
493,409,491,493,493
492,375,490,494,493
492,372,491,494,491
494,377,490,493,490
492,395,492,492,493
493,443,491,494,491
492,501,492,492,491
493,572,490,491,491
495,630,490,492,492
494,633,492,493,491
492,621,490,494,490
494,537,491,494,493
492,441,490,494,492
492,394,492,494,491
492,372,493,493,493
492,373,490,492,492
494,383,492,495,491
495,410,490,493,492
494,467,491,493,491
494,530,490,493,493
492,607,493,493,492
492,636,493,492,492
494,628,493,494,490
491,590,494,494,492
493,492,492,494,493
492,415,490,494,492
490,376,491,492,490
492,371,491,493,492
493,377,490,494,492
493,389,490,494,493
492,437,491,494,492
492,496,490,493,491
493,561,490,493,490
492,627,489,494,492
493,632,490,492,491
494,621,489,492,491
495,552,490,493,492
492,451,492,494,493
493,398,490,493,491
494,370,490,495,492
491,373,492,495,492
491,382,492,495,491
492,407,490,494,492
493,460,491,493,491
492,521,490,493,491
494,599,490,492,492
493,634,489,494,493
493,631,490,494,491
492,599,492,494,493
492,505,491,493,492
493,420,492,494,490
492,384,493,494,491
491,370,492,492,491
493,376,491,492,491
491,389,490,495,491
493,427,490,493,492
492,488,491,493,492
492,553,490,493,493
492,622,490,494,492
491,636,490,492,491
495,624,492,495,492
495,565,491,494,491
492,460,491,494,491
492,401,491,492,492
494,370,490,491,490
492,372,492,493,493
494,380,491,492,491
493,404,490,494,491
492,454,490,494,492
493,514,490,494,491
492,591,489,493,493
494,632,492,492,492
492,633,491,492,492
494,608,491,492,492
494,518,491,493,492
494,428,490,493,492
493,390,492,493,489
492,372,490,495,492
494,375,490,493,491
492,385,493,494,491
491,423,491,493,492
493,481,490,493,492
492,546,490,492,491
493,615,490,493,491
492,636,490,494,493
493,626,490,494,494
493,577,490,495,494
493,472,492,494,492
492,407,490,494,492
495,371,489,494,489
492,370,492,492,492
491,377,491,492,491
492,396,490,495,490
492,448,490,493,491
493,509,491,493,490
493,582,490,493,492
492,632,491,494,491
492,633,492,494,491
492,619,492,495,493
495,530,491,494,491
493,434,491,493,492
493,391,491,493,491
493,369,490,493,493
494,374,490,493,494
493,384,493,493,491
493,416,491,494,492
493,473,491,493,492
492,536,491,494,491
491,612,491,494,492
493,635,491,494,493
492,629,490,492,491
494,587,491,495,493
494,483,492,494,492
493,410,490,493,493
494,376,489,493,492
493,370,491,492,491
491,379,492,492,492
494,391,493,494,490
491,440,493,494,490
492,499,492,493,490
492,568,492,491,490
493,630,492,495,490
493,633,490,493,490
493,621,493,494,493
493,544,490,494,493
493,444,490,494,493
492,397,491,493,492
494,369,492,494,491
493,374,490,494,493
493,381,491,493,490
493,406,490,492,492
492,464,490,493,492
491,527,492,493,492
493,605,490,491,491
494,635,492,493,491
490,630,493,494,490
491,595,493,495,490
494,498,491,493,490
493,416,492,493,490
492,381,491,495,489
494,369,491,493,492
494,375,490,493,493
493,387,487,493,494
493,434,489,493,491
492,491,490,494,492
492,559,488,492,492
491,626,492,493,490
492,633,491,492,491
494,622,490,491,491
492,560,491,495,491
493,453,491,494,492
492,401,490,494,493
493,370,489,493,493
492,373,491,494,493
492,381,490,492,491
494,406,492,494,491
493,457,490,493,491
492,518,491,492,490
492,596,491,492,491
494,633,490,492,490
492,632,493,494,492
493,604,493,493,491
494,511,491,493,492
492,422,491,493,493
491,386,492,495,492
491,372,492,494,491
493,377,490,494,491
493,385,492,495,493
492,428,490,492,491
493,484,491,493,492
493,549,489,492,492
493,619,492,491,489
493,636,492,495,491
494,624,489,492,490
492,572,493,494,490
492,465,491,493,491
492,405,491,493,494
492,372,491,492,494
493,369,492,494,494
492,380,490,492,493
494,399,490,493,493
492,451,491,493,492
492,511,491,492,490
491,588,491,495,491
494,632,490,492,490
493,630,492,492,490
493,612,492,493,491
494,523,491,493,492
493,431,491,494,491
492,389,489,494,493
492,371,491,492,492
492,376,491,494,491
491,385,491,495,493
492,420,492,494,492
494,477,491,493,491
492,539,490,494,492
492,614,490,492,492
494,635,490,494,493
494,626,490,494,494
495,581,492,493,490
492,477,490,494,491
492,408,491,493,491
491,376,491,495,491
491,370,492,494,490
492,377,491,493,491
492,397,491,492,490
493,444,490,493,492
493,503,491,492,491
493,576,490,493,492
494,630,491,494,492
492,634,491,494,491
493,618,491,496,491
491,536,489,493,492
494,440,490,494,492
492,393,491,493,491
492,369,491,492,491
494,375,491,494,489
494,382,490,493,489
492,413,492,493,491
493,470,491,492,491
492,532,491,494,491
492,610,490,492,492
494,636,491,492,490
493,628,490,495,493
494,586,491,492,490
493,489,491,493,490
493,413,490,493,492
492,379,492,494,493
492,370,491,492,492
494,376,490,494,491
492,393,492,494,490
492,437,491,494,491
492,496,491,493,490
492,565,490,493,492
493,625,490,492,491
491,634,491,493,492
494,622,490,493,493
493,549,490,494,493
493,448,490,493,492
492,397,491,494,492
491,368,489,492,492
493,373,492,492,490
493,381,491,492,489
492,405,490,492,491
492,463,490,493,491
493,522,490,493,491
491,603,489,492,493
492,637,491,494,491
491,630,492,495,491
491,599,489,493,493
493,503,493,494,492
492,417,490,493,491
493,382,491,492,489
494,370,490,493,491
494,376,489,493,492
494,388,489,493,490
493,431,491,494,492
492,490,490,492,491
492,558,491,494,490
491,624,492,493,490
492,634,491,492,490
492,626,492,494,491
494,562,493,495,493
493,460,493,493,492
494,402,492,493,494
493,370,490,492,493
492,372,491,492,489
493,381,491,494,490
494,401,487,493,490
493,456,489,493,490
492,516,490,492,490
492,591,490,492,494
492,636,490,492,492
493,631,492,493,489
492,608,490,494,493
493,517,491,494,492
492,426,490,494,492
492,388,491,495,492
495,370,490,492,491
493,375,493,494,493
492,387,491,491,490
495,423,490,493,491
493,482,491,493,492
493,546,491,493,490
492,618,490,494,492
494,635,490,492,492
492,629,492,495,491
492,577,493,494,491
493,471,491,494,492
493,406,490,492,490
492,371,489,494,492
491,369,489,492,492
494,379,490,493,491
494,397,489,493,492
493,449,491,492,490
493,509,490,493,490
493,581,490,494,492
492,633,492,493,490
493,632,492,493,490
493,616,493,493,490
493,529,491,494,492
493,435,491,493,491
492,392,492,494,493
495,370,490,491,493
491,375,491,495,493
490,383,491,495,491
493,415,490,494,491
492,474,490,492,492
494,537,491,491,489
493,612,491,492,491
494,634,490,493,492
493,629,492,494,491
495,584,490,494,491
492,482,492,493,492
493,412,491,493,491
492,377,492,495,491
492,371,492,493,493
494,379,492,493,490
493,394,489,495,492
494,440,491,493,492
493,502,491,492,491
494,569,489,492,492
494,628,489,493,491
494,633,491,495,492
491,622,492,492,492
495,543,492,494,493
493,442,492,494,491
491,395,493,493,489
491,371,489,493,493
494,372,491,491,491
491,383,491,493,492
495,409,489,492,491
493,466,490,493,491
493,526,490,492,491
493,606,492,494,490
491,634,491,493,493
492,629,493,493,491
492,592,495,493,492
493,495,492,494,492
492,416,490,494,492
494,379,489,495,491
491,370,488,494,493
492,378,490,493,493
492,391,490,495,491
493,435,491,495,491
493,494,489,491,491
492,561,491,492,492
493,625,490,492,492
493,633,490,492,492
494,622,490,492,493
495,555,491,494,494
491,454,491,493,492
493,398,491,493,491
493,372,489,494,492
492,374,491,494,489
492,381,492,494,489
494,405,489,493,490
492,459,491,493,490
492,519,489,492,491
494,599,489,491,491
494,634,489,494,493
492,631,491,492,491
493,604,491,495,493
494,506,491,493,492
493,423,491,494,491
492,385,493,493,490
491,370,492,492,491
493,374,490,494,491
492,388,490,492,492
494,428,491,494,491
494,488,490,492,492
493,553,490,494,492
492,622,490,494,492
494,634,489,493,490
493,624,492,494,494
493,569,492,493,492
493,463,491,493,491
492,403,490,493,492
494,368,492,496,491
492,372,490,494,492
492,379,491,492,493
492,403,491,493,492
492,454,491,494,490
492,512,490,493,491
494,588,489,493,491
493,632,491,494,493
492,630,490,492,494
495,611,491,492,493
495,522,491,494,492
493,429,492,493,493
492,390,492,491,493
492,372,490,492,491
493,374,492,494,491
492,386,492,493,489
492,421,491,493,490
492,478,489,493,492
492,543,489,491,491
491,617,491,494,493
493,636,490,494,493
493,627,491,495,493
493,579,490,495,492
494,474,491,494,492
492,409,490,493,492
493,373,492,494,491
493,369,491,492,491
494,378,491,493,491
494,398,491,495,491
494,445,490,493,491
492,506,491,493,492
492,579,489,494,492
493,631,491,494,491
491,633,492,494,490
492,618,489,493,493
494,533,493,494,491
