Sensor0,Sensor1,Sensor2,Sensor3,Sensor4

493,490,494,401,489
492,491,493,456,489
493,491,494,9,493
494,493,493,390,491
493,491,493,371,492
495,492,492,375,492
495,492,492,384,493
495,491,492,421,492
493,490,3,493,390
491,493,491,493,371
492,495,492,492,375
492,495,492,492,384
493,495,491,492,421
492,493,490,492,476
491,492,491,492,540
491,492,493,492,617
490,492,491,493,634
490,492,492,494,626
489,493,493,495,581
490,493,490,492,478
491,493,492,493,409
491,492,491,492,376
491,495,492,492,371
492,494,491,492,378
492,493,491,493,395
490,494,491,493,443
491,493,492,493,507
491,492,491,493,576
490,492,492,494,631
490,493,492,492,635
491,492,491,494,621
492,496,493,495,535
491,494,492,493,438
492,494,490,492,392
492,493,491,492,369
492,492,491,493,372
490,495,491,492,383
491,493,493,494,414
492,493,491,493,470
491,494,492,493,532
490,494,492,492,611
490,494,491,494,635
490,492,491,492,628
492,494,493,495,589
494,492,490,493,488
492,494,492,493,412
491,493,492,494,377
492,495,491,492,368
490,493,493,493,377
491,492,492,492,392
490,494,492,492,438
491,494,492,492,498
490,494,492,493,566
490,493,490,491,628
491,494,493,492,633
490,492,491,494,620
490,492,492,494,547
491,493,492,494,447
491,492,492,492,397
492,492,493,491,371
490,492,491,494,371
493,494,491,492,381
492,493,490,492,407
492,492,491,493,463
490,493,491,492,522
490,492,491,491,605
491,494,492,493,636
491,494,492,492,630
491,494,493,493,597
491,495,492,494,500
492,495,492,492,417
491,493,492,494,382
493,493,490,491,369
492,492,491,493,374
491,492,491,493,389
491,494,491,494,431
490,493,491,492,491
491,492,491,493,559
490,493,492,493,624
491,494,492,492,635
491,494,491,491,624
490,492,493,494,560
492,493,492,494,456
490,493,490,492,400
491,492,491,494,368
491,492,492,494,371
489,493,490,492,380
492,494,493,492,405
491,492,492,494,458
490,493,491,492,517
492,493,490,491,595
492,494,491,493,636
491,494,492,494,630
491,492,492,492,608
493,492,493,495,512
492,493,492,493,423
492,493,494,492,386
490,492,491,492,370
491,494,491,491,373
489,493,492,492,386
493,493,490,492,425
491,493,491,492,482
490,492,491,493,547
490,491,492,491,622
491,493,492,493,635
491,492,491,493,627
491,494,494,491,573
491,495,493,492,466
491,493,492,492,405
490,493,492,492,371
492,495,492,493,370
490,491,491,493,377
491,492,491,493,397
490,492,492,493,449
490,494,492,492,511
490,493,491,493,584
491,492,491,492,635
491,494,491,491,633
492,493,490,491,616
493,494,491,494,525
490,493,491,492,431
492,494,492,492,390
490,492,491,495,370
490,493,493,493,375
490,494,493,493,385
490,494,493,492,417
490,492,491,492,477
491,494,492,492,540
490,492,490,492,616
492,493,491,492,636
491,493,492,494,626
490,495,492,492,585
491,493,493,494,479
492,494,493,494,409
491,493,493,492,375
491,494,493,491,370
491,494,492,495,376
490,492,490,492,396
493,493,493,492,443
491,493,491,493,503
491,492,491,493,574
490,492,491,494,630
492,493,491,493,635
491,493,492,493,618
492,492,493,492,538
492,494,492,493,439
491,494,491,492,394
492,494,491,491,371
492,493,493,492,374
491,492,491,493,382
491,495,492,494,411
490,492,492,493,468
491,493,491,493,531
490,493,492,493,608
492,492,492,492,637
493,493,492,494,628
492,493,490,493,591
494,494,491,493,491
493,494,492,493,413
491,494,492,492,377
491,492,491,491,371
492,493,493,493,378
490,493,492,493,391
490,494,492,492,438
490,493,491,492,496
491,493,491,491,567
490,491,492,494,629
491,493,491,494,634
491,491,491,493,621
491,492,490,494,548
491,493,492,493,449
491,494,491,493,398
490,493,490,492,370
489,494,492,492,375
491,494,492,491,382
492,495,491,491,407
490,492,492,493,464
491,493,491,493,523
491,493,491,493,601
490,491,491,494,635
490,493,492,493,630
491,494,491,492,597
493,494,492,492,503
492,493,491,492,418
491,493,491,492,383
493,492,490,491,369
492,491,490,492,376
489,493,492,493,386
490,491,490,491,432
492,492,491,493,490
490,492,491,493,557
490,493,492,492,624
491,493,491,491,635
490,492,493,494,625
493,494,490,494,562
490,494,492,492,457
491,492,491,493,401
491,492,491,494,368
490,491,491,491,372
492,493,493,493,381
491,492,490,492,404
490,494,492,491,456
490,492,491,492,516
491,493,490,491,593
489,492,492,492,634
491,492,491,491,631
491,491,492,494,605
490,491,492,494,515
491,492,491,492,424
490,493,491,492,386
490,494,493,491,369
490,492,492,491,375
492,493,491,492,385
493,492,489,492,424
492,492,491,492,482
491,492,492,491,549
491,491,491,493,617
492,492,490,492,637
491,494,493,492,627
492,494,493,491,575
492,494,492,492,466
491,493,492,492,406
492,493,492,492,370
489,492,491,493,369
490,491,492,494,378
490,492,491,494,397
489,493,491,492,450
490,492,491,492,510
491,492,491,490,586
490,494,492,491,633
492,492,490,491,632
492,492,490,492,615
490,494,490,494,526
492,493,492,492,430
491,492,491,493,390
490,492,492,494,370
490,493,492,492,375
490,493,492,491,382
490,490,490,491,420
491,493,490,492,474
490,492,491,492,540
491,492,490,492,615
492,493,491,493,635
492,494,492,492,629
490,492,492,495,584
493,495,491,493,479
491,493,492,494,411
490,494,492,492,376
490,494,493,493,368
489,492,491,491,379
492,492,492,493,393
492,492,490,492,443
490,492,491,492,503
492,491,490,492,572
491,493,491,491,630
490,493,493,493,634
493,492,493,492,621
490,493,493,493,539
490,493,492,493,439
490,493,492,491,395
491,493,492,493,369
489,494,493,492,371
491,492,492,491,383
490,494,493,492,413
490,493,493,492,468
490,493,492,492,528
490,492,491,491,610
492,491,492,493,636
491,492,491,494,628
491,492,491,494,590
492,492,492,493,492
491,494,492,493,413
490,492,493,493,380
494,493,494,493,370
491,494,492,492,378
491,494,492,492,392
492,494,492,493,435
490,493,491,493,497
491,493,492,492,563
491,492,491,494,625
490,493,493,494,635
490,493,493,494,623
491,494,494,493,550
492,493,493,493,449
492,493,491,493,396
492,494,492,492,372
492,493,491,493,372
493,493,491,494,380
492,495,494,492,405
490,492,491,493,463
491,493,492,494,521
490,492,492,494,601
489,492,493,493,636
491,494,491,493,628
491,494,492,492,601
490,492,493,494,503
492,494,492,492,419
492,493,491,493,383
492,492,490,492,371
491,495,492,494,374
490,492,490,492,388
493,492,493,493,430
490,493,493,493,490
490,493,492,493,557
491,494,491,491,623
490,493,493,493,635
492,492,491,492,626
492,495,491,494,561
492,494,492,494,458
491,494,492,494,402
491,493,491,492,370
494,493,494,493,373
491,492,491,494,380
492,494,492,491,403
493,493,491,492,455
491,492,491,492,514
490,493,492,492,593
491,492,493,492,635
491,492,492,494,629
490,492,492,494,607
490,492,493,494,516
491,493,492,492,425
490,492,492,492,387
492,492,490,492,371
491,494,491,491,376
491,494,491,491,385
492,493,490,491,424
492,493,491,493,480
490,492,491,492,547
491,493,492,492,617
491,492,492,494,635
491,493,492,494,626
489,493,492,494,575
493,493,492,493,469
492,493,491,492,406
491,493,492,492,372
490,494,493,492,371
490,494,492,492,380
491,492,490,493,395
491,493,491,492,448
490,491,491,492,509
492,492,491,492,582
492,491,491,493,631
490,491,492,491,633
493,494,493,493,615
489,493,490,493,527
491,493,493,492,431
490,493,492,492,392
491,495,491,491,372
491,492,490,492,373
489,493,493,492,383
491,493,492,494,417
490,492,491,492,474
491,493,492,493,539
492,494,491,493,614
493,493,492,492,637
490,491,491,493,630
491,494,494,493,582
493,494,492,493,481
492,494,492,492,411
491,493,491,492,376
490,493,490,493,368
491,493,492,492,379
489,491,491,494,393
491,492,492,494,442
491,492,492,493,503
491,493,490,491,574
489,493,493,493,630
491,492,491,492,636
492,494,491,491,622
492,495,492,492,541
493,494,492,492,441
491,493,492,492,394
492,492,491,492,371
491,493,491,493,371
490,491,491,493,380
490,491,491,493,410
490,492,491,492,469
491,493,491,493,529
489,493,490,492,610
490,492,492,491,636
491,493,492,491,630
491,494,492,492,591
491,492,492,493,492
491,494,492,493,414
490,492,491,491,379
493,493,490,491,368
491,491,491,493,376
491,492,492,492,390
490,491,490,492,435
489,492,492,493,497
491,492,491,492,562
491,491,490,492,627
489,490,492,494,634
490,491,492,491,625
491,494,491,493,551
492,493,493,493,450
491,493,492,492,398
491,492,491,493,370
493,491,491,494,372
491,493,491,491,379
489,492,491,491,409
492,492,491,493,461
490,492,491,493,521
490,493,492,492,603
490,493,490,493,635
490,493,490,492,630
490,493,493,495,601
493,494,490,492,503
492,494,492,492,419
491,493,491,492,383
489,492,492,491,369
492,492,493,493,375
490,492,490,492,386
493,493,490,491,428
491,493,491,492,487
490,493,490,492,554
490,492,492,493,621
492,492,492,491,637
491,494,490,493,622
492,492,491,492,564
492,493,492,493,461
491,492,492,492,402
490,491,490,492,370
489,493,493,492,369
490,492,491,493,378
491,492,492,493,400
490,491,492,494,456
491,493,491,493,514
490,492,490,492,593
492,492,492,492,635
491,493,492,491,632
491,495,492,491,610
491,491,491,493,516
491,494,492,493,424
490,493,491,492,388
492,494,491,491,372
492,493,490,492,373
491,493,490,493,385
492,493,492,493,423
490,493,490,492,480
490,492,491,493,547
492,492,489,492,617
492,492,491,493,635
492,491,490,493,628
491,493,493,492,575
493,493,493,493,471
491,493,490,492,407
491,493,491,492,372
492,493,491,492,369
491,494,491,493,380
491,492,491,493,399
489,493,492,493,448
489,492,490,492,507
491,492,491,493,580
491,491,490,492,633
492,493,492,494,632
490,493,491,492,618
489,491,492,494,528
491,493,492,493,433
490,493,493,493,392
490,493,494,492,369
490,492,492,490,374
492,494,493,494,383
489,493,491,491,417
491,492,491,491,473
491,493,492,492,537
491,491,492,493,612
492,492,491,493,637
491,494,493,494,626
492,490,489,492,582
491,492,491,492,482
491,493,492,493,411
490,493,491,493,374
492,493,494,492,371
490,491,491,494,377
491,492,491,493,392
492,491,491,492,441
490,491,492,492,502
491,492,491,492,573
490,493,490,493,630
490,492,491,494,632
490,492,492,494,618
491,492,490,493,541
491,494,492,493,442
491,492,491,493,396
491,494,493,493,369
491,492,492,494,372
490,492,492,494,381
489,492,491,491,413
491,491,491,492,466
489,492,491,492,528
490,492,491,491,608
490,493,490,491,636
491,494,491,492,629
488,491,492,495,593
492,494,491,493,492
490,492,492,492,416
491,492,490,491,380
492,493,491,491,369
491,491,493,492,377
490,492,490,491,389
488,492,492,493,436
491,492,491,492,495
491,492,490,491,561
491,492,490,492,626
490,491,491,492,636
490,493,490,493,619
491,493,494,493,554
491,492,491,491,450
490,493,490,491,397
491,491,490,492,370
489,494,492,492,370
491,492,490,491,381
490,493,490,493,404
490,491,491,492,459
491,492,492,492,519
490,491,492,492,602
490,491,490,493,633
491,494,492,492,631
489,493,493,495,600
490,493,493,493,505
491,493,493,492,420
491,492,491,492,385
490,494,489,492,368
489,494,490,491,377
492,494,492,492,387
491,495,491,491,429
490,493,492,491,486
490,492,491,493,553
491,493,490,493,621
488,492,490,493,635
491,492,490,492,624
492,495,491,491,567
492,493,493,494,461
491,493,491,491,402
490,493,493,493,371
493,493,491,492,370
492,492,490,492,379
492,493,490,491,401
489,491,492,492,454
491,493,491,492,513
490,491,490,492,592
491,491,489,492,632
491,492,491,493,631
492,493,493,492,612
492,492,489,493,518
490,493,493,492,426
491,492,492,493,388
491,492,490,493,369
490,492,492,494,374
489,492,491,492,386
492,491,492,493,422
491,492,491,491,481
489,492,491,492,547
490,493,491,491,618
490,493,491,491,635
489,492,492,492,626
492,494,492,495,575
489,494,492,493,473
490,493,491,492,407
491,493,491,491,374
491,491,491,494,370
492,493,490,491,378
490,493,493,491,399
492,493,491,492,448
491,493,491,492,507
491,492,490,493,582
489,493,490,493,631
492,494,493,492,634
491,492,492,495,618
492,493,491,494,531
492,494,492,492,435
491,493,491,493,394
489,493,493,492,371
492,493,492,491,375
492,492,492,494,383
490,491,491,494,415
490,492,492,493,472
490,493,492,492,539
490,493,492,494,613
492,494,491,493,638
491,494,492,493,629
491,495,493,494,584
490,494,493,493,483
492,493,491,493,411
491,492,491,492,374
490,493,493,491,371
491,493,490,491,377
491,494,491,491,392
491,490,490,492,442
491,492,491,492,498
490,492,492,492,572
491,494,492,492,629
492,494,490,491,632
492,494,491,491,620
490,491,491,494,541
491,494,492,492,439
490,492,492,492,395
491,494,492,491,371
490,495,491,491,371
490,494,491,494,379
489,492,491,491,411
491,493,491,492,464
490,493,492,493,528
491,493,492,491,607
491,495,491,492,634
490,493,493,494,629
492,492,489,495,590
489,493,492,493,494
491,492,492,493,415
491,492,491,493,378
490,492,492,491,370
492,492,492,492,377
492,493,490,493,388
489,493,492,492,435
490,492,492,492,493
490,493,491,492,561
491,494,492,494,624
490,492,490,492,635
492,493,492,493,622
492,494,490,492,556
492,493,491,492,452
491,494,491,492,399
490,494,494,492,369
491,492,491,491,371
491,494,493,494,381
490,492,493,494,404
489,493,492,492,458
490,493,492,493,519
490,493,491,491,600
490,492,492,493,635
491,492,491,494,630
491,492,491,493,600
492,492,491,494,508
491,494,492,493,423
491,493,491,493,384
492,494,494,492,372
490,494,491,492,377
491,494,490,491,387
492,495,491,491,428
490,492,492,493,486
491,493,491,492,553
490,494,491,494,620
491,492,492,494,635
490,493,493,494,624
490,493,491,492,569
493,493,492,493,463
492,494,491,492,403
490,494,492,492,373
490,494,491,491,371
492,494,490,491,379
489,493,493,492,401
492,492,492,492,453
490,493,492,493,512
490,492,492,494,589
489,492,492,493,633
490,492,491,493,631
491,494,491,491,609
490,492,492,492,519
491,494,493,493,430
491,493,490,492,388
492,492,490,492,369
490,491,492,492,377
491,493,492,493,384
493,493,490,492,423
490,493,492,493,480
490,493,492,492,545
492,494,491,491,615
489,493,492,492,636
491,492,493,491,628
491,492,492,494,576
490,492,492,494,474
492,493,491,493,407
490,494,491,492,375
490,492,493,492,369
491,491,491,491,380
491,493,491,491,400
493,493,490,492,447
492,493,491,493,505
490,493,491,493,579
491,494,492,491,632
490,492,492,493,633
489,493,493,493,619
489,493,493,493,532
491,493,492,492,434
490,492,491,492,393
491,494,492,494,368
490,492,490,492,373
491,491,490,493,383
491,491,490,494,413
490,493,492,492,474
491,492,491,494,536
491,492,490,493,613
490,494,492,492,638
492,494,491,492,628
493,493,490,495,584
490,493,492,493,485
493,493,492,492,411
491,493,492,494,375
489,491,491,494,371
490,493,493,493,378
492,492,493,493,395
490,494,491,493,440
490,492,492,492,500
490,493,491,492,571
492,492,490,491,630
491,492,490,493,632
490,494,492,491,622
491,491,491,495,545
492,494,492,494,444
491,492,493,493,396
490,493,492,492,371
490,494,492,494,370
489,492,491,492,382
492,493,492,493,408
492,492,490,493,465
491,492,492,492,526
490,492,490,493,603
491,494,491,492,636
490,493,493,493,628
491,492,491,492,594
491,495,492,492,497
491,494,492,492,416
492,493,492,493,379
490,493,491,492,369
491,495,491,491,373
490,493,492,494,386
489,492,493,494,434
490,493,492,492,492
490,493,492,493,559
490,491,491,492,628
492,493,492,493,634
492,493,491,493,622
492,493,491,493,555
492,494,492,493,453
491,494,492,492,400
490,492,492,492,372
493,494,493,492,372
490,494,492,492,381
491,494,492,491,406
492,494,492,494,457
490,493,491,492,519
490,493,492,492,597
491,492,489,494,633
489,492,492,494,629
489,493,493,494,603
493,494,491,494,508
491,493,492,492,420
491,494,492,491,385
491,495,492,491,371
492,493,490,492,375
492,492,491,492,384
489,494,493,492,427
491,492,491,492,487
491,494,492,493,552
489,492,493,494,622
490,494,493,491,636
491,495,492,494,623
490,495,492,492,571
491,494,493,493,462
491,494,492,492,403
491,492,492,494,370
491,491,492,493,371
492,493,490,493,380
489,493,490,492,400
491,494,492,492,453
489,493,492,492,513
490,493,490,492,590
492,492,493,493,633
491,492,491,494,633
491,494,491,494,609
490,492,493,494,520
490,493,492,493,429
490,492,492,493,390
491,494,491,492,369
490,494,491,491,377
490,493,491,493,384
492,493,490,492,421
491,492,491,492,479
491,493,491,493,545
491,494,491,494,615
489,492,490,493,636
491,494,493,492,628
491,495,494,492,580
492,494,492,492,475
491,494,493,493,407
491,493,491,493,374
490,493,493,493,368
490,492,492,494,377
489,492,492,495,397
490,492,492,492,446
491,493,491,493,506
490,492,491,493,578
491,494,491,491,632
491,493,491,493,633
492,492,491,493,618
493,493,491,493,534
492,494,493,493,437
491,493,491,492,393
492,494,494,494,370
490,493,493,492,375
491,494,492,492,383
491,492,492,494,413
491,493,491,492,470
491,493,492,492,534
491,492,491,493,611
491,492,492,494,636
490,493,492,491,628
492,493,494,494,587
490,493,491,493,486
491,494,492,492,413
490,493,491,492,379
492,495,491,492,371
490,494,492,492,376
491,492,491,492,394
491,494,491,493,438
490,493,491,492,499
490,492,492,493,569
490,492,493,493,628
491,492,492,494,632
492,494,490,492,621
490,493,493,492,544
492,494,492,493,445
491,493,491,493,397
491,493,491,491,372
492,494,493,493,372
489,492,490,492,380
491,495,493,491,409
490,494,492,493,465
490,492,491,492,525
490,493,492,493,605
492,493,491,492,636
491,494,491,494,627
489,493,492,495,592
490,493,493,494,498
491,493,492,492,416
492,494,493,492,382
491,492,491,493,370
492,494,491,491,376
491,493,491,493,388
492,492,490,493,432
491,493,491,492,492
490,494,492,494,559
489,493,490,491,625
490,494,493,492,636
491,495,493,492,624
492,495,493,492,560
490,494,493,494,454
492,494,492,493,399
491,494,491,493,369
492,492,491,494,370
489,493,492,494,380
490,493,489,492,405
492,493,492,493,458
491,492,490,492,519
491,494,491,491,599
491,494,491,492,635
491,493,491,492,631
490,494,492,493,602
491,492,493,492,511
491,493,492,492,420
491,493,492,493,385
490,493,493,494,371
490,493,492,492,376
492,492,492,493,387
491,494,491,494,427
490,492,491,492,485
491,493,491,493,551
491,491,490,493,620
491,492,491,492,635
492,493,494,494,626
492,493,490,492,570
491,494,492,493,464
490,493,492,493,405
490,494,491,491,369
490,492,494,492,371
491,492,493,493,381
491,492,491,493,398
490,492,491,493,452
490,492,491,493,512
490,492,490,492,588
489,493,493,492,633
490,492,492,492,633
493,494,491,492,614
493,494,491,493,523
492,494,493,494,430
492,493,492,492,390
491,492,491,494,369
492,494,490,492,374
489,493,493,492,384
490,494,494,493,421
490,493,492,492,477
490,493,491,492,542
491,493,492,494,616
489,492,490,493,635
491,492,492,494,625
489,491,491,495,578
490,494,491,492,477
490,493,493,493,409
491,492,491,492,374
490,495,493,492,371
491,494,491,491,379
491,493,491,493,395
489,493,490,492,444
490,493,492,493,506
491,493,491,493,576
489,492,492,494,631
489,493,493,493,634
490,494,494,492,617
492,493,492,492,536
492,495,493,494,437
491,495,492,492,392
492,493,491,492,370
492,492,492,494,372
490,495,491,491,384
489,492,493,494,415
492,493,491,493,470
490,493,493,492,534
490,494,493,492,612
490,494,491,494,635
490,494,491,493,628
491,494,494,493,588
492,492,491,493,486
491,494,492,493,411
491,492,492,494,378
492,494,491,492,370
490,494,493,494,376
490,492,491,491,394
491,495,491,491,439
491,493,492,493,499
491,493,491,493,567
491,493,492,492,629
490,492,493,494,635
492,493,490,493,622
489,494,494,493,546
491,494,494,493,447
491,494,492,493,396
491,493,491,491,372
491,493,493,493,373
491,492,491,492,380
490,492,491,494,406
490,492,491,493,464
491,493,492,492,524
490,493,493,493,604
491,492,491,491,637
491,495,491,491,630
492,494,491,491,597
493,494,493,494,499
491,494,492,493,416
490,494,492,492,380
490,492,491,494,368
489,493,493,493,376
490,494,493,492,389
490,494,493,492,431
491,492,492,492,491
491,492,492,494,559
493,493,489,492,625
492,492,492,493,633
491,492,492,494,623
493,495,491,491,558
490,494,492,493,456
491,493,492,493,401
490,494,493,491,371
490,495,492,491,372
492,493,492,493,380
490,493,490,492,402
490,494,493,493,457
491,493,492,493,516
490,492,493,494,595
489,492,493,493,634
491,492,490,491,631
491,495,492,494,603
490,496,492,492,512
492,495,492,493,422
492,494,492,492,386
492,493,491,492,370
491,495,491,491,374
489,493,493,492,387
493,494,493,493,427
490,494,492,493,484
490,493,493,492,551
491,494,491,494,618
490,494,491,492,635
490,494,493,492,624
491,492,491,494,569
490,493,492,493,466
491,493,491,493,406
491,494,491,493,371
489,493,492,493,370
490,495,491,492,380
492,494,490,491,401
492,494,491,492,451
491,492,491,492,511
491,493,491,493,589
491,495,492,494,632
490,493,492,492,633
490,495,493,493,614
490,495,494,492,525
491,494,492,493,430
491,495,492,492,389
490,493,494,495,370
492,492,491,493,372
490,492,492,493,383
489,491,492,495,421
491,494,491,493,476
490,493,491,492,542
490,494,493,491,617
490,494,492,491,636
491,494,491,492,627
491,493,493,494,580
492,493,492,492,476
490,493,492,492,409
491,493,491,494,373
490,492,492,493,370
489,494,494,492,379
492,492,492,491,397
490,491,492,493,444
491,494,491,492,505
492,493,490,492,576
492,492,490,492,629
490,492,492,494,634
492,494,491,494,618
489,493,490,492,535
492,494,493,493,438
491,494,493,492,393
490,495,492,492,371
491,492,493,494,373
491,493,491,493,382
490,494,493,493,411
490,492,491,493,469
490,493,491,493,531
489,492,493,492,610
492,492,492,492,637
491,492,492,494,627
492,493,491,491,590
493,495,491,492,488
493,494,492,493,413
491,493,493,492,376
492,492,491,491,370
492,494,493,494,377
489,493,492,494,390
489,494,493,492,438
490,494,493,493,497
489,492,491,493,564
491,494,491,491,627
490,493,493,492,634
491,492,491,494,619
491,492,492,495,547
490,493,492,493,448
491,494,492,492,397
490,492,491,493,370
489,494,492,491,373
491,495,491,491,381
491,494,491,491,407
489,493,492,493,463
491,493,492,492,524
490,494,491,495,602
490,492,492,493,635
490,494,493,493,630
490,495,491,494,595
492,495,492,492,501
491,494,493,494,418
492,494,491,492,382
493,493,490,491,368
491,492,492,494,374
490,492,492,491,390
492,495,492,493,431
490,494,491,492,491
490,493,492,492,559
490,494,492,492,625
491,494,492,491,635
490,493,493,493,623
491,494,490,493,561
490,494,492,493,456
491,493,491,493,400
490,493,492,494,369
489,492,491,492,372
491,494,492,492,381
490,493,491,494,407
491,493,490,491,458
491,493,491,492,516
491,492,491,492,597
489,494,493,494,633
490,494,491,491,631
492,493,494,493,607
490,494,494,493,513
491,494,493,493,424
491,494,492,492,387
490,492,491,495,372
492,493,490,492,376
490,495,491,494,385
491,491,491,494,424
490,493,491,493,483
490,493,490,492,549
492,493,492,493,620
491,492,492,493,637
492,494,490,492,626
493,494,491,491,573
494,494,492,492,467
491,494,493,493,405
491,493,492,491,372
491,492,491,494,371
490,493,493,493,380
490,494,493,492,399
490,492,491,494,449
490,493,490,492,508
489,493,492,492,585
492,492,490,492,631
491,492,492,493,631
490,493,493,493,613
490,492,491,492,526
493,494,492,492,430
492,493,492,492,392
492,495,492,491,373
492,494,490,492,373
492,493,491,493,385
489,494,493,493,417
490,493,492,492,476
490,493,492,493,541
489,493,493,494,615
489,494,492,492,637
491,492,492,494,626
492,495,492,491,580
490,494,494,493,479
492,494,492,492,410
491,493,491,494,373
491,493,490,492,372
491,494,492,494,378
490,493,491,492,394
489,494,493,492,446
490,494,492,492,504
491,494,491,491,575
491,494,491,491,630
490,494,493,493,632
491,492,492,491,620
491,492,490,495,535
490,494,492,493,438
490,493,493,492,393
490,493,491,492,370
490,494,492,491,371
489,493,493,492,383
492,493,490,491,412
492,492,490,492,468
491,493,491,493,532
491,494,492,493,608
490,494,490,492,635
491,494,493,492,630
491,495,492,492,590
492,496,492,493,490
491,494,493,494,414
492,493,491,492,377
490,495,491,493,368
490,492,492,494,377
489,493,492,494,389
489,493,493,493,437
490,493,491,492,498
490,493,491,491,564
489,491,492,491,630
492,494,490,492,634
492,492,490,493,621
491,493,491,492,551
491,495,492,493,448
491,494,492,492,397
490,493,493,494,370
489,494,493,492,373
491,495,492,491,381
490,492,491,495,409
491,493,491,493,461
490,493,492,493,523
490,492,490,493,601
490,492,491,494,634
489,493,491,492,630
492,494,494,494,599
492,492,492,493,502
490,494,492,492,418
491,494,491,491,384
493,495,490,491,369
492,492,491,492,377
490,494,492,493,385
491,495,491,492,431
490,492,492,493,491
490,493,492,492,557
490,494,493,492,623
490,492,492,494,636
492,494,491,493,623
490,493,491,492,561
492,493,492,493,458
492,494,492,493,401
491,493,492,492,372
492,491,491,494,371
492,493,490,492,380
490,494,494,492,405
491,494,491,492,455
491,493,491,492,514
490,493,493,492,595
492,492,492,492,634
491,492,493,494,630
489,493,493,495,605
490,493,493,494,515
491,493,492,493,424
491,493,491,493,388
491,495,492,493,368
489,492,490,492,375
492,493,490,493,385
493,493,489,493,423
490,493,492,492,483
490,492,491,493,548
492,493,489,492,619
489,494,492,493,638
491,494,492,491,627
492,495,492,491,571
491,493,493,493,470
492,495,492,493,405
491,493,491,494,370
491,492,492,494,370
490,493,491,494,378
490,493,490,491,399
489,493,492,492,450
491,493,491,492,509
491,493,491,491,587
491,494,491,492,632
492,493,490,493,631
492,493,492,491,617
491,492,491,494,525
491,494,492,493,431
490,493,492,493,391
490,493,493,494,370
491,494,492,491,373
490,492,492,492,385
492,495,492,494,417
490,493,491,492,476
490,493,491,493,539
490,491,491,493,612
490,495,491,492,637
490,493,492,493,627
492,492,491,492,584
491,496,493,493,480
491,493,492,492,411
491,494,491,493,374
489,493,490,493,369
491,494,491,491,378
490,492,492,494,393
489,492,492,493,444
490,492,491,492,502
490,493,492,492,572
491,491,491,492,632
491,494,492,493,632
489,493,491,493,620
493,493,491,493,539
491,494,492,492,440
492,495,493,492,395
490,493,492,494,371
493,493,490,492,373
491,494,493,491,384
491,494,492,491,412
492,494,491,492,466
490,493,491,492,531
491,494,492,492,607
491,493,492,493,635
489,493,493,494,628
489,494,493,494,588
493,495,492,492,491
490,494,492,492,413
491,493,492,491,379
492,494,492,491,370
492,493,491,493,376
492,493,491,492,388
492,495,493,492,437
490,492,490,492,496
491,494,491,493,565
488,493,493,494,627
490,494,492,492,635
492,495,492,494,621
489,493,491,492,553
493,496,493,494,448
491,497,493,493,398
491,497,492,494,370
491,497,492,494,372
492,496,491,492,382
490,494,494,492,407
491,493,492,492,462
490,494,492,492,524
490,495,491,491,603
491,495,492,492,634
490,494,491,494,630
491,497,492,492,596
490,496,493,495,503
491,497,493,493,419
490,498,493,493,384
490,497,494,492,369
491,489,491,491,377
491,486,492,493,385
492,490,490,492,431
491,492,491,492,490
491,493,491,492,553
491,495,492,492,622
490,494,493,492,635
492,495,493,493,625
491,498,494,493,566
492,496,492,493,460
491,498,492,494,401
491,499,492,493,371
490,499,494,492,369
491,499,493,494,379
489,500,493,495,402
489,498,493,493,455
491,497,493,493,515
490,494,492,493,593
491,492,492,492,635
491,491,493,493,632
492,494,492,494,610
493,497,492,494,516
491,495,493,493,425
491,491,492,492,389
492,493,492,494,369
489,491,492,492,376
490,489,491,492,385
490,493,491,494,421
490,496,492,492,483
491,495,492,492,547
491,495,491,493,617
491,494,493,494,635
490,496,493,495,625
492,501,492,496,575
490,499,492,493,470
492,493,491,492,406
491,496,491,491,374
492,496,491,492,370
493,489,493,492,378
491,486,491,493,401
491,492,491,492,447
490,491,492,492,508
490,493,493,492,583
490,493,493,492,632
491,496,492,493,630
490,498,491,493,618
490,497,494,496,527
491,496,493,495,433
491,496,492,494,392
492,496,492,494,372
492,497,491,494,374
490,492,491,493,383
492,490,494,492,418
489,496,492,493,475
490,493,492,493,539
492,493,491,493,612
493,494,489,493,638
491,493,491,494,625
489,489,491,494,581
490,491,492,493,482
491,489,491,492,411
492,492,493,492,377
490,492,490,493,369
491,496,491,491,378
491,498,491,493,395
492,495,490,492,442
491,492,490,492,500
490,494,492,494,572
489,495,491,491,631
492,498,493,492,634
490,499,494,493,622
491,501,494,493,541
492,494,493,493,440
492,486,492,493,394
492,488,493,492,368
495,491,492,494,371
492,494,492,495,382
492,499,493,492,412
494,503,494,494,468
490,504,492,492,529
491,502,493,491,608
490,499,492,492,637
491,496,491,492,628
490,490,493,493,589
490,489,491,493,493
490,495,492,493,413
491,496,492,494,378
489,494,492,495,370
492,487,493,492,377
493,485,492,493,387
495,493,492,492,435
494,492,491,492,496
493,492,491,492,563
492,488,491,493,627
491,498,492,492,636
492,506,495,495,623
489,507,492,493,554
490,501,494,494,450
491,495,493,492,400
491,495,491,491,372
490,494,491,493,371
490,496,491,493,383
490,504,492,493,404
490,505,494,494,461
490,512,495,495,522
491,503,492,492,601
495,480,494,492,636
494,476,490,493,631
495,479,490,491,601
496,491,492,493,506
494,497,493,493,420
494,502,493,492,384
490,497,492,494,368
488,482,491,491,375
489,483,493,493,386
489,495,494,492,431
491,504,493,493,489
493,512,493,494,556
492,511,492,496,623
488,501,493,494,634
490,494,494,495,624
489,491,493,496,565
490,480,491,492,461
490,484,491,493,402
491,484,489,492,370
489,489,491,490,372
490,490,491,492,380
491,494,490,491,402
491,497,493,492,455
496,498,494,493,516
496,494,493,494,592
495,493,493,494,633
492,490,494,494,633
489,498,494,493,612
490,516,493,495,519
489,501,494,494,426
491,491,494,493,388
491,498,493,492,371
490,486,491,494,374
491,472,491,491,385
492,489,493,495,423
491,495,492,492,481
488,490,493,493,546
488,491,493,492,619
490,494,491,492,635
491,495,493,492,626
494,494,494,493,577
493,493,491,492,470
495,499,493,493,406
492,492,494,495,372
492,501,493,493,371
491,495,496,494,379
489,497,493,493,401
490,512,494,493,450
490,506,491,492,508
490,475,489,492,581
491,471,492,492,632
491,491,493,494,632
492,502,491,492,616
490,498,494,494,529
490,491,493,494,434
491,490,494,493,391
491,489,492,492,372
492,487,494,494,375
490,494,491,493,383
493,500,492,493,416
492,498,493,493,475
493,489,493,492,538
492,488,493,493,615
493,483,490,491,638
491,489,491,491,628
491,502,493,492,587
492,509,495,495,482
492,507,495,493,411
492,503,496,493,377
492,490,490,493,367
490,474,492,493,376
489,481,493,494,393
489,491,493,493,441
492,499,493,494,503
493,507,495,495,573
493,503,491,492,630
494,494,492,493,634
492,493,492,494,621
495,489,493,491,543
495,477,493,493,443
496,495,493,493,395
496,494,495,493,371
494,492,495,492,375
493,503,493,495,382
489,507,493,492,411
487,493,492,493,467
488,489,491,492,527
489,483,489,493,604
489,481,492,494,636
491,495,491,493,631
490,511,497,495,592
492,511,497,495,496
493,504,496,494,416
492,495,493,493,380
493,484,487,490,369
492,476,489,490,376
492,471,490,492,391
493,487,490,493,436
492,491,492,492,493
493,491,493,492,563
494,496,494,493,625
495,509,496,493,636
494,511,499,496,625
496,501,496,495,554
502,493,494,493,451
501,465,491,493,399
504,485,491,490,369
502,491,494,492,372
501,489,493,492,382
494,498,494,491,407
488,510,494,493,460
485,515,495,496,520
489,520,495,493,600
487,493,493,491,633
487,459,491,494,628
489,483,492,493,599
490,477,494,493,507
491,483,492,492,419
491,489,493,491,385
488,491,491,493,369
489,497,492,492,375
489,495,494,493,385
490,486,493,493,427
488,487,492,492,486
488,486,490,490,554
490,496,491,492,621
489,492,493,491,635
490,493,493,493,625
491,496,492,496,566
491,500,493,494,462
491,497,494,494,403
492,493,492,493,370
493,507,494,495,371
491,515,495,496,383
493,524,492,495,402
491,496,492,493,453
492,467,492,492,514
493,480,491,490,592
492,475,491,492,633
491,493,493,494,632
493,517,496,492,610
495,511,494,493,521
492,494,493,493,426
492,475,491,492,387
489,473,493,495,370
489,490,491,494,373
486,498,494,492,385
487,486,495,495,424
492,502,495,494,481
492,510,495,494,545
490,503,493,495,620
490,500,491,493,636
489,482,489,492,625
491,462,491,491,577
491,488,492,492,473
491,494,496,493,409
492,509,498,496,374
493,515,494,494,372
491,518,497,495,379
490,485,489,492,393
489,448,487,491,445
489,472,489,491,506
489,482,490,491,581
491,484,493,492,632
490,485,492,493,635
493,489,490,491,619
494,497,492,492,531
494,502,495,493,437
493,511,496,494,391
492,506,497,494,374
491,501,498,495,376
489,499,494,493,383
488,473,491,491,415
490,472,490,492,472
493,499,492,491,536
493,504,494,492,614
496,497,493,493,636
494,506,494,494,627
492,494,494,492,587
493,480,493,494,481
490,469,492,491,411
488,481,491,491,377
489,492,492,491,370
491,495,492,491,378
492,498,494,493,393
491,514,497,494,441
492,525,498,496,503
491,519,494,495,570
488,464,491,494,627
488,455,491,493,634
489,470,489,494,619
491,475,493,491,541
490,484,492,492,444
493,495,491,490,396
495,495,491,491,371
496,511,495,493,376
496,524,498,496,383
492,529,495,492,411
489,470,488,490,463
488,453,488,490,526
489,480,490,490,606
488,486,493,493,637
488,494,492,494,629
490,495,494,494,592
495,501,497,495,497
495,504,497,495,416
495,511,496,496,381
493,487,489,492,370
492,470,492,492,375
490,499,491,491,392
490,489,489,491,435
491,500,491,492,494
491,507,492,493,562
487,482,490,491,623
490,480,493,491,636
491,490,491,493,622
491,478,492,494,555
492,494,494,493,453
492,497,493,493,400
494,495,494,494,368
492,493,493,493,374
495,504,493,494,382
496,498,492,493,404
496,489,494,494,462
494,500,491,493,518
488,458,486,490,598
484,477,491,492,636
491,494,494,492,633
493,508,495,493,606
494,518,497,496,510
494,508,498,495,420
493,475,494,492,384
491,475,488,491,368
488,474,489,493,373
488,488,490,493,385
492,486,489,491,429
489,486,492,492,485
487,491,492,492,555
488,502,492,492,624
491,511,494,495,636
493,506,497,494,627
493,497,493,494,567
494,489,497,494,463
494,513,497,495,405
493,477,491,492,368
489,465,490,491,368
489,473,488,490,381
491,495,491,493,399
489,493,491,492,454
489,496,492,494,514
491,512,495,496,591
493,527,497,497,635
493,511,493,492,633
492,468,494,492,611
493,462,493,491,521
490,493,490,490,428
490,491,489,491,388
492,478,490,494,370
494,486,491,493,374
494,497,495,493,384
492,494,494,496,422
490,503,495,495,480
488,498,493,495,545
487,503,492,495,620
486,503,495,495,636
487,491,491,492,627
491,485,491,491,579
494,486,491,492,474
493,488,493,492,409
492,493,491,493,373
493,479,491,493,369
491,491,494,493,380
490,484,490,491,396
489,481,491,491,444
488,488,491,492,505
487,494,491,492,580
488,507,494,496,633
491,519,496,496,634
491,521,496,497,618
490,496,492,494,534
492,484,492,492,436
491,485,491,491,391
492,477,494,491,371
491,468,490,490,374
495,492,491,490,383
499,484,493,493,415
502,485,491,492,471
504,496,497,493,536
504,496,499,494,612
506,507,498,494,638
496,511,492,493,626
484,502,492,492,587
484,491,493,494,483
488,484,492,492,411
490,470,489,491,376
492,477,488,491,367
491,487,491,493,378
490,487,491,495,391
487,484,490,493,439
489,483,493,494,501
486,495,494,493,571
484,501,495,493,630
483,495,494,494,634
483,483,490,493,622
486,491,493,494,543
490,497,492,494,446
492,496,493,494,396
490,485,493,492,371
494,494,493,492,375
493,505,494,493,380
492,503,494,491,410
492,472,491,492,465
491,485,491,492,525
488,490,492,492,604
486,478,490,491,636
489,489,493,493,630
488,499,494,494,595
486,501,494,493,498
490,499,495,494,416
491,497,494,495,380
494,486,489,490,368
493,476,492,492,375
497,480,490,493,387
499,488,491,493,433
499,493,494,493,494
497,492,493,493,561
494,489,492,492,624
489,496,494,492,635
485,484,491,491,622
482,488,492,491,558
482,511,494,494,453
487,492,489,493,399
488,484,490,494,368
489,488,492,494,373
491,497,494,492,382
491,495,492,492,402
492,501,494,493,461
495,510,496,496,522
496,508,496,495,599
493,470,492,495,635
489,476,490,494,629
487,482,492,490,606
489,490,494,492,509
488,489,491,492,421
489,494,492,492,387
490,494,493,492,372
493,490,491,492,376
495,481,494,493,387
496,481,490,492,428
493,498,492,493,486
493,484,491,494,552
492,497,492,494,621
486,508,490,494,636
487,498,494,493,628
491,489,494,495,572
495,500,496,495,466
491,494,495,494,406
490,498,491,493,371
489,473,490,493,369
490,472,489,490,380
492,488,493,493,400
489,492,493,493,453
490,491,493,493,513
490,497,494,493,589
488,503,492,495,636
490,503,491,493,633
489,486,491,493,612
492,483,492,493,522
491,490,492,494,430
493,489,492,493,390
495,493,493,494,371
496,494,491,493,376
493,500,493,493,385
491,486,491,491,421
487,487,490,492,476
487,491,495,494,544
491,498,494,494,618
494,499,494,495,635
493,478,491,492,625
490,473,491,493,578
489,491,492,492,476
487,496,493,493,408
489,500,493,493,375
490,512,495,493,372
491,505,493,492,378
492,483,489,491,394
493,470,490,491,444
489,480,490,491,505
490,488,488,490,576
489,487,492,494,631
489,486,492,493,634
493,489,493,491,617
498,490,493,492,536
500,494,493,493,436
500,495,493,492,393
503,491,491,492,371
501,492,491,493,372
490,498,494,492,383
480,506,493,495,415
485,503,492,494,470
485,505,494,493,533
485,468,489,491,611
487,480,488,492,634
488,491,490,491,628
491,485,492,493,586
493,487,492,492,485
496,492,493,492,412
498,496,494,492,376
497,492,492,493,370
499,507,494,495,379
496,497,496,495,390
493,500,494,493,440
488,485,488,492,499
486,473,489,490,567
486,480,493,493,627
490,484,493,495,636
490,493,491,495,620
488,491,493,495,547
489,504,492,494,447
489,496,492,492,395
489,487,494,492,372
489,485,491,492,370
491,491,490,491,381
490,500,491,492,408
491,508,493,493,465
490,497,492,491,523
489,485,492,490,606
491,494,492,491,634
490,496,494,491,630
494,475,493,493,595
493,467,493,494,499
493,490,492,493,415
491,493,493,492,381
490,501,494,491,368
491,486,490,493,374
489,484,490,493,387
490,487,491,491,433
491,489,492,493,492
489,491,491,492,558
487,495,491,491,625
485,485,490,492,635
487,486,489,493,623
488,488,493,493,556
489,489,492,493,455
490,493,492,493,399
490,495,493,494,369
488,495,493,493,373
491,493,490,493,378
494,488,493,491,406
493,485,492,494,459
493,491,493,492,518
491,508,494,494,598
492,519,495,496,636
490,533,495,494,632
490,468,490,493,603
491,466,489,492,510
494,480,492,491,423
494,491,494,492,387
496,494,494,492,372
494,491,494,493,374
493,491,490,492,386
486,488,489,493,424
485,491,490,493,485
489,488,490,493,550
489,486,489,491,620
490,485,494,493,637
490,484,492,494,626
492,495,491,492,573
491,499,491,493,466
489,490,491,492,404
489,508,494,494,370
491,525,496,494,374
492,530,496,495,379
490,473,493,494,397
489,466,492,492,451
490,480,492,492,511
490,487,492,494,589
491,486,491,494,633
489,488,485,491,630
490,479,489,493,613
492,486,491,494,524
494,489,492,493,430
494,489,493,494,391
496,493,492,492,372
494,496,493,492,376
493,490,491,491,385
492,487,490,491,418
490,487,491,492,477
490,489,492,493,543
489,492,490,493,614
488,495,493,494,636
489,503,494,495,628
489,498,491,493,580
489,502,496,494,477
491,491,491,492,409
492,497,491,491,374
494,471,488,491,369
493,484,489,491,377
491,487,492,491,396
487,486,492,493,443
488,485,491,492,502
488,488,492,493,576
487,492,492,494,632
489,491,491,492,632
487,492,493,492,620
488,496,493,495,535
491,503,494,493,438
495,505,494,495,393
494,489,492,494,368
491,472,489,491,373
489,496,491,492,382
491,486,489,491,415
490,491,491,492,470
490,492,492,492,534
491,492,490,493,609
490,489,490,493,635
492,494,493,491,631
492,494,491,494,586
492,496,494,494,488
492,489,494,494,413
491,486,492,494,377
491,484,489,492,371
488,489,491,494,376
488,496,490,491,393
491,496,490,492,438
491,489,490,493,498
492,492,492,492,568
489,502,493,494,631
491,496,490,493,633
489,480,491,493,622
488,485,492,493,549
490,492,491,494,446
491,495,492,494,398
492,502,494,495,370
494,505,495,494,371
491,493,492,494,378
490,466,490,494,405
491,487,492,492,463
489,502,493,493,525
490,506,495,493,606
491,502,493,492,636
493,498,492,493,631
494,493,490,492,598
496,478,493,494,500
493,495,494,495,419
490,504,492,495,381
487,489,489,494,367
485,467,489,492,376
487,483,490,492,386
491,487,491,491,434
491,487,490,493,492
495,490,491,492,559
495,493,490,492,624
494,494,491,494,635
493,496,491,491,622
489,483,492,491,562
489,491,493,493,455
489,492,492,492,401
490,493,493,491,372
491,493,491,495,370
492,495,491,493,381
492,496,493,494,403
493,486,490,493,456
491,489,491,492,516
489,488,491,495,595
488,487,492,492,634
489,490,493,492,632
487,485,491,495,605
489,495,491,491,512
490,496,494,492,423
492,500,493,493,387
491,501,495,493,369
490,488,491,494,375
492,482,492,494,384
489,494,494,494,426
490,512,494,495,485
491,520,495,495,551
490,509,492,491,620
488,465,491,492,636
492,482,487,492,624
491,478,488,492,571
493,485,492,493,469
493,487,491,493,404
491,491,491,492,372
492,492,493,493,373
488,495,492,492,380
488,485,492,491,401
489,488,490,492,450
488,489,491,493,510
490,490,490,493,587
490,491,490,493,631
491,491,492,493,632
491,492,494,494,615
491,492,491,494,525
491,495,494,495,431
490,499,494,495,393
493,508,493,493,373
492,495,491,493,373
492,494,491,495,386
492,495,492,495,418
491,503,493,494,479
490,508,494,494,542
487,483,491,492,614
487,465,490,492,637
490,485,490,494,626
492,490,490,491,580
489,490,492,493,479
492,485,491,492,410
492,489,491,493,373
491,489,490,494,370
488,489,489,491,379
491,491,492,493,395
495,491,491,492,446
493,502,493,493,506
493,514,495,494,579
493,519,495,494,633
491,485,491,493,631
490,470,492,491,622
488,486,490,494,536
489,489,491,494,440
490,489,492,494,394
489,487,489,491,370
489,488,492,491,371
490,490,492,491,384
492,493,490,491,413
493,488,491,491,469
491,489,491,492,532
491,491,490,494,607
493,492,492,492,637
493,491,493,493,630
492,497,493,494,589
491,504,494,494,490
489,498,493,494,412
487,486,491,492,378
488,490,492,494,370
488,493,490,493,375
489,494,491,493,388
489,488,491,494,437
490,491,491,492,498
489,487,492,492,567
491,489,490,491,630
491,490,491,490,635
491,492,491,492,622
492,500,492,495,551
491,509,492,494,449
491,502,493,493,398
491,484,491,493,369
491,478,491,492,372
490,496,493,494,382
491,503,492,494,410
490,501,493,494,462
488,487,491,493,523
488,470,489,492,603
489,486,489,493,634
489,493,491,494,630
489,496,489,492,600
490,489,493,494,503
491,490,492,493,419
491,490,491,492,383
492,494,492,490,370
491,492,490,493,376
490,492,489,492,385
493,495,492,492,432
491,498,491,494,490
491,500,492,495,556
490,500,493,495,623
493,499,490,494,637
493,505,492,494,623
491,493,491,491,564
492,485,491,492,457
491,482,491,492,401
490,486,491,493,370
488,482,489,493,369
491,489,491,491,379
490,489,492,494,402
490,490,492,492,455
490,490,491,492,515
490,492,492,494,593
490,491,490,492,635
490,494,492,493,632
490,491,491,493,607
491,489,491,494,514
491,494,491,494,426
492,495,491,492,388
490,499,494,492,371
492,493,492,492,377
490,495,491,491,386
491,496,491,491,424
490,486,491,493,482
489,487,489,492,546
488,487,491,491,617
489,489,491,493,636
489,493,492,494,625
489,497,494,495,575
491,494,492,494,469
492,496,492,494,405
494,511,494,495,376
497,527,495,495,373
495,516,493,492,378
491,471,488,491,395
488,465,488,491,448
488,489,490,492,510
490,495,492,495,585
490,487,493,493,633
492,485,492,492,633
492,488,492,494,614
492,491,490,492,527
492,491,493,493,432
491,490,490,493,390
489,492,489,493,369
488,491,491,494,375
491,491,490,493,385
489,493,490,492,416
490,494,492,493,477
489,493,492,492,541
491,491,491,492,615
492,492,493,493,637
490,492,491,494,629
491,496,494,495,581
490,491,493,495,480
491,490,492,494,410
490,491,494,493,375
490,492,491,493,370
490,494,491,490,378
489,492,493,494,397
492,493,490,493,445
491,491,492,492,502
491,491,493,494,577
490,504,495,495,631
490,506,493,495,635
492,502,494,494,623
489,485,492,492,540
491,497,493,493,441
492,505,495,496,396
493,509,494,492,369
489,485,492,493,372
489,466,489,493,382
490,489,490,493,410
489,487,490,492,470
490,487,489,493,531
490,490,489,492,608
490,494,492,492,638
492,492,491,491,630
492,490,489,492,591
493,490,490,493,493
491,491,491,493,414
492,492,492,492,380
492,489,491,495,370
489,492,492,492,377
490,494,492,493,390
489,492,490,494,436
491,491,491,492,495
490,490,492,492,566
492,490,489,492,628
491,490,490,493,633
490,491,492,491,624
492,495,492,495,551
491,493,492,493,449
491,492,492,494,400
491,493,492,492,372
490,493,491,491,372
489,491,492,494,382
492,492,489,493,406
490,493,490,493,462
491,496,491,494,523
490,498,491,494,601
490,499,492,494,635
489,492,490,494,630
491,493,492,493,598
491,491,492,492,506
491,499,492,493,421
492,507,492,493,385
493,511,492,495,371
490,493,491,494,374
492,487,492,492,388
489,488,494,495,431
490,491,492,493,490
490,479,490,492,555
490,477,488,493,625
490,490,490,492,635
490,492,490,492,625
492,492,491,492,564
493,493,493,493,460
492,492,493,492,403
492,489,492,494,370
493,494,491,492,371
490,494,494,492,381
491,493,493,490,404
491,494,492,492,453
491,493,494,494,514
490,492,491,493,593
493,493,494,493,635
492,492,494,496,632
491,493,493,495,608
491,493,494,495,517
492,493,492,492,426
491,492,489,493,386
491,490,491,491,372
491,491,489,493,376
492,489,490,493,385
492,491,495,493,424
490,491,491,493,482
491,494,491,492,547
489,494,491,495,619
490,493,490,494,638
491,496,489,492,625
491,498,488,492,578
493,497,493,494,470
493,502,495,493,408
493,507,496,495,373
495,510,497,494,371
493,495,500,493,378
494,488,501,492,399
492,487,502,492,450
493,487,499,493,510
491,487,492,493,585
491,493,493,493,633
491,494,495,494,634
489,492,492,493,617
490,490,496,492,527
491,493,494,493,433
491,494,490,494,391
490,493,490,495,371
493,491,490,493,376
491,491,490,493,382
491,492,493,493,419
492,492,495,493,477
490,495,493,493,538
490,499,494,493,615
490,500,496,496,639
492,510,499,496,629
491,508,502,496,585
491,487,507,495,483
493,493,502,493,412
493,494,505,495,376
492,497,502,494,372
493,494,506,495,378
492,495,498,494,394
491,496,488,494,442
491,501,485,493,504
490,503,490,495,576
489,501,497,494,630
491,497,505,495,638
492,492,506,494,623
494,484,500,492,542
494,479,499,493,441
491,475,483,491,394
491,492,477,492,368
489,492,475,493,372
489,491,477,493,382
490,490,482,491,409
490,490,482,493,468
489,490,483,493,528
491,492,487,491,609
492,492,487,494,637
491,490,488,494,628
490,490,487,495,594
491,492,489,495,494
492,490,490,494,416
493,493,494,495,382
492,497,498,494,373
492,507,498,494,379
494,513,501,497,390
495,517,498,495,438
492,505,502,494,497
493,496,500,495,565
492,497,499,495,626
492,477,505,492,635
493,478,498,493,625
492,489,500,496,552
494,493,514,495,453
494,492,504,493,401
493,496,498,493,372
491,497,510,493,372
491,495,512,493,384
494,503,515,496,406
492,498,506,495,462
491,492,491,494,522
491,491,487,492,602
490,488,476,494,634
492,491,481,492,630
491,494,494,491,602
493,492,484,492,506
492,489,477,492,419
491,487,480,492,385
490,491,481,495,369
489,490,484,493,375
490,494,492,494,389
490,499,495,494,433
492,501,490,494,489
492,502,480,495,556
494,500,483,495,624
493,492,500,495,635
492,489,505,496,625
490,486,504,495,566
491,490,501,492,462
493,492,509,493,404
493,492,499,494,372
491,497,494,492,372
492,494,490,492,380
493,492,497,492,401
493,488,494,493,453
489,484,485,493,513
489,482,489,492,593
489,492,495,494,635
490,499,492,492,634
491,501,492,491,612
491,504,486,496,519
492,493,484,494,426
492,490,484,493,387
492,489,487,493,370
491,488,489,493,374
490,490,489,492,386
492,490,492,495,424
492,490,489,492,481
491,492,494,492,548
491,495,494,492,620
492,496,495,493,636
491,497,498,494,626
492,494,501,493,579
493,496,501,494,471
493,494,501,495,408
492,501,501,496,374
492,501,493,495,372
494,501,500,496,382
494,501,506,496,398
492,496,500,493,449
492,495,505,494,510
491,493,500,493,581
491,490,487,492,633
491,488,487,493,633
491,487,481,492,617
489,491,488,493,531
490,493,489,494,436
491,494,489,493,390
490,492,482,491,372
492,493,493,491,375
490,492,493,493,381
491,491,490,495,416
489,492,494,493,473
491,493,490,492,537
490,493,487,494,614
493,493,489,492,638
491,495,491,492,629
492,494,489,493,587
492,494,489,493,484
492,495,492,494,410
491,493,492,493,375
491,495,494,491,368
490,493,494,494,377
490,492,493,494,392
490,495,493,493,441
491,494,491,494,502
489,494,491,494,571
490,495,489,493,631
491,494,489,495,634
492,493,492,495,621
494,497,493,492,545
492,494,493,495,445
493,495,496,493,396
492,493,500,494,371
491,494,494,493,374
492,495,492,494,381
490,493,493,492,411
493,493,493,493,467
492,494,492,492,527
490,492,492,493,606
489,492,493,495,636
490,493,494,494,629
492,494,494,495,594
490,495,494,494,496
492,495,496,493,415
490,494,495,492,382
492,496,490,492,370
493,494,493,493,376
492,493,491,493,390
491,496,492,493,433
491,494,491,491,495
490,494,492,493,562
489,493,493,492,625
491,493,494,493,637
491,493,493,495,622
493,496,492,494,556
493,495,493,495,453
491,494,492,494,400
491,495,493,493,368
490,493,494,493,373
492,494,495,494,381
490,494,495,493,406
492,495,493,493,461
494,494,492,493,521
495,493,493,494,598
495,494,492,493,636
493,494,494,494,629
492,494,497,496,601
491,493,493,495,509
492,493,491,494,422
494,497,492,494,387
495,494,490,493,370
494,495,491,492,377
489,495,491,493,388
491,495,491,492,429
489,494,494,493,486
490,494,495,493,555
490,495,495,494,620
488,494,496,494,635
488,494,493,494,626
489,495,488,494,566
491,496,493,494,463
491,495,494,494,404
492,495,490,492,370
493,495,491,493,370
492,492,492,494,378
490,494,491,492,404
491,496,493,494,453
492,495,491,494,514
492,494,494,494,592
490,495,495,493,635
492,496,493,492,633
490,494,493,494,613
493,496,492,495,520
491,495,492,493,427
493,495,494,494,388
493,494,492,495,370
493,493,491,492,376
493,495,493,493,385
491,492,490,494,424
489,494,492,492,480
487,495,492,492,545
488,494,490,492,617
487,495,493,493,635
489,493,492,492,629
490,493,492,495,576
489,495,494,494,473
491,495,494,494,409
493,494,494,493,375
495,494,491,493,371
493,495,492,494,378
492,494,490,491,399
494,494,491,492,447
491,494,492,493,507
489,492,492,491,581
487,493,492,495,631
491,495,491,493,634
489,495,494,492,618
490,496,495,493,533
491,496,493,493,435
491,495,491,493,391
491,495,494,495,370
490,493,490,493,371
490,493,492,494,382
489,493,492,495,414
489,495,491,492,473
490,494,493,493,536
491,493,491,492,614
490,496,492,491,637
491,495,491,492,628
492,494,491,493,588
493,496,494,493,485
491,496,493,492,411
490,495,491,492,375
490,494,491,495,370
489,495,493,494,378
489,494,493,493,392
492,494,491,492,441
490,495,491,493,501
490,495,490,492,571
491,495,490,492,629
490,494,490,495,634
490,496,491,492,622
490,494,492,495,545
492,496,492,494,444
491,495,493,493,395
490,496,494,493,371
489,496,492,494,372
489,494,491,492,380
491,495,493,495,410
492,494,491,493,465
490,495,492,493,526
490,494,492,495,605
490,494,492,494,636
491,493,491,493,631
490,496,492,494,593
491,498,492,492,497
491,497,493,493,417
491,496,491,493,382
493,495,493,494,370
491,494,491,494,378
490,495,491,494,388
489,494,493,494,434
489,494,492,493,493
490,494,492,493,561
491,493,492,492,627
491,493,492,495,636
492,495,490,493,624
492,496,491,493,557
491,494,493,493,455
491,496,492,492,399
490,495,493,492,372
491,496,491,494,372
490,496,492,493,381
490,496,493,493,405
489,495,492,493,459
490,494,491,494,517
491,495,491,492,599
489,494,493,494,634
490,495,492,494,630
490,494,493,495,603
490,494,492,494,511
492,496,492,494,422
490,496,492,494,386
491,497,492,493,371
491,497,490,492,376
491,495,490,494,387
489,494,491,493,426
491,494,489,493,486
490,495,490,494,552
489,493,491,494,620
489,495,492,494,637
490,495,491,494,625
491,496,495,491,571
491,494,495,495,466
491,496,494,493,404
492,495,490,492,371
492,496,490,493,370
491,494,491,492,381
491,496,491,495,399
489,496,490,493,454
490,493,491,492,513
490,495,492,492,590
490,496,493,492,635
490,494,492,493,632
491,495,490,494,612
489,495,490,494,521
492,496,491,493,430
491,494,492,494,388
490,494,493,492,373
492,495,495,493,375
491,493,493,494,387
491,498,493,491,422
491,496,485,492,478
491,495,490,492,544
490,494,493,493,616
492,494,492,492,637
491,494,492,494,628
489,494,492,496,578
490,495,493,494,475
490,495,492,494,409
492,495,491,494,374
491,497,493,495,369
489,494,490,492,379
492,495,490,492,395
491,494,491,494,446
490,493,490,493,507
491,494,491,494,578
492,495,490,492,633
491,495,492,492,634
492,496,492,491,620
492,497,491,492,532
491,495,490,492,435
491,496,492,493,393
490,494,490,493,369
491,494,492,494,372
489,494,493,495,382
489,496,491,492,415
490,495,492,493,471
490,495,491,493,536
491,496,491,491,613
492,495,490,492,636
492,495,491,494,627
491,494,493,493,589
491,495,492,495,485
491,496,492,494,412
491,495,493,494,377
489,495,494,493,370
490,495,493,492,377
490,494,491,491,393
491,496,493,494,438
490,494,491,492,500
492,495,490,493,567
491,494,491,493,627
490,496,492,492,636
490,495,493,494,621
493,495,490,494,547
491,496,493,494,446
491,496,492,492,397
491,496,492,495,369
490,494,490,493,372
492,495,493,492,382
491,493,490,493,408
490,493,490,493,464
490,494,492,494,526
489,494,492,494,606
493,495,490,493,637
491,496,493,494,629
489,496,490,491,597
493,497,491,493,499
492,496,492,493,417
491,496,492,493,383
491,494,490,493,370
492,496,490,494,376
490,495,493,493,388
489,495,493,492,433
490,495,492,493,492
491,494,491,492,560
491,494,492,495,624
491,494,490,493,635
491,493,491,494,623
490,494,492,495,558
492,496,493,494,454
492,495,491,492,400
492,496,494,494,371
490,495,493,492,373
491,496,491,491,380
491,495,491,492,405
492,494,492,494,457
491,494,491,492,517
490,494,491,494,596
490,493,490,494,634
490,495,492,494,632
489,495,492,493,605
493,495,494,493,512
491,495,493,493,423
491,495,492,492,387
492,496,493,492,371
492,494,488,493,374
490,496,490,492,384
491,494,490,492,428
491,496,490,494,486
490,494,490,493,551
490,495,491,493,620
490,496,492,495,635
491,495,491,492,626
491,494,493,495,571
495,495,492,494,466
493,496,491,493,404
491,495,492,495,369
490,493,492,492,372
492,495,493,493,380
489,494,491,492,400
490,496,492,492,452
490,495,491,493,511
490,495,491,491,588
489,494,492,495,633
491,493,491,493,633
490,497,492,495,613
490,495,492,495,523
490,496,491,493,430
490,495,491,493,391
492,496,494,493,371
493,494,491,494,376
494,494,490,493,387
494,495,489,492,420
493,496,491,492,477
490,494,492,493,543
489,493,491,492,617
490,494,491,494,637
489,495,492,494,628
489,496,493,494,581
489,496,493,493,477
491,495,492,494,410
491,496,492,495,373
488,494,492,494,370
491,494,492,494,377
490,493,493,494,394
489,493,486,492,447
491,494,488,493,505
491,495,490,493,580
490,494,494,493,633
491,495,491,492,635
491,496,490,492,620
489,494,493,493,536
492,495,492,494,437
490,495,491,493,393
490,494,491,494,369
490,494,491,494,373
489,495,490,493,384
490,495,493,492,412
490,494,490,493,472
490,494,491,493,536
491,495,489,492,612
492,495,490,493,636
491,493,492,492,632
491,494,492,495,586
492,497,491,493,488
491,494,492,493,413
491,495,492,493,378
490,496,493,492,369
490,493,491,492,378
492,495,492,495,390
489,494,490,493,439
491,494,490,493,498
491,494,490,493,565
489,495,491,492,631
490,494,492,493,634
491,494,490,492,624
490,496,493,493,550
492,496,492,493,447
491,496,492,494,396
491,495,490,493,371
494,495,492,492,373
490,493,490,494,380
490,492,490,494,407
490,494,492,493,463
490,494,492,493,526
491,493,491,492,606
490,495,492,494,634
489,496,490,493,631
492,495,486,492,598
493,495,490,493,500
492,495,492,493,418
491,495,491,493,382
491,497,490,496,369
489,494,491,493,377
490,495,491,492,388
490,496,492,494,430
490,493,490,492,492
490,494,493,493,557
492,493,490,492,625
490,493,490,494,635
490,493,491,494,623
492,496,492,492,561
490,495,492,493,457
492,495,493,494,402
491,496,493,492,372
491,496,491,491,372
492,495,490,492,380
491,494,493,494,404
491,493,490,492,456
490,494,491,493,517
489,493,491,494,595
489,493,491,493,635
489,495,492,493,631
491,494,492,492,608
491,494,491,494,512
491,496,492,493,425
492,495,490,493,387
493,494,490,491,371
490,495,492,492,374
491,493,491,491,386
492,496,492,495,425
489,493,491,494,485
491,493,493,492,549
489,495,490,494,618
490,495,490,492,638
489,495,492,493,626
491,494,490,493,572
492,494,491,493,468
491,496,491,494,405
490,494,491,492,373
491,495,490,494,371
490,493,490,492,377
490,495,494,492,402
491,494,491,492,450
490,494,491,492,509
489,493,492,494,586
492,494,490,493,633
491,495,491,495,632
489,493,492,495,615
490,494,491,494,526
491,495,492,493,432
492,495,492,493,391
491,494,490,494,372
491,496,489,492,375
492,494,489,493,384
492,494,490,492,419
490,494,494,492,477
491,493,491,492,542
491,493,493,494,614
489,493,492,493,638
490,495,492,492,629
491,495,493,492,583
490,494,491,495,480
491,495,491,493,408
490,494,491,493,374
492,494,489,493,369
490,493,491,494,377
490,494,491,492,397
492,493,492,494,444
492,495,491,492,503
489,494,492,492,578
490,494,491,492,632
491,495,490,492,633
489,495,493,494,620
493,493,494,492,538
491,495,492,494,439
491,495,491,494,394
490,495,492,495,369
490,494,491,493,372
490,494,492,492,382
490,493,490,491,414
491,494,491,492,471
490,494,491,492,532
491,493,489,493,609
492,494,492,493,638
491,491,492,495,628
492,496,490,492,588
489,495,493,495,491
490,493,491,493,413
490,494,492,492,376
490,492,490,492,371
492,494,491,494,376
490,494,490,493,390
492,493,490,493,436
491,493,489,493,497
491,495,490,492,567
488,492,491,495,629
491,493,490,493,636
491,495,491,492,624
491,496,492,493,552
493,496,492,495,447
491,494,492,493,398
492,495,493,493,371
492,494,491,494,370
489,493,491,494,381
489,492,492,495,406
489,494,492,493,462
491,493,491,493,524
490,494,491,493,601
489,495,491,493,637
491,494,490,494,631
491,493,490,493,598
492,496,493,493,504
491,494,492,494,419
491,495,491,494,381
489,493,492,496,370
489,495,492,492,377
490,495,492,494,385
490,493,491,492,434
491,493,490,494,490
490,494,491,493,557
490,493,489,493,624
490,492,490,494,635
491,495,490,492,626
489,494,493,492,564
493,495,492,494,457
491,494,493,493,403
491,495,491,492,373
492,496,490,492,371
492,495,493,493,380
491,493,491,493,403
490,496,491,493,455
490,493,491,494,516
489,493,492,494,594
488,494,492,493,633
490,494,491,493,634
491,493,492,495,607
492,496,491,493,516
492,496,492,494,426
492,494,491,493,386
490,496,494,493,369
490,493,492,492,376
492,495,492,493,384
488,493,493,493,425
490,494,492,493,483
491,494,490,493,547
490,495,491,492,621
490,494,492,493,636
491,494,490,493,626
491,493,491,494,575
491,494,492,494,470
491,495,492,493,408
491,493,493,494,373
489,494,490,493,370
490,496,492,492,381
490,495,492,492,402
491,495,490,492,449
490,493,491,493,510
491,493,492,493,586
490,495,490,494,631
490,493,492,494,633
489,494,492,494,616
490,494,491,492,527
492,496,493,493,433
491,494,492,493,391
492,497,492,492,372
491,495,490,493,374
492,493,489,494,384
489,494,493,494,416
490,493,491,493,476
491,493,491,493,539
490,493,492,494,614
489,493,491,494,639
490,494,490,492,629
489,493,489,495,586
492,496,490,494,480
491,494,492,492,411
491,494,493,494,375
492,493,491,493,369
490,493,491,491,378
491,493,492,494,394
492,494,490,492,443
489,494,492,493,503
489,494,492,492,576
490,495,491,492,630
489,493,492,493,634
491,494,492,493,622
490,494,490,494,537
491,494,493,494,442
490,494,492,494,395
490,495,490,491,370
489,493,494,492,372
490,492,491,492,383
491,497,491,491,413
491,494,491,493,469
489,493,490,492,530
491,493,493,492,609
489,493,491,494,635
491,495,491,492,629
489,494,493,495,591
489,494,493,494,493
491,494,492,493,414
492,494,493,493,381
491,496,491,495,368
490,494,490,492,376
491,493,491,493,389
491,492,490,493,436
491,494,492,492,496
490,493,491,494,567
492,494,490,493,627
490,494,492,493,636
491,495,492,492,624
491,496,493,495,550
490,495,492,493,449
491,494,492,494,398
491,494,491,493,368
491,493,492,494,370
489,493,492,494,381
490,493,492,495,406
492,494,491,493,461
489,493,492,492,522
490,494,493,492,603
491,495,492,492,637
491,494,489,493,631
492,495,492,493,601
492,493,492,494,507
491,496,492,493,417
491,494,493,494,383
491,493,494,495,371
491,494,493,494,373
491,493,491,492,389
490,492,491,494,429
491,494,491,492,488
490,493,491,493,555
491,492,490,494,623
490,495,491,492,635
489,493,494,493,626
492,495,493,494,565
491,495,493,494,460
490,494,493,493,403
490,494,492,492,373
491,492,492,494,369
492,493,491,492,380
490,495,493,492,400
490,493,491,494,454
490,493,491,493,515
489,493,491,492,593
492,494,493,493,636
490,492,491,494,631
491,495,491,492,612
492,497,492,493,518
492,495,492,493,427
491,494,492,493,386
491,493,491,493,372
491,495,491,494,373
489,494,492,494,384
489,493,493,494,424
490,494,490,492,480
491,494,493,492,548
489,492,492,494,621
493,494,490,492,636
492,493,490,494,626
492,492,489,494,576
493,493,491,493,472
493,495,492,494,407
492,494,491,492,373
490,493,493,493,370
490,495,493,492,380
490,495,492,492,399
489,493,492,494,448
490,494,491,493,509
490,494,490,493,581
492,493,490,494,632
490,493,492,494,633
491,493,490,492,618
493,494,494,494,530
491,494,491,493,434
490,495,492,492,392
491,496,491,492,372
492,494,490,494,374
491,494,493,493,382
491,493,494,492,418
491,493,491,494,473
490,493,492,494,537
488,493,493,494,613
488,494,492,493,638
490,493,492,494,629
491,495,492,496,584
490,494,491,493,483
492,495,492,493,411
491,494,492,494,376
491,493,493,492,371
492,493,492,495,377
492,493,490,492,394
492,494,493,492,442
492,493,493,493,502
492,494,491,492,572
494,493,492,492,632
500,494,493,493,637
500,492,491,494,620
501,493,492,495,541
498,494,493,494,444
492,495,491,492,396
490,494,493,494,370
487,493,491,492,373
483,496,491,491,381
483,495,491,491,411
486,494,491,493,467
487,493,491,493,528
488,493,491,495,606
489,495,491,492,636
489,494,493,493,630
489,495,494,494,592
489,495,494,493,494
491,495,492,494,415
490,495,492,495,379
490,495,490,492,370
492,493,491,493,376
490,493,491,493,388
490,496,491,491,436
489,493,491,493,495
490,493,491,493,564
489,494,493,493,627
490,495,492,492,636
491,495,492,495,623
489,493,491,492,555
492,494,493,495,452
491,494,492,492,399
491,493,494,494,369
491,493,489,495,372
488,493,489,494,381
491,494,488,494,405
489,494,491,492,461
491,493,491,492,521
490,494,492,491,602
490,495,493,493,636
490,494,492,492,631
490,492,492,494,604
490,496,493,494,506
491,495,493,493,419
490,494,493,494,385
489,494,493,492,369
491,492,492,491,376
490,493,491,494,385
492,495,489,492,428
491,494,491,492,486
490,494,491,493,553
490,495,492,492,620
490,493,492,492,637
491,494,492,494,626
490,494,494,494,567
490,495,493,494,462
490,494,493,494,405
491,494,491,494,368
492,496,490,493,371
490,494,493,493,378
491,493,493,493,399
489,492,492,494,453
489,493,491,493,515
490,494,492,494,591
489,493,490,494,634
491,495,492,492,633
491,495,492,492,613
491,496,492,492,521
491,494,492,494,426
491,494,492,493,388
490,495,490,493,369
490,493,491,494,372
489,493,493,494,385
489,492,491,493,422
491,494,492,493,479
489,493,491,494,548
490,495,490,492,619
491,494,489,492,636
492,494,489,494,627
491,492,489,493,579
492,496,491,494,473
493,494,492,493,409
491,494,493,494,372
489,494,495,493,371
490,495,493,493,380
490,493,491,495,398
491,495,491,494,447
489,493,491,492,507
491,493,491,492,579
491,493,490,493,631
490,493,491,492,635
492,494,493,494,618
493,494,491,493,532
491,494,493,493,435
491,495,492,492,393
491,495,492,492,369
490,493,492,492,374
492,494,493,493,384
490,492,490,493,414
491,493,491,492,471
491,493,492,494,535
490,492,494,494,613
493,494,493,493,638
492,494,491,495,628
490,493,490,492,588
492,496,491,494,485
492,495,492,493,413
491,494,493,493,377
491,494,490,494,368
492,495,491,492,377
490,493,493,494,391
489,494,493,493,440
490,493,492,493,501
492,493,491,491,572
491,495,491,494,628
490,494,490,493,634
492,493,490,493,621
493,493,491,494,544
491,495,493,493,445
492,494,491,493,397
492,494,491,495,371
490,493,492,492,373
492,494,492,492,382
491,494,492,492,410
491,494,491,493,464
491,493,491,492,526
490,494,493,493,606
491,492,491,494,635
490,493,492,494,629
490,493,492,496,596
494,494,490,493,497
492,494,492,493,416
492,494,491,492,382
493,496,491,491,369
493,494,491,493,376
491,494,494,492,389
492,493,491,493,434
490,494,492,493,493
491,493,492,493,561
490,493,492,494,624
491,494,492,494,635
491,492,492,491,625
493,493,492,495,555
494,495,491,494,454
492,494,490,492,399
492,494,491,493,369
493,493,491,494,373
493,494,492,493,379
489,493,491,491,406
492,493,492,493,459
490,493,491,493,518
491,494,493,492,599
490,492,491,494,634
491,494,490,493,631
490,495,494,494,602
492,493,491,493,508
492,494,492,493,421
490,493,492,493,386
492,494,492,494,371
490,493,491,493,374
491,495,492,492,387
491,495,491,491,428
491,494,491,492,485
491,492,492,493,552
492,493,489,493,622
490,495,492,494,635
490,493,492,494,625
490,494,493,495,568
490,495,493,494,464
491,494,491,493,404
492,495,491,492,368
490,492,493,492,371
492,493,489,492,379
492,493,490,492,399
491,492,491,493,454
490,494,491,493,512
490,493,491,492,590
490,493,493,494,636
491,494,492,491,633
492,495,492,491,615
490,492,492,495,522
492,494,493,493,428
490,493,492,493,389
492,493,489,493,370
491,492,491,494,374
489,493,491,493,386
492,489,494,493,421
491,494,491,492,480
490,493,491,492,546
491,495,491,491,619
492,494,490,492,636
491,492,491,493,629
491,495,491,494,578
492,494,492,493,476
491,495,492,494,408
491,494,492,494,373
489,494,493,493,371
491,492,491,494,379
492,494,492,495,395
489,492,491,492,447
491,493,491,492,506
491,491,491,493,577
491,492,493,492,633
492,493,492,493,633
492,493,492,493,620
490,493,497,493,535
492,494,495,493,436
492,495,491,492,391
490,493,492,493,372
493,494,493,493,373
491,491,492,494,381
491,491,490,494,413
490,493,490,493,470
490,493,491,494,534
491,493,488,493,612
490,494,491,494,636
489,490,490,492,631
492,495,491,492,589
493,495,491,493,487
491,494,492,494,412
490,493,491,493,376
491,496,492,492,369
489,494,492,494,378
490,494,492,492,392
490,495,492,492,438
491,493,490,493,499
491,494,491,493,568
489,493,491,493,630
491,492,492,493,633
490,492,491,494,621
490,496,492,492,549
491,494,493,494,446
491,494,491,493,397
491,495,493,492,371
490,495,491,491,374
492,495,491,492,380
491,494,493,494,408
490,492,490,492,464
490,493,492,492,525
490,492,491,494,604
490,492,492,493,636
490,494,492,493,630
490,492,491,492,598
490,496,491,494,498
490,495,492,493,418
491,494,491,492,382
492,493,492,492,368
490,494,493,491,378
489,492,491,494,389
491,495,490,494,432
489,493,492,493,493
490,492,492,492,559
490,494,492,494,623
489,493,491,493,637
492,494,493,493,624
492,493,491,494,559
492,494,492,493,455
492,494,491,493,400
491,494,493,495,372
493,495,491,493,373
490,494,490,493,378
490,494,492,491,406
492,494,491,492,458
491,493,492,492,517
491,493,493,493,597
492,493,490,492,635
490,494,491,494,630
488,493,493,495,604
489,493,493,494,511
490,493,492,493,422
491,495,493,492,387
490,493,491,493,368
491,495,490,493,375
491,493,490,493,386
492,493,489,493,424
490,492,492,492,485
489,493,491,492,552
491,495,495,494,619
489,494,493,492,637
490,494,490,491,626
491,495,492,492,573
491,493,492,494,465
491,494,491,491,402
490,494,493,493,369
492,493,491,493,369
490,492,491,493,377
490,493,492,491,401
492,494,493,492,450
490,494,491,492,510
490,494,491,492,589
490,495,491,492,633
491,494,490,492,631
490,494,493,493,613
492,493,491,492,524
491,495,492,493,429
490,494,492,494,389
490,494,492,495,370
491,494,490,493,373
492,495,492,492,385
491,492,490,494,421
492,494,492,492,478
490,493,492,493,542
491,491,489,493,614
490,492,492,492,638
490,494,492,494,628
489,494,490,492,581
489,494,493,494,478
490,493,491,493,410
490,495,492,491,375
490,492,491,494,371
491,493,490,493,378
490,494,492,493,394
491,491,491,493,445
490,493,491,492,503
490,493,490,492,578
491,493,493,494,633
491,493,491,493,635
491,495,491,491,621
491,495,491,492,537
492,494,492,493,437
490,494,493,494,393
491,493,492,492,371
490,494,492,494,372
489,493,493,493,383
489,493,493,493,413
490,494,492,492,468
490,493,491,493,533
491,494,491,494,608
489,492,491,493,637
491,492,491,494,628
490,491,491,494,588
491,494,493,493,490
491,494,492,493,414
492,494,491,492,378
490,493,494,492,371
490,495,491,491,378
491,494,490,491,388
489,492,493,493,438
491,493,492,492,498
490,493,492,493,566
489,492,492,494,627
490,493,492,493,635
490,493,491,493,621
490,495,494,492,547
491,492,493,493,447
490,495,492,493,398
491,494,490,492,372
493,493,490,493,370
491,492,492,492,382
491,492,491,495,406
492,494,490,492,463
490,492,492,493,525
490,494,492,492,605
491,495,493,491,635
489,493,492,493,631
492,492,491,495,597
490,493,491,494,500
491,493,492,493,417
491,493,492,494,382
490,496,492,491,370
490,494,492,493,376
491,492,491,491,389
490,495,492,491,433
491,493,492,492,491
491,494,490,493,557
489,493,490,493,625
490,494,491,491,637
490,492,492,494,624
489,492,493,496,562
490,493,492,493,457
490,493,492,492,400
491,493,491,492,372
490,495,492,494,370
489,494,491,492,379
492,493,490,492,403
491,493,490,493,456
491,494,491,493,517
490,492,491,494,598
492,494,489,492,634
490,494,492,492,633
491,494,492,491,609
490,496,491,495,512
490,493,493,493,424
491,493,492,493,386
492,494,490,493,369
491,492,492,494,375
489,493,492,494,385
492,495,491,491,425
489,493,492,492,484
490,493,492,492,549
490,495,492,492,621
490,494,491,492,636
491,493,490,493,625
492,494,495,494,574
492,493,493,493,468
491,494,494,493,404
490,493,490,495,370
489,493,490,494,372
490,494,493,493,377
490,492,494,492,401
490,493,491,493,449
490,495,491,492,510
491,492,489,493,585
492,492,489,493,632
491,494,491,492,632
489,493,492,492,617
493,494,493,493,525
490,494,496,493,431
490,494,493,492,391
491,495,491,494,367
490,495,491,493,375
489,493,491,493,382
491,493,490,493,416
490,492,491,493,477
490,493,491,493,540
489,492,492,492,616
492,494,493,494,639
490,492,490,494,627
491,495,493,492,584
491,495,492,493,480
491,494,492,492,410
490,493,493,493,374
492,492,490,492,371
491,495,492,494,375
489,491,493,494,393
488,492,492,494,444
490,493,491,492,502
490,493,492,492,577
490,492,491,494,631
492,493,491,492,634
491,492,490,494,620
492,492,491,493,540
491,494,493,493,440
490,493,492,492,396
492,493,493,494,368
489,494,494,492,374
490,494,492,493,383
490,495,492,491,413
490,492,492,493,469
490,492,491,494,531
490,493,490,492,609
491,493,492,494,636
490,491,492,494,629
489,493,490,492,592
493,494,494,494,492
492,494,492,492,413
490,495,493,493,380
491,495,493,493,371
491,494,491,492,376
490,494,493,492,389
492,492,493,492,438
490,493,491,492,496
490,493,491,494,564
489,492,492,495,627
489,493,491,493,634
491,495,493,492,622
491,491,490,492,552
492,494,492,492,448
491,493,492,492,399
492,492,490,493,371
493,492,492,492,372
491,491,492,494,380
491,495,490,491,404
490,492,492,493,461
490,493,491,493,523
491,493,492,492,601
491,492,490,492,637
492,493,491,494,631
490,493,490,492,599
493,493,493,493,503
491,493,493,494,419
490,494,491,492,384
489,493,492,496,371
492,492,490,492,377
490,494,493,492,388
490,495,494,492,431
491,493,492,493,488
491,492,488,493,556
492,493,492,493,625
491,492,491,493,634
489,492,493,495,624
489,492,493,495,565
490,493,492,494,459
491,494,491,493,402
490,494,491,494,369
491,495,491,491,371
492,494,490,492,380
492,493,491,491,403
492,494,492,492,455
490,493,491,493,518
490,493,490,493,593
489,492,493,493,635
489,493,493,493,634
491,494,492,495,607
491,492,492,493,517
491,492,492,494,426
492,494,491,493,386
492,492,490,492,370
491,492,491,494,374
492,493,491,492,384
489,492,493,492,425
490,493,491,493,482
489,493,491,492,549
490,494,491,492,620
491,493,489,492,637
492,493,494,493,626
491,492,491,493,577
491,495,493,493,468
492,494,492,494,405
490,493,493,495,371
490,492,493,493,371
492,493,493,492,380
490,492,491,494,397
491,495,491,491,450
490,494,491,493,509
491,492,491,492,584
489,493,492,493,630
490,492,492,492,634
492,494,493,494,615
489,493,493,494,528
490,494,492,493,433
490,493,491,493,390
491,494,493,492,372
489,493,492,494,374
492,494,490,492,382
493,493,490,492,416
490,492,492,493,475
490,492,490,492,539
491,495,491,495,613
489,494,490,493,637
490,494,492,491,629
491,495,493,493,586
491,497,492,493,482
491,498,493,494,411
491,499,492,494,376
490,499,490,493,367
490,498,492,494,376
489,495,492,495,393
489,490,490,492,442
491,488,492,492,502
490,489,491,493,576
491,493,491,491,631
491,493,491,493,634
491,491,490,494,622
489,493,493,493,539
491,492,492,493,440
491,492,492,493,393
490,492,493,494,368
489,493,493,493,374
490,493,493,493,384
491,491,490,494,412
490,493,491,494,467
490,492,490,492,530
491,492,490,492,607
491,491,491,494,636
490,492,491,492,631
492,493,493,495,591
493,494,492,493,494
491,494,492,493,414
490,494,493,493,381
491,495,492,492,369
490,494,490,492,376
492,493,492,493,391
489,492,488,493,434
490,493,490,492,495
490,492,493,494,563
489,493,491,492,628
490,494,495,492,635
490,492,495,492,625
491,495,490,492,554
492,495,493,493,450
490,494,492,492,399
492,493,493,493,370
489,492,491,493,370
490,493,491,492,379
490,492,491,494,404
489,493,492,493,460
490,493,492,493,522
491,492,490,491,603
490,495,491,494,635
489,493,490,493,630
491,493,489,493,600
492,493,492,494,506
491,494,491,493,420
490,493,492,494,384
492,493,490,494,370
491,494,492,492,375
490,495,492,492,387
490,496,492,494,429
491,493,491,492,487
490,492,492,493,555
491,492,490,493,622
491,492,491,494,635
490,492,492,494,625
489,492,493,495,568
493,494,492,494,460
491,493,491,494,403
491,494,491,493,371
491,496,491,492,371
492,493,491,493,379
492,494,493,493,402
491,492,492,493,455
490,494,491,493,514
491,493,492,494,591
489,493,493,493,635
490,494,492,494,631
491,492,491,492,612
491,492,492,495,518
491,494,492,493,426
492,494,491,492,387
491,493,490,493,370
490,495,491,492,373
489,493,492,492,385
492,493,493,493,423
490,493,492,493,481
490,493,492,492,547
490,494,492,492,620
491,493,492,494,636
491,493,491,494,628
490,494,494,494,575
492,493,492,493,470
491,494,492,494,407
490,493,493,493,374
494,494,493,493,370
491,492,492,494,377
491,494,492,491,400
492,495,490,492,447
491,493,491,493,508
490,493,492,492,580
491,492,490,492,633
491,493,491,494,633
489,493,492,493,616
489,493,494,494,530
490,494,492,493,434
491,494,492,492,391
490,492,492,494,373
492,494,490,492,373
493,492,491,493,382
493,492,490,492,415
491,492,491,492,474
491,493,491,493,536
490,493,490,492,614
489,493,491,493,638
491,495,491,492,630
491,495,492,492,587
489,493,492,494,483
491,494,492,493,411
490,494,491,494,374
491,491,490,493,368
489,494,491,495,377
490,493,490,492,394
493,493,493,492,441
490,493,491,493,503
490,493,491,491,574
491,495,491,491,630
491,494,490,493,635
490,494,492,494,620
492,493,493,492,544
492,493,492,494,443
491,494,492,493,395
490,494,493,495,369
490,494,494,492,374
490,492,491,494,382
491,495,491,495,409
489,491,490,492,467
491,493,491,492,526
491,493,490,494,606
490,492,491,492,638
492,493,493,493,629
491,492,491,493,594
490,495,493,493,495
491,494,492,493,415
490,494,492,492,379
490,492,492,491,369
492,493,493,492,377
490,492,491,493,387
491,491,491,494,434
491,493,491,493,495
490,493,490,493,564
489,493,493,493,626
490,492,492,492,637
492,494,490,491,624
493,495,491,492,556
492,494,493,493,453
491,493,493,493,400
491,493,492,494,368
491,495,492,492,371
490,493,492,493,380
490,493,493,493,405
490,493,492,493,459
491,493,490,492,520
491,494,492,494,600
489,494,490,493,635
491,492,491,493,629
490,492,492,494,601
491,495,492,493,510
491,493,492,493,421
491,494,491,493,385
490,494,493,493,371
491,495,491,492,375
491,494,491,494,386
489,492,489,492,429
491,493,492,494,487
491,492,490,494,554
490,492,489,494,621
490,493,491,494,637
490,494,493,494,626
492,493,492,494,570
491,495,494,494,463
491,493,493,493,404
492,494,490,492,371
492,496,491,493,370
491,494,493,493,381
491,492,491,494,402
490,494,491,494,453
490,492,492,493,512
490,493,492,493,590
489,493,493,494,633
491,492,491,492,634
492,494,493,495,610
492,494,491,493,520
492,494,491,492,428
491,493,491,493,387
490,494,492,492,369
489,492,492,492,374
491,494,493,493,385
490,493,493,492,423
490,494,491,493,479
490,494,492,493,545
491,492,492,495,617
492,493,490,494,637
490,494,491,494,626
490,492,490,495,576
490,493,492,494,473
491,493,492,493,409
491,493,492,492,373
490,492,491,494,368
492,494,491,492,379
492,494,490,491,396
493,493,491,492,446
490,493,490,492,506
491,492,490,491,581
492,494,491,495,632
491,494,491,493,634
491,494,493,491,619
489,495,493,495,531
491,494,492,493,435
490,493,493,494,392
491,493,491,493,371
492,493,491,494,372
490,492,491,494,382
490,491,491,492,416
493,493,491,493,472
490,493,490,492,536
490,494,493,492,614
492,495,493,491,637
492,494,492,492,628
489,494,494,494,586
492,493,494,493,485
490,494,489,494,411
491,493,491,494,376
490,492,492,493,370
490,494,491,493,377
491,494,492,491,395
490,492,492,494,442
491,494,492,492,501
491,493,491,493,570
491,493,490,493,631
490,494,492,494,634
490,493,490,492,622
493,492,494,495,545
491,494,493,494,445
491,494,492,493,396
491,495,493,492,372
490,493,492,494,372
492,494,491,492,382
