Sensor0,Sensor1,Sensor2,Sensor3,Sensor4

6462,491,494,493,492
404,491,494,491,492
372,490,1,4,3
493,493,627,490,493
491,492,567,491,495
494,493,462,491,494
493,492,404,491,494
491,492,372,490,493
493,493,369,491,493
491,492,379,491,494
492,493,398,490,493
492,493,451,490,492
491,493,513,491,493
490,491,591,492,493
493,492,635,491,492
491,493,634,492,494
491,491,614,492,495
492,492,521,491,494
492,493,428,490,493
492,492,386,491,492
493,492,371,491,492
492,493,372,490,493
493,493,383,490,493
493,493,421,491,493
492,493,478,491,493
491,492,545,490,494
491,493,616,491,493
490,492,636,492,493
491,493,628,491,492
491,493,579,492,493
492,492,475,491,493
492,493,407,491,494
491,492,371,490,493
493,492,370,490,494
493,493,379,491,494
493,492,393,491,492
491,491,446,491,494
491,493,505,490,493
490,492,580,491,493
490,492,631,490,492
491,494,633,490,494
491,491,621,490,493
493,494,534,492,493
492,493,436,491,493
492,492,393,491,494
493,492,371,491,494
492,492,374,492,494
492,493,380,490,493
491,492,412,491,493
493,492,471,491,494
491,493,533,490,491
491,494,611,489,492
492,493,637,491,493
491,491,630,490,495
491,494,586,491,495
492,492,486,491,494
492,492,413,491,493
491,492,377,493,493
493,492,369,491,492
492,493,377,492,494
491,494,389,490,492
492,493,438,490,492
492,493,499,489,492
492,493,568,491,492
492,491,631,491,492
493,494,636,492,493
490,492,622,493,494
491,492,547,491,493
492,492,446,491,493
491,492,397,491,495
492,494,368,489,493
490,493,372,492,494
492,492,381,490,495
493,492,409,491,495
492,493,464,491,493
491,493,524,491,493
490,492,606,490,493
492,493,635,491,492
492,493,630,489,493
493,495,595,490,493
493,492,500,492,494
492,492,416,490,492
491,492,380,491,495
492,491,369,492,495
491,491,375,492,493
491,492,386,489,494
493,492,430,490,493
491,493,492,490,493
491,493,559,489,492
491,494,623,490,494
493,492,636,490,494
493,492,626,492,492
491,494,558,491,494
493,492,454,491,493
492,492,400,492,493
491,492,369,492,493
492,493,369,491,492
492,492,380,492,495
493,494,400,490,493
492,493,458,490,493
492,493,516,491,494
493,491,598,490,494
493,492,636,490,493
492,493,631,492,493
491,493,607,490,494
491,493,511,492,494
491,492,422,491,493
492,494,385,490,492
492,491,371,493,493
493,493,374,491,493
491,493,385,490,495
493,491,426,491,494
492,492,483,490,493
492,492,550,492,493
490,493,620,490,494
491,493,635,490,494
491,491,628,490,493
492,494,571,490,494
492,493,466,491,494
492,493,406,491,492
491,492,371,490,495
493,494,368,490,493
491,492,378,492,493
490,491,397,492,493
491,493,449,491,493
491,492,510,491,492
491,493,584,491,493
491,491,634,490,493
492,492,633,490,494
492,491,616,491,495
493,492,524,491,493
492,492,429,490,494
492,493,388,489,493
490,491,370,491,492
491,492,370,490,492
491,493,381,489,491
491,494,416,491,493
491,491,475,489,492
491,491,541,491,493
491,493,614,489,493
492,492,637,490,494
492,492,629,491,494
491,494,581,491,495
492,492,480,491,493
492,494,410,491,494
491,492,373,493,494
490,493,368,491,493
492,494,379,492,495
491,494,392,490,493
491,493,443,491,493
491,493,502,490,493
492,492,576,489,494
494,493,632,491,492
492,494,633,492,494
491,492,620,489,493
494,492,538,492,494
492,492,438,491,494
492,492,393,491,492
492,493,369,492,492
492,491,373,492,493
492,493,380,491,494
491,492,411,490,493
492,493,466,490,493
492,493,530,491,494
493,493,608,491,492
491,491,637,491,494
493,494,629,490,493
490,491,591,493,494
492,493,491,491,494
493,492,414,491,494
492,492,379,491,492
491,493,369,491,494
492,494,375,490,493
493,493,387,490,494
493,493,435,491,493
493,493,496,492,493
492,492,566,491,492
491,494,626,491,493
491,493,635,491,493
490,493,623,491,493
491,493,552,491,493
492,492,450,491,494
492,493,397,490,493
492,491,372,491,492
492,493,371,490,494
493,493,380,490,494
494,493,406,490,492
491,492,460,490,493
491,492,520,490,492
492,491,604,492,494
491,492,636,492,493
491,493,629,491,492
492,492,602,490,495
492,493,503,491,495
493,493,419,491,492
492,493,383,490,493
493,494,369,490,495
494,492,376,492,492
492,493,387,491,495
492,494,427,491,493
493,493,489,492,494
491,492,555,492,492
490,492,623,490,492
491,494,636,490,494
491,491,627,489,492
492,495,568,492,494
492,494,460,491,494
492,493,402,490,494
493,493,370,490,493
493,493,369,491,492
492,491,379,491,493
493,495,400,492,493
490,492,454,491,494
492,493,514,491,493
491,492,592,490,494
493,492,633,491,493
493,492,634,492,494
493,494,610,490,493
493,493,519,491,494
493,493,426,490,493
491,493,387,491,495
493,491,372,491,493
493,494,376,492,493
491,493,384,493,494
491,493,422,491,494
492,493,481,491,494
492,492,548,491,494
492,494,617,490,493
491,493,638,491,494
492,492,630,491,495
493,492,578,491,495
493,493,473,491,493
492,493,407,491,494
491,493,371,490,493
491,493,369,491,492
491,494,376,490,493
492,494,395,489,493
491,492,448,491,493
492,492,506,491,493
491,493,585,489,494
493,492,634,492,494
491,492,634,492,494
491,492,619,490,493
493,493,531,492,494
493,493,434,491,493
492,493,391,491,493
491,494,368,491,493
492,494,373,489,494
493,493,383,492,493
490,493,416,491,495
493,493,472,490,493
492,492,537,491,493
490,491,613,492,494
491,493,636,492,493
493,492,631,492,493
491,494,584,492,496
492,493,483,490,493
492,493,411,491,494
493,492,376,490,494
494,493,368,491,492
492,491,378,491,495
493,494,389,490,494
491,492,440,492,494
491,492,500,491,493
491,493,568,490,494
493,492,632,490,493
492,493,634,492,494
491,493,624,490,494
494,493,545,491,494
493,493,443,492,494
494,492,396,491,495
492,494,368,491,494
490,492,371,491,494
493,493,380,491,492
491,494,406,491,493
492,492,464,490,494
492,493,527,491,493
490,493,607,489,493
491,493,636,490,494
492,492,632,492,494
491,491,596,492,495
492,492,498,491,493
493,493,416,492,493
491,492,380,490,495
494,493,367,490,492
492,494,374,490,493
492,493,386,490,493
493,492,432,491,493
492,492,494,490,493
491,493,559,491,494
491,492,628,491,493
491,492,635,492,493
490,492,623,491,493
491,493,560,491,494
492,492,453,491,493
492,491,399,492,493
493,494,369,490,493
493,492,371,491,495
493,491,379,491,493
493,494,402,492,494
491,492,455,490,494
492,492,519,491,492
491,492,598,491,492
490,493,634,491,493
493,492,633,492,494
493,494,604,490,494
491,492,509,491,493
492,492,422,490,493
492,492,386,492,495
492,491,370,490,493
493,493,374,492,492
490,492,384,490,495
491,493,425,490,492
491,493,485,491,492
491,493,551,490,493
493,493,620,490,493
491,493,636,491,494
491,491,625,490,493
492,492,573,493,495
492,492,466,492,494
491,491,404,492,493
491,493,370,489,494
491,493,369,490,495
492,491,378,490,494
494,495,399,490,494
493,493,451,490,494
492,492,511,491,492
491,493,590,491,494
492,493,633,490,494
491,493,633,491,493
491,493,615,492,492
491,494,523,491,494
493,492,430,491,493
492,493,390,492,494
491,492,369,490,494
493,492,375,490,494
492,492,384,492,495
491,491,419,492,493
491,494,476,491,493
491,492,541,492,494
492,491,616,491,492
493,494,637,490,493
492,494,628,490,494
493,494,581,492,494
491,493,477,490,493
492,492,408,491,493
492,492,375,491,495
491,492,370,492,493
491,492,376,492,493
493,492,395,490,492
492,493,443,491,495
491,493,503,489,492
492,493,578,489,492
493,493,632,491,494
492,491,632,490,492
492,492,621,492,495
493,494,535,491,494
492,492,437,491,493
491,493,393,491,492
491,492,368,491,493
491,493,371,491,495
491,492,382,490,493
492,492,411,491,493
492,493,470,490,493
492,492,534,491,494
491,492,611,491,495
493,493,637,489,493
491,493,629,491,495
492,492,587,491,493
492,493,490,491,494
492,492,413,491,493
492,493,377,492,494
491,493,370,491,494
491,493,374,491,495
492,492,391,491,495
492,492,437,492,494
492,493,497,492,493
492,492,566,490,491
491,493,630,492,494
491,493,634,490,493
493,493,624,490,494
493,493,550,492,493
492,493,447,492,494
492,493,396,490,493
491,492,371,490,493
491,492,370,491,492
490,492,378,492,491
490,492,404,492,492
490,492,462,490,492
491,493,522,490,492
490,491,604,491,493
493,492,637,491,494
492,491,632,492,494
490,490,599,493,493
493,493,501,492,494
492,492,417,491,494
492,492,379,492,492
490,493,368,491,492
492,493,374,490,493
492,492,384,492,493
494,492,431,490,492
490,492,489,491,494
491,491,557,491,493
490,492,625,491,492
490,492,634,492,492
491,492,626,491,494
493,494,562,491,492
492,492,459,492,493
492,493,401,490,493
493,493,370,490,493
492,491,371,491,492
492,492,377,491,493
490,490,399,490,493
492,491,454,491,493
491,492,515,491,491
490,493,592,491,491
490,491,635,491,494
493,494,633,490,492
490,492,608,491,494
494,492,515,491,494
492,493,425,491,494
491,492,387,490,493
492,494,370,492,492
491,492,374,491,494
491,493,382,491,492
491,494,422,490,492
492,493,482,491,492
491,492,546,490,492
490,492,618,490,493
491,491,635,490,493
491,491,627,492,494
491,492,576,494,493
491,492,470,492,494
491,492,405,491,494
492,494,370,491,495
491,491,370,490,493
492,493,378,490,493
492,493,398,490,493
492,492,447,491,493
491,492,508,491,493
491,493,583,490,492
490,491,631,492,492
491,493,633,491,491
491,494,616,492,492
492,491,530,492,493
492,493,434,493,493
490,492,390,491,494
493,492,370,490,494
492,491,374,492,494
491,492,382,492,495
490,494,415,490,494
491,492,473,492,493
491,491,537,491,491
491,493,611,490,491
492,494,637,491,494
493,492,629,492,492
490,492,586,491,494
492,493,480,491,493
492,491,410,491,494
491,492,375,493,493
490,492,368,492,492
492,491,377,491,492
491,494,390,492,494
491,492,439,490,493
491,492,500,490,492
492,493,573,490,493
492,492,628,491,492
492,492,634,492,493
493,493,621,490,493
491,491,540,492,493
492,492,442,491,492
491,492,394,491,492
491,493,367,492,494
491,492,372,490,493
492,492,380,492,492
494,492,410,491,494
493,492,467,491,493
492,492,528,491,493
491,493,606,489,493
491,493,637,491,493
491,491,628,490,492
492,494,591,490,492
493,493,496,491,493
492,492,416,492,493
491,492,380,490,493
491,492,367,490,494
490,490,376,491,494
491,492,389,492,493
490,492,434,491,493
492,492,494,491,492
491,492,564,491,493
491,494,624,490,493
493,493,635,490,494
493,491,625,490,493
493,491,557,491,494
491,492,450,490,493
492,492,399,490,493
493,493,370,492,493
491,492,368,491,492
491,493,378,491,493
490,493,405,491,494
491,493,457,491,493
492,492,520,491,493
492,492,600,489,493
493,492,636,491,494
491,491,632,491,493
492,494,599,492,494
491,492,508,491,493
492,492,419,491,493
491,493,382,491,492
491,493,368,490,492
492,491,374,492,493
493,493,385,489,492
490,492,427,490,493
491,492,485,489,494
492,492,553,490,493
491,491,622,491,493
490,492,635,490,494
493,493,624,490,492
493,491,570,491,493
491,492,461,490,493
492,493,403,490,493
492,494,369,489,493
491,492,368,490,495
492,491,377,490,493
492,491,400,492,494
491,492,451,491,494
492,492,512,491,492
490,491,590,491,494
491,493,632,490,493
490,492,633,490,494
492,492,611,489,493
494,493,521,490,493
493,493,429,491,493
492,492,388,491,495
491,495,368,489,493
490,492,372,492,492
491,492,381,490,492
491,493,419,490,492
490,492,478,490,493
491,491,543,489,492
492,493,618,492,492
490,492,637,490,494
491,491,628,491,494
492,491,582,492,494
491,493,473,490,493
492,492,408,490,493
492,492,373,491,492
490,493,367,489,493
492,494,377,489,493
492,494,394,492,493
490,492,445,490,493
492,492,505,490,492
491,491,580,491,494
490,491,631,491,493
491,493,633,492,492
492,492,620,490,492
491,494,532,491,494
492,492,435,491,493
490,492,391,490,493
493,494,368,489,493
493,492,373,490,494
492,492,379,490,492
491,491,413,491,492
491,493,469,491,493
490,491,533,491,492
490,492,610,491,492
491,493,636,491,494
491,491,628,489,493
493,492,588,493,493
493,493,486,490,494
492,492,412,490,494
492,491,378,491,495
491,493,367,490,493
491,492,375,490,493
493,493,389,492,492
491,493,436,490,493
491,493,498,489,492
492,493,570,491,493
490,493,628,490,494
491,494,634,489,494
491,491,624,491,495
492,491,548,491,494
492,492,446,490,494
490,492,396,490,494
493,492,368,491,492
491,491,372,491,495
491,493,378,489,493
493,493,406,489,493
492,492,462,490,492
491,491,523,490,494
492,492,606,489,492
491,493,637,492,493
489,493,630,491,493
491,493,596,491,492
491,493,502,491,494
492,492,416,490,492
491,492,382,492,492
492,493,369,490,494
493,492,375,491,494
492,492,387,491,492
491,494,429,491,494
492,492,490,489,493
492,492,558,490,491
490,492,623,489,492
491,493,635,489,492
492,493,625,489,493
490,491,561,492,494
493,493,456,491,493
491,492,401,491,494
491,491,370,491,495
491,492,370,491,493
490,493,379,491,494
493,492,400,491,492
492,492,457,490,494
492,493,516,490,493
492,492,595,489,492
492,493,636,490,492
491,493,630,491,494
491,491,605,489,492
493,491,514,491,494
492,492,423,491,493
492,492,385,490,492
490,492,371,491,494
492,494,373,489,493
491,492,385,489,493
493,492,425,490,493
492,492,483,490,493
492,492,549,490,493
491,491,618,489,493
492,492,636,491,492
492,492,628,491,491
491,494,572,491,493
492,493,467,490,493
492,493,405,490,493
491,492,371,489,493
493,492,368,490,492
492,491,379,492,494
491,491,399,491,494
491,493,449,491,493
492,492,510,490,493
491,492,583,490,494
492,492,634,490,493
492,492,634,490,494
493,492,616,490,494
494,492,528,491,493
492,493,431,491,494
491,493,389,490,492
491,491,372,491,493
490,492,371,491,493
491,492,381,490,492
491,493,416,490,494
490,492,475,490,493
492,493,541,491,492
490,492,616,489,494
491,492,637,491,494
492,491,630,491,495
491,494,581,490,494
492,492,480,491,493
492,492,410,490,493
491,493,372,491,492
491,493,368,489,493
492,494,377,491,493
490,492,393,489,494
493,493,442,490,492
491,492,504,490,493
491,491,575,491,494
491,492,630,491,493
492,492,635,492,492
491,493,619,491,495
492,491,538,489,493
492,493,439,490,492
493,492,394,490,494
493,493,370,489,493
493,494,370,490,493
492,492,381,491,492
493,494,410,492,493
492,492,468,491,494
492,492,528,490,492
491,493,607,490,494
491,491,635,489,494
493,493,630,491,492
493,493,591,490,495
493,492,492,489,494
493,492,415,490,494
492,493,377,490,495
491,491,369,489,493
494,492,376,491,492
491,492,387,490,492
491,493,434,490,492
491,493,497,490,494
491,492,564,489,493
490,492,628,490,494
492,491,637,491,494
491,491,624,491,496
492,491,554,492,494
492,492,451,490,493
492,492,397,490,492
492,491,371,490,495
491,493,369,489,494
492,493,378,490,493
493,493,404,490,494
491,492,459,492,494
492,492,520,489,492
491,493,603,491,494
490,492,635,491,493
491,492,629,491,492
491,493,602,491,495
493,493,505,490,493
492,492,419,491,493
492,493,382,490,493
493,493,369,490,495
493,492,374,490,492
492,493,383,492,495
491,491,427,490,493
492,492,488,490,493
491,492,553,491,492
490,492,620,490,492
492,494,635,489,493
491,491,627,493,493
493,494,566,492,493
492,492,461,491,494
492,491,403,491,494
491,491,371,491,495
491,491,370,490,493
493,491,377,491,493
492,492,401,489,491
491,492,452,490,493
491,492,511,489,493
492,493,591,489,493
490,492,633,490,494
492,492,630,489,492
493,491,614,492,495
491,492,518,492,494
492,492,427,491,493
492,492,388,491,494
490,492,367,490,494
491,492,374,490,493
492,493,384,490,493
493,493,421,490,494
492,492,479,489,493
492,492,544,489,492
491,491,619,491,493
493,493,637,490,492
491,493,626,490,492
491,494,576,490,493
492,493,473,490,494
491,491,409,490,493
493,493,371,492,493
491,492,371,491,495
491,491,378,492,494
492,491,396,491,494
491,494,446,490,493
491,492,506,491,493
492,491,581,489,491
491,494,632,490,493
492,493,633,489,494
493,492,619,492,493
491,493,532,491,495
492,492,433,491,494
492,492,393,491,494
490,491,371,491,493
490,492,370,491,493
491,493,381,491,494
492,491,415,490,493
491,493,472,490,493
492,493,536,490,493
490,492,612,490,494
492,492,637,491,494
492,494,628,489,493
490,491,587,492,494
493,493,484,491,493
491,492,411,491,493
492,492,374,490,492
491,493,368,492,494
491,492,376,490,494
493,492,390,492,493
493,492,440,490,494
492,493,500,490,494
491,491,570,491,494
493,494,628,490,492
491,493,633,490,494
492,491,621,490,492
492,494,544,490,494
492,493,445,491,493
491,492,395,490,493
493,492,370,492,492
492,491,372,491,492
492,493,379,491,493
491,491,409,492,493
491,492,463,490,494
491,492,524,490,494
491,491,603,489,492
492,491,637,491,494
493,492,631,490,496
492,493,595,490,497
493,492,498,491,496
492,493,416,491,494
491,492,380,490,492
493,494,368,492,492
492,493,375,492,491
492,493,385,491,491
491,494,434,491,493
491,493,493,489,493
490,492,559,490,494
493,492,628,491,495
491,492,636,491,496
491,491,625,491,498
492,492,561,490,500
493,493,455,491,503
492,493,401,490,506
493,494,369,490,503
492,494,371,489,499
493,493,379,489,495
491,493,402,491,491
492,492,457,491,486
491,493,519,490,488
490,491,599,492,491
489,492,634,491,491
491,493,633,491,494
492,495,604,490,493
492,492,512,492,494
492,493,422,490,492
493,493,386,490,491
493,493,370,490,489
492,494,373,491,493
490,492,383,490,493
493,492,425,491,494
491,492,485,491,497
490,492,549,490,499
491,494,619,489,502
492,493,638,492,505
493,493,628,492,505
492,493,574,491,505
494,494,467,491,498
494,492,405,491,487
491,491,370,489,487
492,492,369,491,488
493,492,379,490,490
492,494,398,490,497
492,493,450,490,500
492,492,511,489,502
491,492,588,490,498
493,492,633,489,494
493,492,635,492,492
490,492,617,493,483
490,492,524,493,485
491,492,431,490,489
492,493,389,491,494
492,491,372,490,494
493,494,375,489,493
493,493,384,489,496
494,492,420,490,499
493,493,476,491,498
492,492,542,491,495
493,493,615,489,487
490,492,635,490,487
491,492,627,490,490
491,494,580,491,492
492,492,480,492,492
492,492,409,492,493
492,493,375,490,496
493,491,371,491,496
490,491,376,490,497
491,493,393,488,495
492,492,443,490,495
492,492,502,490,492
492,493,576,489,492
492,494,631,490,493
493,493,634,491,492
491,493,623,490,493
493,494,534,491,491
493,493,438,491,495
492,491,395,492,495
491,492,370,493,498
492,494,371,490,506
494,493,383,491,506
494,495,412,492,505
494,494,469,490,497
493,493,531,490,493
493,491,610,490,490
492,493,635,489,482
490,491,629,492,490
493,493,589,492,495
491,493,491,491,495
492,493,413,491,493
492,493,375,491,490
491,492,368,489,488
493,492,375,491,493
493,492,390,491,496
492,492,437,492,495
492,492,496,493,495
493,493,564,493,494
491,491,628,496,492
491,491,633,494,489
491,494,622,491,491
492,494,550,490,494
492,493,448,490,494
493,492,398,490,493
494,492,372,489,493
492,494,370,491,494
492,492,380,491,494
490,492,405,491,498
492,493,461,489,502
494,493,523,489,505
492,491,604,490,506
494,494,636,489,496
494,492,632,490,486
492,492,599,490,482
492,493,503,491,487
491,492,419,491,491
492,494,381,492,494
491,491,369,491,497
492,493,374,491,501
494,494,388,491,507
494,495,429,490,505
494,493,489,491,506
495,493,558,490,501
493,492,624,491,495
492,491,636,492,490
491,492,625,490,492
493,494,565,493,497
492,493,458,492,503
493,493,401,491,495
492,493,368,489,491
492,493,369,489,484
489,492,377,491,485
492,491,402,491,488
491,492,455,490,494
492,492,516,490,503
491,491,595,491,507
492,493,636,491,508
495,494,632,491,500
493,492,612,491,490
494,494,516,490,490
492,493,427,490,497
492,492,387,490,499
491,492,369,490,498
491,491,372,489,474
491,490,382,492,480
490,491,422,491,487
491,491,481,490,490
491,492,544,490,492
493,492,620,491,494
493,493,636,492,496
491,492,629,491,503
495,493,579,491,507
494,493,473,492,513
495,493,406,491,503
496,493,372,493,490
494,492,369,491,481
493,493,375,491,483
492,494,394,489,486
491,492,445,489,488
491,492,507,489,491
491,492,581,489,484
490,491,633,490,488
492,492,634,492,488
491,492,619,495,489
492,493,530,493,493
494,493,434,495,493
493,491,392,492,491
492,494,368,490,493
492,492,373,489,493
492,491,383,488,495
494,492,413,490,500
492,492,474,490,503
493,493,536,490,505
493,492,615,491,507
493,493,636,490,496
491,493,627,489,496
493,491,588,489,497
493,494,485,491,504
494,494,411,491,501
495,493,377,488,485
493,491,370,490,488
492,494,375,489,496
493,493,393,492,498
495,493,441,491,496
493,493,501,492,486
492,493,570,492,473
490,492,628,495,488
490,491,636,494,487
492,493,621,496,491
493,491,543,493,497
493,492,443,490,496
492,492,396,489,496
491,491,371,492,498
494,492,372,491,497
493,493,381,493,497
493,494,407,494,499
494,494,466,495,502
493,492,527,493,498
494,493,605,491,509
495,494,640,490,525
497,495,631,489,508
492,492,593,490,485
493,494,496,490,487
492,493,415,488,474
491,492,378,488,478
489,491,369,490,484
492,492,376,489,493
493,492,389,489,489
491,491,434,491,494
491,492,492,491,499
492,492,563,490,502
494,493,625,491,504
493,494,634,489,496
493,494,623,489,497
492,495,556,490,496
492,492,453,491,482
492,493,400,490,490
492,493,368,490,495
495,492,373,492,495
493,492,380,492,492
491,492,403,490,488
494,493,459,491,494
492,492,519,491,486
492,493,597,488,486
492,493,636,489,491
491,491,631,490,488
490,492,602,491,492
493,492,510,491,495
493,492,421,492,498
493,492,385,493,500
492,492,370,493,495
492,493,375,493,497
494,494,384,493,507
494,493,428,493,506
495,494,487,492,498
496,493,553,492,486
493,492,622,493,487
493,492,636,493,503
495,494,627,496,500
490,493,570,494,490
492,492,463,492,496
491,493,403,489,492
492,494,369,487,496
492,492,370,487,494
493,493,379,488,481
491,493,400,489,488
494,493,452,489,486
492,492,512,488,478
489,490,587,489,484
492,492,633,492,494
492,491,635,492,495
494,494,612,491,494
495,494,524,492,497
492,492,430,492,489
491,492,388,491,492
494,492,369,492,492
492,491,373,493,489
491,492,382,492,490
491,492,420,490,501
492,493,478,491,505
495,493,543,491,496
493,495,615,492,501
492,492,638,491,518
493,492,630,491,508
495,494,582,490,498
494,493,475,490,476
492,492,409,490,472
490,493,370,490,485
489,491,367,491,485
491,492,375,495,485
492,493,393,499,492
492,491,445,499,493
494,493,506,498,497
494,493,579,495,503
497,493,632,493,504
491,491,634,489,488
490,493,618,481,493
492,493,534,487,499
496,494,438,490,495
494,492,392,491,498
493,494,368,491,503
495,494,373,491,506
495,494,380,490,491
491,493,413,490,475
489,492,468,490,481
492,492,532,490,487
491,490,612,490,499
492,492,636,490,503
494,492,631,490,504
496,495,592,492,495
495,494,487,493,497
495,493,413,492,487
492,493,377,493,477
492,491,368,497,489
492,490,378,498,491
492,493,387,497,491
491,490,436,494,496
492,491,497,491,494
491,492,564,488,494
492,492,625,484,495
493,493,635,487,498
494,494,623,487,495
495,494,549,489,504
498,495,449,491,507
497,494,399,492,508
495,495,367,491,492
489,492,370,489,469
490,492,377,490,485
491,494,404,490,489
492,494,462,490,492
491,491,523,490,487
492,493,604,490,490
491,493,635,491,495
494,491,632,492,498
492,491,600,494,503
494,493,504,493,503
496,494,417,491,483
492,492,382,489,475
490,492,366,488,487
492,493,373,487,492
492,492,387,487,487
490,491,429,490,490
493,493,490,488,500
492,493,559,489,510
492,491,626,492,514
493,493,637,497,497
492,493,624,496,467
491,491,563,495,483
492,492,457,492,487
492,491,401,489,486
494,493,369,487,490
493,492,372,488,495
493,491,379,489,495
492,494,403,493,496
492,493,455,493,499
492,492,515,495,497
492,493,594,494,494
492,494,634,492,491
492,492,632,493,489
497,495,609,491,500
494,494,516,487,506
495,494,425,488,494
493,492,388,491,494
493,491,368,490,497
493,492,373,491,506
494,492,386,490,508
494,495,422,490,503
495,494,483,490,480
491,492,546,489,455
488,491,617,491,478
488,491,637,491,492
491,493,626,490,494
492,491,576,492,499
494,493,470,491,499
492,492,407,491,499
493,492,372,489,504
495,495,369,492,497
493,493,376,489,468
491,493,395,489,473
491,491,448,490,484
491,491,507,493,497
492,491,586,494,514
495,495,635,495,516
497,496,632,495,504
495,494,616,493,485
491,494,527,490,479
490,492,431,488,479
489,493,391,490,474
488,493,369,492,489
491,491,374,494,498
493,492,384,494,505
494,492,418,493,510
495,493,473,488,492
490,491,537,488,491
493,492,612,494,498
496,494,636,496,488
495,494,629,495,482
494,494,584,497,494
492,493,481,494,475
490,492,410,493,492
490,491,375,487,500
491,492,369,487,501
492,493,377,490,493
493,491,392,492,491
493,493,442,490,501
492,491,500,491,484
491,492,571,491,495
493,493,631,492,497
496,495,634,491,506
498,494,623,490,497
495,495,540,489,486
489,492,439,488,476
489,491,392,489,487
489,491,369,491,496
491,494,373,492,503
492,494,381,494,511
494,492,412,499,507
497,494,466,499,493
498,493,528,497,476
490,490,607,495,463
489,492,634,496,486
490,492,631,491,497
493,492,590,488,496
491,492,492,489,483
492,492,414,491,485
491,491,380,490,488
492,494,368,486,489
491,493,374,486,490
492,491,388,487,493
493,492,434,489,501
493,493,494,489,503
494,493,562,491,498
492,493,626,491,484
492,492,633,492,483
492,493,622,493,486
494,495,554,497,488
493,493,453,496,490
491,491,398,494,492
493,493,368,494,490
492,491,372,497,493
491,491,379,494,491
491,491,404,488,489
491,492,457,485,490
492,492,517,492,490
491,490,602,491,490
492,492,634,489,492
494,492,631,488,492
494,492,604,489,490
491,493,507,491,492
494,493,420,498,490
493,492,384,503,491
492,491,368,503,490
494,494,374,500,490
492,491,387,495,489
491,494,426,490,490
490,492,487,481,489
490,492,552,478,490
492,492,622,483,497
492,492,636,485,497
490,494,625,486,496
493,493,568,490,503
496,495,464,490,519
496,495,404,490,521
499,498,370,489,507
495,494,371,491,477
489,491,379,488,479
489,491,397,488,465
489,490,452,489,492
492,491,513,489,488
490,491,590,490,484
492,492,634,490,492
492,493,631,491,504
493,493,611,491,502
496,495,521,490,494
493,493,427,489,474
490,492,388,490,488
488,490,369,490,478
491,493,372,490,485
490,491,383,494,490
490,492,420,493,495
493,492,479,491,499
493,493,543,491,493
493,491,614,490,489
492,492,637,490,482
492,491,628,488,495
493,492,579,490,493
494,492,475,492,487
491,492,407,492,492
492,492,373,488,494
495,495,370,490,505
494,494,376,487,499
491,493,393,487,481
491,493,446,489,484
490,491,504,488,491
491,492,581,490,504
493,492,634,491,512
493,493,635,491,509
493,492,621,492,477
491,493,533,494,479
492,491,435,494,487
493,492,391,495,481
491,492,367,496,485
492,493,372,496,487
493,493,382,494,488
490,492,412,497,490
493,492,470,494,489
491,491,534,491,491
491,490,612,489,493
492,491,635,485,491
492,493,630,489,500
495,496,586,494,515
497,496,491,493,521
497,497,413,488,503
497,496,376,484,491
492,492,369,485,461
486,491,374,487,472
488,489,387,487,486
491,490,439,488,487
491,491,498,488,489
491,492,567,490,491
491,493,631,490,500
492,493,633,487,503
493,492,623,488,496
494,493,547,490,493
492,493,446,490,514
495,493,399,491,519
497,494,368,491,490
492,492,370,493,486
494,493,381,494,479
491,494,405,495,480
491,492,462,492,478
489,492,523,489,487
489,490,605,488,488
492,491,635,488,487
492,491,632,490,486
491,490,597,492,498
492,491,501,495,507
495,494,417,493,506
495,493,381,494,507
498,495,372,493,510
496,496,374,489,487
492,493,385,486,477
491,492,430,488,497
489,492,492,488,501
492,492,557,488,483
491,491,627,490,484
488,492,635,491,476
489,491,622,489,479
490,492,561,489,487
492,492,457,489,487
492,492,401,490,490
491,494,369,489,489
493,492,371,490,495
494,492,380,491,510
498,496,402,491,518
498,495,458,491,524
494,494,516,491,464
489,491,595,491,477
489,492,632,490,469
490,492,631,491,487
488,489,605,489,487
493,492,513,491,487
493,492,424,492,488
492,491,386,492,492
493,491,370,495,508
494,494,375,495,523
496,494,386,495,519
500,495,424,492,464
490,492,481,491,462
487,491,547,493,479
490,492,617,490,487
492,493,636,485,494
493,491,628,486,494
494,495,573,489,505
495,493,468,488,498
493,493,406,487,515
492,493,371,488,498
492,492,367,491,462
490,490,378,493,482
492,494,397,492,500
494,493,449,490,507
493,492,509,487,507
491,493,585,487,476
491,491,633,487,480
494,493,633,490,475
490,493,616,491,487
491,494,527,490,506
492,492,434,489,498
492,492,390,489,490
491,490,372,491,492
493,492,375,490,495
493,492,384,490,510
496,494,419,489,521
496,495,477,491,521
495,494,540,491,487
487,492,612,489,461
489,492,635,490,471
490,491,625,489,475
491,493,581,489,485
491,492,482,492,488
491,492,408,491,487
491,492,376,490,493
491,491,371,493,495
493,491,377,496,492
493,493,393,496,492
494,493,441,497,498
495,493,503,495,505
494,493,574,493,503
491,494,630,492,505
493,493,634,486,497
491,493,620,483,482
492,491,536,485,481
491,492,440,488,492
493,492,395,490,481
492,492,371,492,484
492,493,371,490,491
492,492,382,490,477
489,494,407,490,493
491,491,468,491,493
491,492,530,492,488
493,491,608,494,485
492,490,636,494,492
491,491,630,496,496
493,494,590,492,509
494,493,494,494,509
495,494,415,491,502
494,494,376,486,486
490,491,369,484,473
489,492,374,486,492
491,493,389,486,489
494,492,436,488,490
494,492,495,489,487
492,493,562,488,480
489,491,627,491,486
492,492,636,487,497
492,494,623,489,509
494,495,553,490,512
495,494,451,492,495
495,494,400,491,484
489,491,368,490,469
489,491,368,490,484
490,490,380,491,491
491,490,406,490,497
493,493,460,488,509
495,495,521,488,512
492,493,604,488,502
493,494,634,489,467
491,492,630,491,479
492,493,600,491,489
495,493,505,492,495
494,493,419,488,484
491,493,381,490,489
489,490,369,492,488
491,492,374,492,493
493,493,384,491,499
494,491,427,491,495
491,492,488,490,505
492,493,555,491,493
493,493,623,493,497
493,492,636,495,480
491,491,625,494,485
492,494,565,496,495
491,491,458,491,490
492,492,402,487,493
491,492,368,488,487
492,493,368,488,498
494,492,380,490,497
492,494,399,489,476
489,491,452,490,480
491,492,513,491,487
491,490,592,491,483
493,491,634,490,492
493,493,632,492,491
491,491,611,489,496
493,494,518,488,494
493,493,427,489,485
491,493,386,488,484
490,492,371,492,490
493,493,375,492,501
492,493,384,491,512
493,492,424,494,505
494,492,480,493,487
494,493,544,492,493
490,492,617,489,490
489,491,635,490,489
489,490,628,490,491
492,494,577,489,491
492,492,472,489,496
493,493,407,489,495
492,492,374,489,485
491,492,367,486,490
491,491,377,491,493
492,491,396,493,487
492,491,445,494,495
493,492,507,490,486
491,492,579,488,491
490,491,631,485,489
492,493,634,488,491
493,492,620,489,499
495,493,530,490,496
496,494,436,491,498
494,494,391,489,507
492,493,370,489,507
492,494,371,491,492
493,493,379,491,466
489,492,411,492,482
489,491,472,493,497
491,491,534,497,495
494,492,615,497,506
492,491,637,491,489
489,490,628,493,472
491,493,585,495,475
491,492,485,493,491
492,492,410,487,499
492,494,374,487,502
491,494,369,488,503
494,493,375,492,479
493,492,393,493,491
493,493,438,493,486
491,491,499,490,478
488,491,570,486,491
488,490,628,487,493
492,492,635,484,488
491,493,623,488,487
491,495,543,489,487
493,494,445,489,496
494,493,398,490,517
497,494,371,491,530
496,495,371,491,502
490,491,379,494,470
490,493,407,498,484
491,493,465,497,488
491,492,524,496,482
491,492,607,496,483
491,492,635,494,484
492,493,628,489,496
494,492,595,482,495
492,492,498,484,502
492,492,416,486,490
492,493,379,490,477
490,491,368,491,493
493,493,373,492,498
493,494,386,491,497
492,494,431,491,490
491,492,491,491,484
492,492,559,489,481
490,492,624,490,500
494,492,637,489,507
494,493,625,490,513
492,492,560,490,478
489,491,453,490,479
490,491,399,490,489
490,490,370,492,482
492,493,370,492,486
492,492,379,491,491
494,492,402,490,491
494,493,456,492,492
493,492,516,492,489
491,490,598,490,492
491,494,634,488,503
493,495,631,488,506
495,493,608,490,502
493,494,511,489,478
490,492,421,488,482
492,493,386,488,487
494,492,371,488,493
491,491,375,488,498
493,493,386,492,500
491,492,425,489,488
490,490,483,492,476
490,492,549,495,480
490,493,619,497,486
492,492,637,498,491
491,493,626,498,499
493,493,570,497,498
493,493,467,488,502
493,492,405,480,485
491,492,370,485,489
491,492,371,487,506
493,494,377,488,505
492,491,400,487,489
493,493,449,488,476
490,492,510,489,483
491,491,587,490,487
492,493,635,494,491
492,493,633,492,494
491,492,616,495,500
494,494,526,498,504
495,493,432,495,501
491,491,390,490,481
489,493,367,487,483
489,492,373,487,489
493,492,382,488,482
493,491,419,487,482
492,492,476,488,498
492,492,539,486,497
489,491,616,490,509
493,492,638,488,507
493,494,627,489,481
492,494,580,488,478
493,493,478,489,484
492,492,410,489,488
492,492,372,490,481
492,491,370,490,495
491,492,379,491,498
491,492,394,492,493
493,493,443,490,488
492,493,503,491,494
492,491,575,491,503
493,494,631,490,497
493,492,635,490,495
491,491,617,489,467
489,491,538,489,487
492,493,437,489,491
492,491,393,489,491
490,491,369,492,486
489,492,370,491,488
490,492,379,492,490
492,491,409,490,489
492,491,469,492,493
490,493,530,492,494
493,492,610,491,493
493,492,637,491,499
494,495,628,488,505
492,493,592,490,523
498,496,492,492,518
495,494,413,490,486
490,493,377,488,477
487,491,368,490,480
489,491,374,490,472
489,490,387,493,484
492,491,436,495,488
492,492,497,497,494
491,491,566,498,494
492,494,625,494,493
491,493,636,490,493
492,493,621,489,497
492,495,549,486,494
493,494,449,487,487
491,493,398,488,492
491,491,368,490,481
492,491,372,489,483
491,493,379,491,494
491,491,407,489,495
491,492,461,488,493
493,492,520,488,496
495,494,602,488,496
493,492,636,489,489
493,493,631,487,473
491,492,599,489,487
492,491,504,491,490
491,492,417,490,492
492,492,382,489,492
491,491,368,490,493
491,493,373,490,492
492,494,385,492,513
495,493,432,492,517
498,496,490,494,505
493,492,556,490,455
488,490,622,491,480
490,490,636,493,486
491,490,626,491,489
492,491,562,489,491
492,492,460,490,495
491,493,402,489,499
492,493,368,490,494
492,494,369,489,489
492,493,377,489,487
490,491,401,488,487
492,493,454,490,486
491,492,514,488,488
491,491,594,489,489
492,492,635,490,493
490,492,632,489,493
491,493,609,489,493
494,493,519,488,499
494,494,426,489,497
493,493,388,488,498
491,493,369,491,484
490,492,375,491,486
491,493,383,492,486
490,491,423,495,489
492,492,482,493,490
492,492,546,492,493
490,492,617,490,499
492,491,637,486,485
491,494,628,490,484
490,492,576,490,490
493,492,471,493,490
491,492,408,493,491
492,492,370,493,491
491,492,371,493,499
492,494,379,491,510
493,493,397,491,516
494,494,448,492,495
491,492,506,491,477
489,490,580,489,481
491,491,632,490,485
492,491,635,487,499
493,491,619,487,498
493,492,532,488,482
491,492,432,488,478
490,492,390,488,485
492,492,368,489,489
491,492,370,489,487
492,493,381,488,488
492,495,415,489,491
492,492,473,490,494
492,493,537,489,497
491,493,612,490,499
491,491,637,491,494
491,492,629,491,497
491,492,586,489,489
492,491,482,490,478
491,491,412,491,489
491,493,373,489,493
492,493,369,489,495
493,492,377,489,494
491,492,389,489,487
491,491,440,489,485
491,493,500,491,489
490,491,571,490,491
491,492,630,489,490
491,493,635,491,496
491,493,620,489,499
492,492,543,492,500
494,495,443,490,504
495,494,396,490,503
495,493,372,490,493
493,490,371,489,485
493,493,378,491,488
489,492,408,490,486
490,492,463,490,494
490,492,525,490,492
491,494,605,490,492
489,491,635,493,484
492,491,630,490,481
492,493,594,491,491
494,491,496,489,490
494,492,416,489,490
492,492,379,489,490
494,491,366,489,489
491,491,377,490,490
491,493,384,489,490
492,493,432,490,491
490,493,493,490,491
489,492,559,489,493
492,491,625,488,492
492,492,636,491,493
491,492,623,491,494
492,492,557,490,493
493,492,454,490,491
493,491,400,490,491
492,494,368,491,495
491,492,371,491,496
492,492,379,491,495
493,491,405,492,495
491,492,456,491,496
493,492,518,491,488
494,492,599,488,486
491,492,632,486,484
493,493,629,487,485
494,494,603,489,491
492,492,510,490,491
493,493,421,490,495
490,492,385,491,496
491,491,369,490,496
491,492,374,491,495
490,493,385,489,492
493,492,424,491,485
498,493,485,490,489
497,493,551,489,495
496,493,619,489,498
496,493,637,490,498
492,492,624,490,498
487,491,572,491,497
491,493,464,491,487
490,491,402,491,478
490,491,369,491,483
491,492,369,490,490
492,490,378,489,489
494,494,401,492,490
495,492,451,490,491
497,492,510,490,492
498,491,590,491,494
499,493,632,490,492
494,491,632,492,492
490,492,614,491,492
488,493,521,490,494
490,492,429,490,490
488,493,388,491,493
487,491,368,489,499
490,492,373,490,500
491,491,384,491,504
491,491,420,491,489
489,491,476,490,479
488,491,541,490,482
490,492,614,491,487
491,493,638,490,492
492,493,626,489,490
493,494,579,490,489
495,493,477,490,490
495,492,409,491,491
496,491,374,490,491
495,494,368,492,494
492,492,376,492,493
493,492,393,493,492
494,493,444,491,492
494,493,503,491,491
491,492,579,491,494
490,493,631,490,493
493,492,633,490,492
496,492,621,489,492
491,493,534,491,492
491,492,436,490,491
492,494,394,492,492
491,491,370,492,492
485,492,369,490,491
489,493,380,490,490
490,491,413,491,492
492,492,468,490,492
490,492,532,490,491
488,492,610,489,491
490,492,637,490,491
490,491,630,489,490
492,493,588,492,492
491,493,489,490,491
491,492,412,492,491
491,493,374,489,490
490,494,367,489,491
490,492,377,492,492
491,493,389,491,490
489,494,438,490,492
490,492,497,490,492
488,491,567,491,491
489,491,627,490,492
492,493,633,490,491
493,491,623,491,491
493,495,547,490,493
494,493,447,491,494
495,494,397,490,494
496,493,370,493,494
493,493,371,491,499
490,494,379,489,496
488,491,407,491,499
489,492,461,491,501
490,493,522,490,487
493,491,604,490,483
494,493,634,491,491
498,493,631,490,489
501,493,597,490,490
498,491,503,490,495
498,492,417,491,492
500,491,381,492,489
495,494,368,490,488
491,493,373,492,491
496,493,383,491,492
491,494,429,490,494
488,492,490,491,497
489,492,557,490,496
495,493,626,490,493
493,492,637,491,503
488,493,626,492,505
488,493,565,492,502
491,494,458,491,503
486,491,400,491,476
486,490,366,491,470
486,491,368,489,485
489,492,378,490,492
493,493,401,492,492
496,492,455,490,493
501,493,515,492,492
506,491,597,493,496
507,493,634,493,497
500,494,632,491,498
494,491,611,492,493
483,494,516,491,495
494,493,424,490,492
492,492,386,490,486
478,492,368,489,488
482,493,373,489,487
484,491,384,491,489
490,494,422,492,490
492,492,482,491,491
490,492,546,491,491
487,492,618,490,492
491,493,638,492,493
492,493,626,490,493
496,492,576,492,495
499,493,470,491,495
496,493,407,491,497
499,492,374,491,494
499,494,369,492,494
496,492,379,490,495
502,493,396,491,494
495,494,447,492,495
493,494,508,489,496
491,493,585,489,494
496,494,634,488,493
502,494,633,491,493
498,492,619,493,492
491,491,529,492,493
489,492,433,489,490
480,492,389,491,489
482,491,371,492,491
485,494,372,492,491
477,493,382,489,490
481,492,415,488,490
488,493,474,490,491
489,492,536,490,492
490,490,612,489,492
491,492,637,491,494
490,493,627,490,497
491,494,583,490,502
494,494,485,492,511
494,495,411,491,507
492,494,377,490,516
494,494,371,491,498
492,491,377,491,490
491,490,393,489,477
490,492,440,491,474
488,491,500,489,484
490,493,573,489,485
490,494,629,488,492
490,494,634,486,496
492,493,622,490,498
503,493,543,491,500
506,493,443,493,493
503,492,396,494,493
499,491,372,494,495
492,492,371,493,494
496,493,382,492,496
498,494,407,492,498
509,493,468,494,498
520,495,529,493,499
525,495,608,493,499
522,494,638,492,494
497,494,631,493,493
494,495,591,488,489
480,492,495,490,486
462,491,413,489,486
467,492,376,489,488
482,491,370,491,490
482,493,374,492,492
484,492,387,489,492
487,493,434,490,492
488,492,493,489,493
487,492,561,489,490
486,491,628,491,492
489,493,636,490,491
488,494,623,491,492
491,493,554,491,493
495,493,452,490,493
494,493,400,491,493
491,492,369,490,494
492,493,369,490,492
491,492,381,492,494
491,491,405,492,494
492,492,459,491,493
492,493,519,489,492
491,493,599,490,495
494,492,635,489,493
494,493,631,490,494
494,493,602,489,495
495,493,509,492,494
492,493,420,490,494
492,493,383,489,495
492,491,370,492,493
494,492,374,492,493
496,493,384,491,494
498,492,430,490,493
496,492,486,490,495
484,493,554,489,493
490,494,622,490,494
492,491,637,492,495
492,491,626,494,495
493,495,569,495,495
493,492,464,495,494
493,493,403,494,492
492,493,368,492,492
492,493,368,490,493
493,494,379,490,493
491,494,400,488,494
492,493,451,491,494
493,493,514,492,494
491,491,591,492,494
491,491,633,492,493
494,492,634,489,492
492,493,614,487,496
494,494,519,488,494
493,493,429,490,494
493,493,388,490,494
494,492,371,496,492
493,492,375,499,492
493,493,382,499,494
493,491,421,498,493
493,491,478,493,493
492,493,542,491,492
492,493,619,488,494
491,494,635,482,493
492,492,627,486,494
495,494,580,488,495
494,492,475,490,494
494,492,409,490,493
493,494,372,492,495
491,491,369,491,494
494,493,377,491,492
492,493,394,490,493
492,493,445,489,494
493,493,506,488,493
493,493,579,487,493
492,492,632,490,494
493,492,635,491,494
492,491,621,492,496
493,492,535,492,494
494,494,436,494,494
492,492,392,491,495
493,492,368,490,493
493,493,371,490,492
493,493,381,489,493
493,494,412,487,493
492,492,471,488,494
493,492,533,489,492
493,492,614,490,495
492,492,637,491,493
492,493,628,491,493
492,493,589,490,495
491,494,487,491,495
492,492,413,490,493
493,493,377,489,492
493,493,369,490,495
494,492,377,490,493
494,494,392,490,495
493,494,437,489,493
493,492,500,490,494
492,492,568,491,493
491,492,627,490,493
493,491,636,491,493
493,494,622,493,495
492,491,546,491,494
494,494,447,491,493
493,492,397,491,495
493,491,371,491,495
493,494,370,489,493
491,492,379,491,494
494,493,407,490,493
492,492,463,490,493
490,492,522,489,493
492,493,602,490,494
492,492,636,490,494
493,492,629,490,493
493,492,598,491,496
493,492,501,491,495
493,492,417,491,494
493,493,381,489,493
491,492,368,490,495
493,491,373,489,493
493,494,386,489,493
492,494,431,490,494
492,493,491,490,494
492,492,560,490,494
491,493,622,489,494
493,492,637,491,493
492,492,625,491,494
491,492,561,491,494
493,493,457,490,495
494,492,401,491,494
492,491,371,492,495
494,494,371,490,494
493,492,379,491,495
494,491,402,490,494
492,493,455,491,493
491,492,516,490,494
493,493,596,491,494
491,493,634,491,493
491,493,630,491,493
493,494,610,492,496
492,494,513,490,494
492,492,423,490,494
493,492,387,489,495
494,492,371,491,495
493,491,375,491,494
493,494,383,492,494
491,493,424,490,495
493,492,483,490,493
491,493,547,489,492
491,493,618,489,494
493,493,636,490,495
491,494,626,491,495
494,492,575,491,494
493,493,468,490,495
492,492,406,491,495
491,491,371,492,495
491,492,370,489,495
494,493,377,490,493
492,491,399,490,493
492,493,448,490,493
492,492,509,490,494
492,492,584,489,492
491,493,632,491,494
492,491,632,489,494
492,492,617,492,494
490,493,527,492,494
491,493,432,492,494
491,492,391,491,495
491,494,369,491,495
491,492,373,490,494
493,493,383,489,494
494,493,418,490,494
492,492,474,491,494
493,492,538,489,493
492,491,616,492,494
493,492,637,490,493
493,494,627,490,493
492,494,581,491,494
493,493,480,491,495
493,492,412,490,494
493,493,373,492,494
491,492,371,490,495
492,491,378,491,495
491,491,394,492,496
492,493,440,489,493
491,492,502,491,494
491,492,575,489,493
492,494,630,489,493
493,493,634,490,494
493,492,620,492,495
491,493,540,491,495
493,492,439,491,494
493,492,394,491,495
492,492,371,492,494
491,492,371,491,494
492,492,379,491,495
494,492,412,490,493
491,493,468,490,494
492,494,529,489,493
492,493,608,489,494
492,491,636,490,495
492,494,628,489,493
491,491,593,492,495
494,493,491,491,495
493,492,415,491,494
491,493,377,492,494
491,492,367,492,495
492,492,375,490,494
492,491,388,493,494
493,492,435,489,494
493,492,496,489,494
491,492,565,490,495
492,494,625,488,494
491,493,635,490,495
492,491,621,490,493
492,494,551,490,495
493,493,450,491,495
492,493,398,490,494
494,492,370,492,493
493,492,372,491,494
491,493,377,491,496
492,491,406,492,495
491,492,460,492,495
492,492,519,490,494
493,492,600,490,493
490,491,637,491,495
493,493,631,489,494
493,494,601,490,495
494,493,506,491,495
492,492,418,491,495
492,492,385,490,494
491,494,369,491,494
491,493,375,491,493
492,492,384,492,492
490,493,430,491,494
492,493,488,491,493
491,492,555,492,494
493,494,623,489,495
493,492,638,490,495
492,491,626,491,497
492,491,569,489,495
493,493,461,490,495
492,493,402,490,495
492,493,368,490,493
492,494,370,489,494
492,494,378,489,494
491,491,401,492,495
493,493,453,492,494
492,492,514,491,494
492,491,594,491,495
491,492,634,492,494
490,492,633,489,496
493,494,610,490,493
493,491,519,490,495
492,493,426,489,494
492,493,388,490,494
493,494,370,490,494
491,492,372,489,495
492,491,383,489,493
492,491,423,491,495
491,492,480,490,494
491,492,545,492,493
490,492,616,492,494
492,492,638,492,493
492,494,627,492,495
491,491,577,489,495
494,493,473,489,495
492,492,408,490,495
492,491,369,489,494
493,493,371,491,495
494,494,378,490,494
492,493,395,491,493
492,493,447,491,494
492,493,506,492,495
492,491,582,489,494
492,494,633,490,494
491,492,635,490,496
493,492,621,490,496
493,492,533,491,495
492,492,433,490,495
493,492,393,491,494
492,494,368,491,494
491,493,371,490,494
492,493,381,491,493
491,493,413,490,494
491,492,473,489,494
492,494,536,489,494
490,491,612,491,495
493,492,639,491,496
492,492,631,491,496
491,492,589,492,495
493,493,485,492,495
492,492,411,490,496
492,493,373,490,494
491,494,368,489,494
493,494,376,490,495
492,492,391,492,494
493,492,440,491,494
491,492,500,491,495
492,492,571,491,495
490,491,631,492,494
489,492,633,491,496
492,491,620,492,493
492,492,547,493,496
492,493,442,492,494
492,493,395,491,494
493,493,369,491,495
492,491,372,492,493
491,493,379,492,495
490,491,406,491,494
492,491,464,491,494
491,492,526,492,493
490,492,604,493,493
491,491,637,493,495
493,494,631,491,494
489,491,594,492,495
493,493,498,492,495
492,493,417,493,495
491,491,382,492,493
491,494,369,491,494
491,493,375,491,495
491,492,384,491,493
491,494,431,491,494
491,493,493,491,494
491,491,560,492,494
493,493,626,491,493
490,493,636,492,496
491,491,625,492,497
492,491,560,494,496
492,492,455,492,495
491,493,399,491,495
491,493,368,493,496
492,490,371,490,495
492,494,378,490,494
493,494,402,490,495
492,492,456,492,494
491,492,518,491,494
492,494,597,490,493
491,492,635,492,495
490,493,631,492,493
491,493,606,493,494
494,492,512,492,495
492,492,422,492,496
491,491,384,490,495
493,494,369,490,495
492,492,376,491,496
491,492,382,492,494
492,491,427,492,495
491,493,485,491,495
490,492,550,492,493
490,492,620,492,493
492,493,635,490,493
492,493,625,493,496
492,491,572,490,495
493,493,466,493,496
493,492,404,491,496
493,492,371,491,496
491,492,370,492,495
493,493,377,490,495
491,492,398,490,495
491,492,448,491,494
490,493,509,491,493
491,494,586,490,493
492,493,633,493,495
491,492,634,492,495
491,494,613,493,497
492,491,525,492,496
492,493,430,491,495
491,492,391,493,495
493,493,370,491,494
491,493,374,492,495
492,493,382,493,494
492,494,418,494,495
492,493,476,495,494
492,493,542,493,495
489,492,614,491,495
491,492,639,488,494
492,493,628,490,494
491,492,582,489,495
492,493,480,491,495
492,492,410,490,496
492,494,372,489,493
491,492,370,492,496
493,492,377,490,495
493,492,395,489,495
492,492,444,490,494
491,492,502,490,495
491,492,577,490,494
492,492,630,491,494
492,493,633,490,494
492,493,620,490,494
492,491,538,492,496
493,493,439,490,495
491,492,394,491,496
492,491,370,490,496
492,491,373,491,495
491,492,381,492,495
490,491,411,490,495
492,492,467,491,494
492,492,531,491,493
491,493,607,489,494
492,493,636,490,494
493,491,631,491,494
491,493,587,491,497
493,493,490,491,495
492,492,414,491,495
491,492,377,492,495
490,492,368,492,494
490,491,376,491,496
492,493,386,490,495
490,491,437,490,494
491,491,496,490,494
492,492,566,489,494
494,492,629,490,494
492,493,635,492,495
490,493,624,490,495
491,492,550,492,494
492,492,448,491,494
491,492,398,491,493
491,494,368,490,495
491,491,371,490,494
493,493,380,491,494
490,491,407,490,496
492,492,462,490,495
492,492,523,492,495
490,493,601,490,494
491,493,635,490,495
492,491,632,490,494
492,494,598,490,494
493,494,504,490,494
492,493,419,492,495
491,492,383,491,496
493,492,368,490,493
490,491,376,491,495
491,492,386,492,495
490,492,429,492,494
491,492,488,491,494
492,493,554,491,495
491,492,622,491,494
492,493,636,491,495
493,492,626,491,495
494,493,566,491,496
492,492,458,490,495
492,492,402,491,494
492,493,369,493,495
491,492,368,491,493
491,493,377,490,493
492,493,399,492,495
491,492,453,491,494
492,493,516,491,493
492,492,594,490,495
493,491,635,491,495
491,491,633,492,494
492,493,608,489,495
491,492,517,490,495
493,492,425,492,495
491,493,385,491,494
491,494,368,489,493
492,493,375,492,494
490,492,384,489,495
490,493,422,490,495
491,492,481,490,495
491,492,547,492,495
491,492,619,492,494
491,493,636,491,496
493,492,626,490,494
491,491,579,493,496
493,493,469,491,495
493,493,405,490,494
492,493,372,490,494
491,492,367,490,496
492,492,379,490,494
492,494,398,492,495
491,492,447,491,495
492,493,507,491,494
491,492,584,490,495
492,493,631,490,494
491,492,633,492,495
493,492,618,490,495
494,492,530,491,495
493,493,434,491,494
491,493,390,492,496
492,491,367,490,494
493,492,372,492,494
491,492,380,491,493
491,493,414,490,493
491,492,473,490,494
490,491,536,491,493
493,493,613,492,493
491,493,638,491,495
491,491,630,492,495
492,491,587,493,495
491,492,483,491,495
492,491,410,491,494
493,492,376,490,493
490,493,366,490,494
493,494,375,490,495
493,494,390,490,494
491,492,439,491,494
493,493,501,491,494
491,491,573,492,495
490,491,630,492,495
490,492,634,492,494
491,491,623,490,496
492,494,541,490,495
493,493,443,490,494
492,493,394,490,495
493,494,368,489,495
493,492,372,490,496
492,491,378,490,494
491,491,409,491,495
491,493,464,490,494
491,492,526,490,494
492,492,605,491,493
492,493,636,490,495
490,492,630,489,495
494,494,594,493,494
491,492,497,491,495
492,492,415,490,495
492,491,381,491,495
492,494,368,490,495
491,492,374,492,495
493,492,388,492,493
491,493,431,491,494
491,492,492,491,494
492,493,560,491,494
490,491,625,490,496
492,493,634,490,493
491,491,626,492,496
492,491,558,492,495
492,492,453,491,495
491,492,399,492,494
493,492,369,492,493
491,493,371,491,495
488,493,377,490,493
492,493,401,488,493
494,492,457,490,493
491,491,518,491,494
492,491,600,489,493
490,494,634,491,495
491,491,632,492,495
490,491,604,493,495
491,492,510,491,494
492,492,420,491,494
491,492,385,491,495
490,492,367,490,494
492,493,374,489,494
493,493,384,489,493
490,492,427,491,494
492,493,484,490,494
491,492,553,490,494
492,490,622,490,495
492,491,635,491,494
491,492,626,491,494
490,493,571,490,495
492,492,464,492,494
493,492,404,490,493
491,493,367,490,493
492,493,369,490,494
493,493,378,491,494
490,491,399,489,495
493,492,450,490,493
491,491,512,489,494
491,491,589,490,495
492,491,634,491,494
492,492,633,491,493
490,493,612,490,495
493,492,522,492,494
491,492,428,492,494
491,492,388,490,494
492,494,372,491,495
490,492,373,489,495
491,493,382,489,496
492,492,421,490,495
492,492,477,490,495
492,491,542,491,494
490,491,617,490,494
492,492,635,490,493
491,491,629,491,496
491,493,578,491,494
492,493,475,491,495
492,493,408,490,493
490,491,374,492,493
493,492,369,490,493
491,493,379,491,495
491,490,396,490,496
491,491,444,490,494
491,492,503,490,493
492,492,577,491,494
493,493,632,491,493
491,493,632,490,494
492,493,618,489,494
492,494,536,490,495
492,491,438,490,494
492,492,392,491,494
491,492,371,490,495
492,491,373,491,496
491,491,381,491,496
491,492,413,491,494
492,493,468,490,494
491,492,531,489,494
492,491,610,491,493
491,493,635,490,494
492,493,629,489,494
492,495,590,492,495
491,492,488,490,495
492,492,414,491,495
491,492,378,491,496
492,491,369,491,495
491,491,377,491,494
492,493,388,492,494
490,491,437,489,493
492,492,497,491,494
490,492,564,489,493
491,493,626,489,493
492,492,635,491,494
493,492,624,490,494
491,493,548,491,495
492,493,447,491,495
492,491,397,491,496
491,491,371,492,495
491,492,370,491,494
492,492,378,492,493
493,492,407,491,493
491,492,461,491,495
491,493,520,488,493
492,494,602,488,495
490,492,636,490,495
492,492,629,491,492
492,491,599,492,496
491,491,502,490,496
492,492,417,491,495
491,493,381,490,493
490,491,368,491,495
492,491,375,489,493
491,492,384,489,493
491,493,428,489,494
491,492,489,490,494
490,492,556,489,494
493,492,624,490,493
492,491,637,491,496
490,491,625,492,497
491,491,565,491,496
492,492,459,491,495
492,493,401,491,494
491,492,370,488,494
492,493,368,490,494
491,493,377,490,494
492,494,400,489,494
492,493,455,492,495
491,493,515,490,493
491,493,594,491,495
491,492,635,492,495
491,492,632,492,495
491,492,611,490,494
493,493,515,491,495
491,493,425,490,495
492,493,386,490,493
491,493,368,490,494
492,493,374,489,494
491,492,384,492,495
493,491,424,490,493
491,493,483,490,494
491,492,549,491,495
490,492,619,492,494
491,492,635,491,493
491,492,629,491,495
491,494,573,490,496
492,492,471,491,495
492,493,405,490,495
493,492,372,489,495
493,492,371,490,493
492,493,378,492,495
492,495,396,489,494
491,492,449,492,494
491,492,508,492,494
492,493,582,491,492
492,492,634,492,494
492,493,633,492,494
490,493,619,490,495
494,492,529,491,495
493,492,432,489,495
493,492,390,490,493
492,491,371,491,495
492,493,372,489,494
491,493,381,492,493
490,493,414,490,493
491,492,472,489,494
491,493,536,491,495
490,491,613,489,494
493,493,636,490,494
492,491,630,491,496
492,491,586,492,496
492,492,482,491,495
492,493,410,490,494
491,492,373,490,496
493,492,367,490,494
492,494,376,490,495
493,494,391,489,494
493,493,440,491,494
491,492,501,490,495
492,493,571,489,495
491,491,631,492,494
490,492,633,491,493
490,493,620,491,495
493,492,545,491,495
491,493,441,491,495
492,493,395,490,494
493,494,370,490,494
493,491,372,491,495
493,491,381,490,495
491,494,407,490,495
491,491,466,490,494
492,493,529,491,493
490,492,607,491,493
491,493,635,490,493
492,493,632,492,494
490,494,591,489,495
491,492,495,491,494
492,492,415,490,495
491,491,380,491,496
492,491,369,491,494
493,493,375,492,494
490,492,387,489,496
493,493,433,491,494
491,493,495,490,494
492,492,561,489,493
492,492,627,491,493
491,492,636,491,493
492,493,622,492,496
491,491,557,493,495
492,492,452,491,494
492,491,398,491,494
491,492,371,490,495
492,493,369,490,493
491,491,380,492,493
492,493,404,490,494
492,492,458,489,494
492,492,519,489,493
491,493,599,491,496
491,492,635,490,494
493,493,632,491,493
490,493,603,492,494
491,493,508,491,495
492,493,422,490,495
491,493,383,490,495
491,491,369,490,495
492,492,376,491,495
491,492,386,491,496
492,491,427,490,494
492,493,486,491,494
490,492,552,490,494
491,493,621,490,493
491,493,636,490,494
491,493,625,489,494
493,495,569,490,495
491,493,464,491,494
492,492,402,491,493
492,492,372,491,496
491,491,370,492,495
490,491,378,491,495
490,493,400,490,494
490,492,450,490,494
492,492,512,490,493
491,494,590,489,493
492,493,635,490,495
492,492,633,491,493
491,494,615,492,496
492,494,520,490,494
492,492,428,491,495
491,492,389,492,494
490,491,369,491,493
492,492,374,491,494
492,493,383,492,496
490,491,419,490,494
492,494,479,490,494
491,492,543,490,495
491,491,617,490,495
491,493,636,489,494
490,492,626,492,495
494,493,580,492,494
491,493,475,491,495
491,492,407,490,494
491,494,372,491,496
491,492,370,490,494
492,492,376,491,493
493,492,397,490,495
491,491,445,491,495
491,491,504,490,495
492,493,578,488,494
490,492,630,491,495
492,491,632,489,493
492,494,618,490,494
493,494,533,491,495
492,493,437,491,494
491,492,393,491,495
491,492,367,490,495
491,491,373,492,495
491,492,381,492,495
490,491,412,492,494
491,492,469,491,494
492,492,533,491,493
491,491,612,492,495
492,493,637,491,494
492,491,630,491,496
492,492,588,490,496
492,494,487,490,495
492,492,413,490,494
492,493,375,492,494
490,493,367,491,493
491,493,374,490,493
492,493,391,491,495
491,493,437,489,493
490,492,497,490,494
492,492,569,491,495
492,491,630,491,495
490,491,634,492,494
493,493,623,492,494
490,492,547,491,496
493,493,444,491,493
491,493,396,490,494
492,494,367,489,494
492,493,372,490,495
491,493,379,492,495
492,491,408,490,493
492,493,464,491,494
491,492,525,491,494
490,492,603,492,493
490,493,638,491,494
491,493,630,490,494
490,491,599,493,494
493,493,501,491,494
492,492,417,491,494
492,492,382,490,493
490,494,367,491,495
490,491,373,490,494
492,493,385,492,493
490,492,430,491,493
490,492,490,491,493
491,491,559,491,494
491,495,624,490,493
490,493,635,490,495
492,492,626,490,495
492,492,563,491,496
492,493,456,490,495
492,492,400,490,494
493,492,369,492,494
492,491,370,490,493
492,494,377,490,493
492,494,400,489,494
493,493,454,490,494
492,492,517,490,494
491,491,594,490,493
491,492,636,491,493
490,492,632,492,493
490,493,607,492,494
491,492,515,491,495
491,493,423,491,495
491,492,386,490,493
490,494,370,490,494
492,492,375,490,494
492,492,384,490,492
491,493,426,490,495
491,493,482,490,493
492,492,549,491,493
490,492,620,493,493
491,493,635,491,493
492,493,625,490,495
491,492,577,491,495
493,493,468,492,494
492,493,405,490,495
492,492,372,490,495
491,491,370,491,495
491,493,377,489,494
490,492,397,492,495
492,492,448,491,494
492,493,509,491,493
491,493,584,490,493
491,494,633,491,494
491,493,635,490,495
492,493,615,491,493
492,492,528,491,495
492,493,432,491,495
491,492,391,492,495
493,494,369,490,493
491,493,372,491,495
492,491,381,490,493
492,494,416,490,493
491,493,475,490,493
491,492,539,490,495
493,492,613,491,493
491,491,638,492,494
492,493,628,492,493
491,492,585,493,494
491,492,481,492,495
492,492,410,490,494
492,492,374,489,492
491,492,370,492,494
493,493,377,490,494
493,492,394,490,495
493,492,442,491,495
492,493,501,490,494
490,492,575,489,494
492,493,630,491,493
491,494,634,490,492
492,494,620,490,493
491,494,541,491,495
493,493,440,490,493
491,492,394,491,495
494,492,370,489,495
493,491,373,491,495
491,491,381,491,495
490,491,409,489,493
491,493,467,490,493
490,492,529,490,495
491,494,606,489,492
492,494,636,489,494
493,493,630,490,494
490,492,591,492,495
492,493,494,491,494
492,492,415,490,495
491,492,380,492,495
490,491,369,492,493
490,492,376,490,495
493,493,386,490,493
491,492,435,491,493
492,493,495,490,493
493,493,564,489,493
492,492,627,491,493
491,493,634,492,494
490,492,624,490,494
493,492,553,492,495
491,492,451,491,494
490,492,398,491,493
491,493,368,490,493
491,491,372,491,493
492,494,379,491,494
490,492,405,489,494
492,492,460,490,494
490,492,521,491,494
490,491,599,489,493
492,493,636,491,493
492,492,633,491,493
491,494,600,491,493
491,494,507,491,494
492,492,420,490,495
491,492,384,490,493
493,494,369,491,493
491,491,376,491,495
491,492,387,492,494
490,492,429,492,494
490,493,486,490,493
491,493,553,490,494
492,491,624,490,493
492,493,635,489,493
493,493,627,490,493
492,493,568,491,495
492,493,461,491,494
492,492,404,491,495
491,494,367,490,496
490,492,370,491,493
490,492,378,491,493
490,492,399,491,494
492,492,453,490,493
491,493,515,491,494
490,493,592,489,494
493,493,636,490,495
491,492,633,492,495
491,494,610,490,493
492,492,522,492,494
491,492,428,492,494
491,493,387,492,493
490,493,369,491,493
491,494,373,492,495
491,492,384,490,493
493,492,422,492,494
492,493,479,490,494
492,493,545,490,494
491,492,619,491,494
490,492,637,491,494
493,492,628,491,492
490,493,580,490,495
492,493,472,491,494
491,493,407,490,494
492,494,372,490,493
492,492,369,491,492
492,492,379,490,493
490,493,394,491,495
491,492,446,491,494
491,492,507,491,494
490,492,579,490,494
493,493,631,490,492
492,492,635,492,495
492,494,618,489,493
493,492,533,491,494
493,493,436,491,494
491,492,391,491,495
492,491,372,490,493
492,494,372,493,495
491,492,380,492,493
490,492,413,491,493
491,493,470,490,494
491,492,535,490,495
492,494,611,489,494
489,492,635,490,494
493,492,630,490,495
492,492,589,491,496
492,492,487,491,494
492,493,413,491,494
491,493,375,490,494
490,492,367,491,493
491,493,375,490,493
491,495,389,489,492
490,491,439,490,493
491,493,499,491,493
490,492,571,490,495
492,491,630,491,495
491,491,635,492,494
490,491,623,489,494
494,492,545,492,494
493,493,445,491,494
491,492,393,490,493
492,494,368,489,493
492,493,372,490,494
493,493,381,491,493
491,492,408,490,495
492,493,463,490,494
492,492,525,490,493
490,492,606,491,493
490,493,636,490,493
491,491,632,491,493
492,494,595,492,496
491,492,498,490,494
492,492,416,490,494
493,492,382,490,494
493,492,367,490,493
492,491,376,491,494
492,493,386,489,495
489,491,431,491,493
491,492,492,490,493
491,493,558,490,495
492,491,626,490,493
492,493,637,491,493
489,492,625,490,494
494,492,560,491,495
493,492,456,491,494
491,492,401,491,495
492,494,368,489,496
491,492,369,490,495
492,492,377,491,493
491,493,401,490,493
492,493,457,491,494
491,492,518,491,494
490,493,597,489,493
490,493,635,491,494
491,491,633,491,495
491,492,609,492,495
491,492,514,491,494
492,492,421,492,494
491,492,386,491,494
494,492,368,491,493
492,493,372,490,492
492,494,385,490,492
492,491,426,491,494
492,493,484,490,493
491,492,550,490,494
492,492,621,490,494
491,492,637,490,493
490,493,627,491,493
490,492,573,490,496
493,494,467,491,494
492,492,405,491,494
492,494,368,490,493
492,493,371,490,494
493,493,379,490,493
491,493,395,491,495
492,493,449,490,493
491,493,511,491,494
490,492,586,491,493
490,492,633,491,492
490,491,634,491,495
493,494,614,489,495
491,492,527,491,494
492,493,430,490,494
493,493,391,490,494
493,493,371,491,493
491,493,374,491,495
491,494,382,489,492
490,491,417,491,493
491,492,475,490,493
491,493,539,490,492
490,494,613,490,495
491,492,637,490,494
493,493,629,491,492
490,493,584,490,495
493,493,480,490,494
492,492,412,491,494
490,494,374,489,493
491,493,369,491,494
493,492,378,491,493
491,494,391,490,493
492,494,443,490,493
492,493,504,492,494
490,492,576,489,494
492,493,631,490,492
491,491,635,491,494
490,491,621,492,495
491,492,540,491,494
491,494,438,491,494
491,493,393,490,495
491,492,368,490,493
492,494,370,489,493
492,493,381,489,493
493,493,411,490,494
492,492,467,490,494
492,492,530,490,492
491,493,608,491,495
490,492,636,491,493
491,493,629,491,493
490,493,591,490,496
492,492,491,491,494
491,493,415,491,494
492,493,377,489,493
493,493,369,491,495
492,491,377,491,494
491,493,386,490,495
491,492,436,491,493
492,492,496,493,493
491,493,563,492,493
490,493,626,490,492
492,493,636,490,494
490,493,624,489,493
491,492,552,490,495
492,493,449,490,495
492,492,398,490,494
492,492,372,491,494
490,492,371,489,494
492,492,378,491,493
490,492,407,490,494
491,493,459,490,493
491,493,519,489,493
492,494,602,490,493
489,493,635,491,494
492,491,633,490,493
491,494,602,493,495
491,492,505,492,494
492,493,419,491,494
491,493,384,490,494
492,492,367,489,493
491,492,376,491,494
492,493,384,489,494
493,492,428,490,494
492,494,488,491,493
491,493,554,491,495
492,491,622,490,493
492,493,636,491,493
491,493,624,490,493
491,493,566,491,493
492,493,462,491,494
491,491,404,491,494
493,494,370,493,494
490,492,371,491,495
493,491,379,491,495
492,491,402,491,494
491,492,453,490,493
491,492,513,491,493
492,492,594,490,492
490,493,633,491,494
493,493,631,490,493
493,494,611,490,494
490,492,518,491,495
493,493,426,491,493
491,491,388,492,495
492,491,371,492,494
491,492,374,492,493
491,492,384,490,495
490,493,419,490,495
492,493,482,490,493
491,493,545,489,493
492,493,617,489,494
493,492,638,490,494
492,492,626,490,493
491,491,579,492,495
492,494,472,491,495
492,492,407,491,494
491,492,371,492,493
491,493,368,490,495
491,491,378,490,494
493,494,398,492,493
490,493,446,490,493
492,492,506,489,494
492,491,582,490,494
492,494,631,490,494
490,492,633,492,495
493,492,620,493,493
490,493,529,492,494
492,492,435,491,494
491,493,392,492,494
490,491,369,489,495
493,493,371,490,493
492,492,384,490,496
492,491,416,491,494
492,492,472,491,494
492,492,536,491,493
492,492,612,490,493
492,493,639,491,494
491,493,628,489,494
493,494,585,489,494
494,493,486,490,494
492,492,412,491,494
492,492,376,491,492
491,494,368,492,494
490,491,375,492,493
491,492,390,491,492
491,492,438,490,494
491,492,498,490,493
491,491,572,491,494
493,494,630,490,494
492,492,634,491,495
492,491,623,490,496
491,494,542,491,495
492,492,442,491,493
492,492,396,492,493
490,491,368,492,492
491,493,369,490,492
492,494,380,490,493
492,491,410,492,494
493,493,464,490,494
492,493,527,491,494
491,490,607,491,495
491,491,637,491,494
490,492,630,490,494
493,493,593,493,494
492,492,497,491,494
492,492,415,491,494
492,493,379,489,492
492,494,368,489,493
490,492,375,492,494
492,492,387,490,492
491,494,434,491,494
491,492,492,491,494
491,492,559,491,493
491,492,626,491,494
492,493,634,491,493
492,492,626,492,492
493,495,557,491,494
492,493,453,491,494
493,493,400,491,494
493,492,371,491,493
491,494,371,492,494
491,493,379,490,493
490,492,402,492,493
491,492,456,492,493
492,493,517,490,493
490,492,599,492,492
492,493,635,491,493
491,493,634,491,495
492,491,606,491,496
493,492,511,490,495
493,493,421,490,493
492,492,384,492,494
493,494,369,490,493
491,493,372,491,493
491,493,382,490,492
492,494,424,489,494
491,492,485,490,493
492,492,551,491,492
490,492,623,491,495
492,492,637,492,494
491,491,626,491,494
491,492,573,493,494
492,493,466,491,494
491,492,403,490,495
492,492,368,490,493
492,493,369,490,494
493,493,377,490,494
492,493,398,491,493
491,492,451,490,495
491,493,510,491,493
490,491,590,492,494
490,491,633,492,493
491,493,632,491,494
492,491,618,491,493
492,494,525,491,495
492,493,430,490,493
491,493,389,490,494
493,494,369,490,494
493,494,373,490,492
491,491,384,492,492
492,494,418,491,493
491,492,478,490,493
490,492,539,491,492
490,493,614,490,493
492,494,638,492,494
491,493,628,489,494
491,492,582,492,495
493,493,478,490,494
492,492,409,490,494
492,491,375,491,492
491,494,369,492,493
491,492,377,490,495
492,493,393,491,492
491,493,442,491,493
492,493,503,490,494
492,492,579,492,494
492,493,632,490,493
492,493,633,491,494
491,492,622,492,496
491,492,537,492,495
492,492,438,490,492
492,493,393,492,493
491,492,369,490,494
491,494,371,491,492
492,493,380,491,492
492,494,409,491,493
492,493,468,490,493
490,492,531,489,494
492,491,608,489,492
492,492,639,491,494
490,492,630,491,493
491,492,590,492,493
491,493,492,490,494
491,492,412,491,494
492,492,379,489,492
492,494,369,490,494
493,492,376,491,495
493,493,390,491,492
491,494,437,491,495
492,492,496,490,493
491,492,567,491,492
489,492,627,490,492
492,493,634,490,493
491,491,625,492,492
492,494,549,492,494
492,492,448,491,493
492,493,398,491,494
492,492,370,490,494
492,491,371,491,494
491,494,379,490,493
490,491,405,491,493
492,493,461,490,493
491,492,521,490,492
491,493,601,490,493
492,493,635,491,493
490,492,632,490,495
492,492,597,491,492
493,492,505,491,494
491,492,419,491,494
491,492,382,492,494
492,494,370,490,492
490,493,372,491,495
493,492,385,490,492
492,494,430,490,494
491,493,488,491,493
492,492,556,490,492
490,492,625,490,494
491,493,635,490,494
491,492,626,492,494
491,492,566,492,494
491,491,460,491,494
491,491,402,490,495
492,492,367,491,492
491,491,371,492,494
492,493,379,490,493
492,493,401,490,494
492,492,453,489,493
491,493,514,491,494
490,491,595,490,492
492,493,635,492,493
490,493,631,492,492
491,493,609,493,493
492,494,519,493,495
492,493,426,490,493
491,492,387,491,494
493,494,371,489,494
492,491,375,490,495
492,491,384,491,493
492,494,422,491,494
491,492,480,490,493
493,493,546,490,491
490,493,618,490,492
492,494,636,489,493
492,494,627,489,493
491,492,579,492,494
492,493,471,491,494
492,492,408,490,494
491,492,374,491,496
491,491,370,492,494
490,492,378,489,493
492,492,395,491,492
492,492,448,490,493
491,493,508,490,493
491,494,582,489,493
492,494,633,490,493
491,493,633,491,495
491,491,616,490,493
492,492,532,491,494
492,492,435,491,494
491,492,391,492,493
490,492,371,490,495
491,494,372,491,495
491,491,383,489,492
493,494,417,490,493
492,493,473,491,494
493,493,537,490,494
491,492,612,490,492
491,492,638,492,494
493,493,630,490,492
490,492,585,492,493
491,493,484,492,494
492,492,410,491,494
491,492,378,490,492
491,493,369,491,493
491,492,377,490,494
492,492,393,490,495
491,491,440,490,494
491,493,500,490,492
490,491,573,492,493
492,493,631,491,493
491,494,634,490,492
491,494,621,490,493
492,495,543,492,494
491,493,444,491,493
493,492,395,491,493
493,492,371,490,494
491,491,373,492,495
490,492,380,492,493
490,491,408,492,494
492,493,465,491,493
491,493,527,491,494
491,494,606,490,492
492,493,637,490,494
492,492,630,491,495
493,493,593,492,493
493,492,498,492,494
492,493,415,490,494
491,492,381,490,494
490,492,368,491,492
491,493,374,490,494
492,491,386,489,492
491,491,434,490,494
492,493,494,489,492
491,493,562,490,494
492,492,626,490,494
492,494,635,489,494
490,492,625,490,493
493,494,556,491,494
492,493,454,491,494
491,492,399,491,493
491,494,368,490,492
492,492,372,492,493
493,493,380,490,493
490,493,402,490,494
492,493,459,490,493
492,492,519,491,494
490,491,599,489,492
492,492,635,491,492
491,491,632,491,495
492,495,602,490,492
492,494,510,491,494
491,492,420,491,493
491,492,385,492,494
493,492,371,491,493
491,494,376,491,494
491,492,387,492,494
490,492,426,491,494
491,491,484,490,493
493,493,551,491,492
492,491,622,491,493
493,493,636,490,493
493,493,627,490,493
493,493,570,491,495
493,492,464,491,494
491,493,404,491,494
491,494,367,489,492
491,492,369,492,492
490,493,377,491,492
491,494,397,491,493
493,493,453,491,493
491,493,511,492,493
490,492,591,489,494
493,493,636,491,494
491,491,634,492,494
491,491,613,490,493
493,493,523,492,494
492,493,429,491,493
491,493,388,490,492
490,494,369,490,492
492,494,373,489,494
490,492,383,490,493
493,493,419,491,492
491,492,478,490,493
492,492,543,492,494
491,491,618,492,493
490,492,636,492,493
493,493,630,491,492
490,493,579,491,495
492,492,475,491,493
493,494,409,491,493
492,493,373,491,493
493,492,368,491,492
492,491,378,492,495
492,494,392,489,494
491,493,446,491,493
491,493,504,491,492
490,493,576,490,494
493,492,633,489,492
492,494,634,491,493
490,493,622,489,494
494,493,537,491,494
493,493,438,491,494
492,492,392,490,492
491,492,372,491,493
493,493,371,491,493
491,493,380,490,492
491,494,411,491,493
491,493,469,490,494
492,493,533,491,493
490,494,611,489,493
491,493,636,490,494
492,492,632,491,494
490,491,591,492,495
491,492,489,491,494
493,493,413,492,493
491,493,378,491,495
493,493,367,489,493
493,494,376,490,494
492,493,389,490,493
493,492,436,491,493
492,493,498,491,493
491,493,565,491,494
491,491,629,491,493
491,492,635,491,493
490,493,622,490,495
494,492,548,491,494
492,493,448,491,494
492,493,396,490,493
493,494,370,489,493
492,492,372,491,494
492,491,380,491,492
491,494,404,491,494
491,492,461,490,493
492,492,523,490,492
490,493,603,491,492
490,493,635,490,493
492,490,632,491,493
492,495,598,490,494
491,492,502,491,494
492,493,419,490,493
492,492,384,492,495
492,491,370,490,494
493,493,375,492,493
491,492,387,490,495
491,494,429,490,493
491,493,490,491,493
491,493,556,490,493
490,492,624,491,494
493,492,638,491,493
491,493,626,492,496
492,492,565,492,494
492,493,459,491,494
491,492,401,492,494
491,493,369,489,493
491,493,369,490,495
491,491,379,490,493
492,495,400,490,493
492,493,455,491,493
491,493,514,491,492
491,493,598,491,494
492,493,634,491,493
491,493,633,491,493
491,493,610,492,493
490,493,516,491,494
493,493,426,490,493
492,493,387,492,495
490,491,368,489,493
493,493,375,490,494
492,492,385,490,495
492,491,421,490,493
491,493,483,490,494
492,493,547,490,493
490,492,618,491,493
491,494,636,490,492
491,494,626,490,493
491,494,575,492,495
492,493,471,491,494
492,492,406,491,494
493,492,373,490,495
492,492,371,492,494
490,491,378,492,494
492,494,396,489,492
490,492,448,490,493
491,493,507,490,493
491,494,582,489,492
492,495,633,490,494
492,493,633,492,494
491,492,619,491,495
491,494,527,491,495
493,493,433,491,494
491,492,392,492,494
490,491,372,492,494
492,492,373,490,492
492,494,384,491,495
491,495,414,490,493
492,494,473,491,493
493,493,538,491,493
492,493,613,490,494
491,493,636,489,494
491,492,630,489,493
492,494,585,493,493
491,492,483,491,493
492,493,411,492,493
491,493,375,490,495
493,493,368,489,493
490,492,376,492,494
493,492,392,489,493
493,492,441,490,493
491,492,500,490,493
491,493,570,491,495
491,491,631,490,493
492,493,633,491,492
492,493,621,491,493
491,494,542,491,493
492,492,443,491,494
492,493,395,490,493
491,492,370,490,494
492,491,372,492,495
492,492,381,492,494
492,491,410,492,494
491,492,464,489,494
492,493,527,490,492
492,492,608,490,492
492,494,636,489,493
493,494,630,490,493
493,494,592,490,494
491,493,496,490,494
492,493,415,491,493
491,491,380,491,495
492,491,369,492,493
491,492,376,492,493
491,492,387,489,495
491,493,432,490,494
492,492,493,490,493
491,493,561,489,492
493,494,626,490,494
492,492,636,490,492
492,493,625,491,496
492,494,554,491,493
492,492,451,491,494
492,491,399,491,493
491,492,370,492,493
490,493,369,491,495
492,491,381,489,493
492,494,405,492,493
491,493,458,490,493
492,493,520,490,494
492,491,601,491,495
492,493,634,490,494
491,492,631,492,494
493,493,603,492,493
491,493,508,491,494
492,493,420,491,492
491,493,384,492,495
491,491,369,490,494
493,492,373,492,492
492,491,386,490,495
492,491,428,491,494
492,492,486,491,493
491,492,551,489,492
490,492,621,489,494
492,491,635,490,493
493,494,625,489,492
493,495,569,490,493
493,494,464,491,494
493,492,403,491,493
493,492,372,490,492
492,493,368,492,494
491,492,378,492,493
491,492,400,492,492
491,492,450,490,494
492,492,511,491,493
492,491,591,492,494
492,493,633,490,494
493,492,633,490,494
492,491,615,491,495
491,494,519,491,494
493,492,428,490,493
492,492,387,492,494
491,491,369,491,492
492,493,372,490,492
492,493,383,492,495
491,494,418,490,493
491,492,478,491,493
492,492,543,491,494
493,491,617,491,494
490,492,637,492,494
490,491,627,488,494
493,494,579,491,493
492,492,475,490,494
492,493,407,490,494
493,494,372,489,492
492,494,370,490,494
491,492,376,491,495
493,492,396,491,492
492,493,446,491,495
492,493,505,491,493
491,492,579,491,493
490,491,632,490,494
492,493,632,489,492
491,491,622,492,493
493,494,533,491,494
492,493,436,490,493
494,492,394,490,493
490,492,368,490,495
493,492,371,489,492
492,491,382,491,495
491,491,412,491,493
491,492,471,490,493
491,492,532,491,492
491,491,612,491,492
493,494,637,492,494
490,492,629,491,495
493,493,589,490,495
493,493,489,491,493
492,492,411,491,493
492,491,378,492,495
492,493,369,491,493
491,493,374,491,493
492,493,388,490,492
491,494,437,491,494
491,492,498,490,493
493,493,569,491,492
490,492,630,491,494
491,491,636,491,494
491,492,623,492,495
491,494,547,491,494
492,492,446,491,494
493,492,397,491,493
491,493,368,491,493
492,493,370,489,493
492,493,380,490,493
492,493,406,491,493
491,492,462,490,493
491,492,523,490,494
491,491,606,491,494
492,493,636,491,493
491,493,630,491,494
492,492,598,491,492
493,494,502,491,494
492,492,416,491,493
492,493,381,490,493
493,494,370,490,495
492,494,373,491,493
491,492,387,492,492
492,494,431,493,493
491,492,489,492,493
491,492,556,491,492
490,493,622,493,494
492,491,635,491,494
493,493,625,491,493
493,493,562,490,495
492,493,456,490,494
493,492,402,491,494
491,491,371,492,492
492,493,370,492,492
490,492,379,490,494
492,493,399,490,492
491,493,454,490,493
492,493,515,489,492
492,491,596,492,494
493,492,636,490,492
491,494,631,492,495
491,491,610,492,496
492,492,515,492,494
492,493,427,490,493
492,492,384,491,493
491,492,371,491,495
492,494,373,489,493
493,494,383,489,493
494,493,424,490,493
491,492,483,491,494
492,492,548,489,491
491,494,622,492,493
490,492,636,492,493
491,493,625,490,492
491,494,574,491,493
492,492,470,491,494
492,493,406,490,493
490,492,372,489,493
493,492,370,490,494
493,491,379,491,495
492,491,399,490,492
491,493,448,490,494
492,493,508,490,493
490,492,584,491,492
490,493,632,489,492
492,494,633,489,493
490,492,618,493,493
494,493,528,491,494
492,493,433,491,494
492,491,391,491,495
492,492,371,492,493
491,493,373,491,494
493,493,381,492,493
493,492,418,492,492
491,492,474,491,493
492,493,538,490,492
493,494,614,490,492
492,492,638,490,492
491,493,630,491,494
493,495,583,490,493
491,492,482,492,494
492,492,410,491,492
491,493,374,492,492
493,491,371,491,493
492,494,375,492,493
491,492,392,489,493
492,492,441,490,493
492,492,501,490,493
492,492,573,490,492
490,491,631,491,495
493,493,636,490,493
491,493,621,492,493
491,493,540,491,493
493,493,443,490,494
492,492,396,490,493
493,494,371,492,492
491,492,374,491,494
492,491,381,491,495
492,491,412,492,494
491,492,467,491,493
492,493,528,491,493
491,493,606,490,494
491,492,636,491,493
492,493,629,490,493
493,494,592,489,493
493,494,494,492,494
492,492,414,490,494
492,494,377,490,495
491,491,369,492,494
491,492,375,491,493
491,493,388,491,494
492,491,435,490,493
491,492,495,490,493
491,493,563,489,493
493,494,627,490,494
492,492,637,491,494
492,494,623,490,492
491,491,556,491,493
493,494,451,491,493
491,492,399,491,493
490,492,369,492,493
492,493,370,490,492
492,493,380,492,495
490,494,403,490,493
491,493,461,492,493
491,492,521,491,494
491,491,602,490,494
492,492,637,491,494
492,493,631,492,492
490,493,603,491,495
494,493,506,492,493
491,492,418,491,493
