Sensor0,Sensor1,Sensor2,Sensor3,Sensor4

5,491,495,554,491
493,491,492,455,492
494,491,491,44492,494
450,490,493,491,492
512,490,493,492,493
589,490,492,492,492
641,491,493,493,494
5,395,488,492,492
494,450,490,493,491
492,512,490,493,492
493,589,490,492,492
492,641,491,493,493
494,638,491,493,491
494,621,492,493,491
494,526,491,494,492
493,429,490,494,492
493,388,491,494,491
495,365,490,494,490
493,368,491,494,492
492,381,491,495,491
491,418,491,494,491
492,476,491,493,492
494,543,491,492,491
492,622,490,492,495
494,642,490,493,493
495,634,489,494,492
495,585,490,495,494
492,478,491,494,492
493,408,490,493,491
493,367,491,495,491
492,366,491,492,490
492,373,492,492,490
492,389,490,495,493
492,442,491,493,491
492,505,491,493,492
494,578,489,492,493
494,639,491,494,492
492,641,491,494,492
491,626,489,492,492
495,538,491,493,493
493,436,491,492,492
493,389,490,492,490
493,364,492,492,491
494,366,490,492,492
492,378,491,494,492
494,408,489,493,491
492,469,489,493,492
493,533,490,494,491
492,616,491,495,491
492,642,490,494,494
493,635,492,492,491
492,595,490,495,494
493,491,491,493,493
493,411,490,492,493
493,375,489,493,489
493,363,491,493,492
492,374,490,492,491
494,387,491,494,490
493,434,491,493,491
493,497,491,490,492
492,566,492,492,489
492,634,491,495,491
494,641,489,494,490
492,628,489,494,494
494,556,490,494,492
493,449,491,494,492
492,395,490,492,492
495,367,491,494,490
493,366,489,494,490
493,374,490,492,491
493,401,490,492,491
493,459,490,493,492
492,524,491,492,493
493,608,492,492,490
494,643,492,494,492
492,638,492,494,491
492,606,493,494,490
492,506,491,494,491
493,416,491,492,491
492,380,491,492,490
494,362,490,491,493
493,370,490,493,492
493,382,489,494,493
493,426,490,492,491
493,488,491,493,492
493,557,489,492,491
492,629,491,492,490
494,642,491,492,491
494,630,489,489,493
492,572,492,494,492
494,461,491,494,491
492,399,490,493,492
493,366,489,492,492
492,367,491,494,491
491,372,489,492,492
491,399,492,493,492
494,452,490,493,491
493,514,491,492,490
494,595,491,491,490
494,639,490,493,491
493,639,490,493,494
493,617,492,492,490
492,520,490,495,493
493,425,490,494,491
493,387,491,494,491
491,367,492,493,493
492,370,491,492,492
493,379,491,494,493
491,417,490,492,492
494,479,489,491,490
494,546,488,492,491
494,622,490,493,491
493,645,490,493,492
494,632,489,494,491
492,583,492,494,491
493,475,491,493,491
492,405,490,493,493
492,369,489,492,491
495,366,492,493,490
493,372,489,494,492
493,393,489,494,492
493,445,490,494,491
492,505,490,493,491
493,584,491,493,492
494,639,491,493,492
494,638,490,490,494
494,623,490,493,492
495,536,490,494,492
493,434,490,494,491
493,391,490,494,490
493,363,490,494,491
492,368,491,494,491
493,379,492,492,491
492,410,491,493,491
492,471,490,493,492
492,538,491,494,490
494,615,489,493,493
494,644,490,494,492
492,637,491,494,492
494,589,490,492,492
493,489,491,493,491
493,409,491,494,491
492,372,491,492,492
493,364,490,491,492
494,372,491,495,491
491,386,489,493,492
492,438,491,492,492
492,500,489,494,492
492,573,491,495,491
492,637,491,494,491
493,641,491,494,493
492,629,491,492,491
494,551,491,493,492
493,444,490,491,493
494,393,490,493,492
494,366,489,493,493
494,364,490,492,492
492,378,491,490,492
494,403,492,493,490
492,463,491,493,491
491,526,491,492,490
492,607,490,494,492
493,641,488,492,493
492,637,491,492,492
494,601,489,495,493
493,502,490,494,492
493,417,491,493,490
494,376,490,494,492
491,365,490,493,493
492,369,491,491,490
493,381,490,492,491
494,430,489,491,491
493,493,489,493,491
492,560,491,493,493
493,632,490,492,492
494,641,492,494,491
492,632,492,494,490
492,566,492,493,491
492,458,490,493,492
492,397,490,492,491
492,368,492,495,492
494,365,489,493,493
493,375,490,493,493
493,400,490,494,490
493,453,490,493,491
493,518,489,491,491
494,600,492,493,489
492,640,490,492,492
494,637,490,491,492
495,615,491,493,494
493,515,491,494,491
493,423,492,494,492
493,383,489,495,492
493,366,490,494,491
492,371,491,494,490
492,380,488,493,493
493,420,490,492,490
493,484,490,493,490
493,549,489,492,492
495,624,490,494,493
494,645,491,494,490
494,630,490,495,493
492,582,490,493,491
493,470,490,494,491
492,404,491,493,491
493,368,492,491,490
493,366,490,494,491
494,372,489,492,492
491,397,492,492,492
493,446,489,491,492
492,510,490,494,494
491,589,490,492,490
493,637,491,494,491
493,641,489,494,492
494,621,492,493,490
494,528,490,492,493
493,431,490,491,492
493,388,490,493,489
491,366,491,493,493
493,369,490,492,490
494,379,491,494,491
491,415,491,493,490
493,474,491,492,491
492,539,490,493,492
492,618,491,492,492
492,644,492,492,492
494,633,489,494,493
495,587,488,493,493
493,483,490,493,492
492,407,490,494,492
492,370,489,490,491
491,364,491,493,489
492,371,491,492,491
494,388,490,491,490
492,441,491,493,489
493,502,490,492,489
491,576,490,492,492
492,637,491,494,491
492,641,491,494,491
492,628,491,495,490
492,543,489,494,492
492,441,490,493,493
492,392,491,492,491
493,361,490,491,493
494,367,489,493,491
494,377,489,492,490
492,405,489,493,493
493,466,490,493,491
492,529,491,494,491
491,612,492,491,492
494,643,491,494,490
492,637,492,495,491
494,594,489,495,492
492,498,490,493,492
492,412,490,493,492
492,376,490,493,493
493,365,490,492,491
493,371,491,494,491
493,383,489,492,490
492,431,491,493,490
493,493,491,493,491
493,562,489,489,491
494,631,490,491,490
493,641,490,495,492
492,629,491,493,490
491,561,491,495,492
493,452,490,493,493
493,398,491,493,491
494,365,489,493,491
493,364,490,494,492
492,377,490,492,492
494,399,489,493,492
494,457,490,492,492
493,521,491,492,491
493,604,490,494,493
495,642,490,493,490
492,637,492,492,490
492,609,492,492,491
493,512,491,493,492
492,419,490,493,491
494,380,491,494,491
492,365,490,494,493
492,369,490,492,493
491,381,489,494,492
493,425,490,494,491
493,484,491,493,492
492,554,491,491,492
493,626,492,492,491
494,640,490,492,491
495,631,489,492,492
495,574,493,494,491
492,463,490,493,493
493,401,491,492,492
492,367,490,495,492
491,365,490,494,491
492,374,491,492,493
493,396,489,492,491
493,448,490,492,492
493,512,491,492,493
493,591,490,492,493
494,640,490,493,492
493,639,491,493,491
491,621,490,496,491
495,524,490,494,491
492,428,491,494,491
492,385,492,493,491
492,366,491,492,491
494,368,491,494,491
491,377,488,492,493
491,418,491,493,491
493,476,490,493,491
493,543,489,493,493
492,622,489,492,493
494,641,490,494,490
493,633,490,494,493
494,584,492,494,491
492,477,491,494,491
493,406,489,493,491
495,371,492,495,489
493,364,490,494,490
494,372,490,494,491
491,393,491,494,492
492,442,490,494,492
493,505,491,493,492
493,579,492,492,490
493,639,491,494,492
494,639,490,493,492
494,625,489,493,493
494,539,490,493,493
493,438,490,493,491
491,389,490,495,491
492,366,489,492,492
493,367,492,493,491
491,375,491,492,490
492,407,490,492,491
493,469,490,493,491
493,531,489,490,491
492,616,491,492,491
493,644,491,495,492
491,635,491,494,492
492,596,492,491,492
493,491,492,495,492
492,409,490,493,492
493,373,492,492,489
493,362,490,493,492
494,370,488,492,493
492,387,491,493,492
493,434,489,492,491
493,498,489,494,492
492,570,491,495,491
491,634,491,494,491
493,641,491,492,491
494,630,491,495,494
493,552,490,493,492
492,449,491,492,491
493,394,490,493,492
494,365,489,493,493
492,368,490,491,491
493,373,491,495,492
490,401,489,493,493
492,460,490,490,492
492,523,490,492,488
493,604,490,493,490
492,644,491,494,492
493,636,490,493,492
492,605,490,494,494
493,506,491,494,492
492,416,489,493,491
492,381,489,492,491
495,364,491,493,490
492,371,490,493,491
493,379,491,491,489
494,425,490,493,490
493,488,490,493,490
494,558,489,492,489
492,628,490,494,493
492,641,490,493,493
492,633,493,495,491
491,569,492,494,492
493,461,490,493,491
493,401,490,494,492
493,363,490,495,491
492,367,490,493,493
493,375,490,494,493
492,398,490,494,493
492,452,491,493,491
493,515,491,493,490
494,595,488,492,490
492,639,491,492,491
494,636,490,492,493
494,615,490,492,492
492,523,491,492,492
493,425,491,493,492
493,387,490,494,493
493,366,490,493,490
491,370,491,495,491
492,379,491,495,490
494,419,490,493,491
492,479,490,494,492
492,548,490,492,491
494,621,490,494,493
494,643,490,495,493
494,634,491,492,491
493,583,491,495,492
493,472,491,493,491
493,405,492,492,491
492,367,493,492,490
493,363,491,491,491
491,375,492,492,492
494,390,492,494,490
492,445,490,492,491
492,507,489,493,491
492,583,489,494,492
492,637,489,493,492
491,639,492,494,494
492,624,489,492,491
493,533,491,493,491
492,433,490,493,492
492,387,490,491,494
494,364,491,493,489
492,368,490,494,492
493,376,491,492,492
491,413,491,494,491
492,470,491,493,491
493,536,491,492,493
494,617,490,491,491
494,641,491,496,491
492,634,489,493,494
494,589,489,494,492
493,487,491,494,491
493,410,491,492,490
492,373,491,495,491
494,363,490,493,490
492,372,492,492,490
492,386,492,491,492
492,436,490,493,492
493,500,490,493,491
493,572,491,494,491
493,635,490,494,492
491,641,491,495,491
491,627,490,496,492
492,549,491,494,492
493,444,491,494,491
491,390,490,494,493
493,363,491,492,491
494,364,489,492,492
493,374,489,493,493
495,404,491,493,490
492,462,490,493,492
493,525,489,494,491
491,611,491,495,491
493,641,492,490,492
493,635,491,496,492
492,602,491,493,491
493,500,491,495,492
492,414,490,493,492
493,378,490,493,494
493,364,490,494,491
494,369,489,493,490
492,383,492,493,493
493,429,490,492,492
493,492,490,492,491
493,559,490,490,491
494,629,489,494,491
493,643,492,492,491
491,630,491,494,491
492,563,492,495,492
493,456,491,494,491
492,398,491,495,492
492,366,492,492,492
493,367,492,492,491
492,375,491,494,492
495,397,490,492,491
493,454,491,493,491
494,517,490,493,493
493,600,491,492,492
492,643,491,493,493
494,636,492,494,491
492,614,492,494,491
492,515,491,494,492
493,422,490,493,492
493,383,490,492,489
492,366,491,494,493
494,370,489,493,493
493,381,489,493,493
492,423,490,494,493
492,483,490,492,491
493,550,491,493,490
492,624,489,492,495
493,643,491,493,490
494,631,490,493,490
495,577,490,493,492
493,471,491,494,491
493,403,491,493,491
493,367,489,493,492
491,368,492,494,492
491,374,492,494,492
491,396,488,491,492
493,447,491,494,490
492,510,490,494,491
494,588,490,492,490
495,639,490,494,493
493,640,491,494,492
494,621,492,494,492
492,531,492,493,491
493,431,492,492,492
492,389,493,493,490
491,366,491,493,490
493,367,489,492,492
492,380,490,495,492
494,413,489,493,491
491,475,490,493,492
493,541,490,493,493
492,620,490,496,491
491,644,490,493,492
494,634,492,492,490
494,588,490,494,492
493,481,492,491,492
492,407,490,493,491
493,369,489,493,491
493,365,491,493,492
493,373,490,491,491
494,391,490,495,491
492,442,491,493,491
493,502,491,493,490
493,575,489,493,494
493,637,490,491,492
492,641,492,494,494
494,627,489,493,493
494,544,490,493,493
493,441,491,494,494
491,393,491,492,491
495,367,491,494,490
493,366,490,493,490
493,376,492,492,490
493,404,491,493,491
493,464,490,493,492
493,531,491,492,492
494,611,491,493,491
494,644,490,494,492
492,637,491,494,491
492,598,491,496,490
492,495,490,492,492
493,413,492,492,492
492,376,490,493,489
492,362,489,493,491
494,370,490,493,492
494,383,489,494,490
493,431,490,493,492
492,496,490,493,492
492,566,491,494,491
491,633,492,493,491
493,641,491,490,492
494,627,491,494,493
492,562,491,493,491
493,451,491,494,491
492,395,490,493,493
493,366,490,494,491
492,366,491,494,492
491,374,489,492,492
491,402,492,493,493
493,457,489,492,493
493,521,490,491,490
494,602,490,493,490
494,640,491,493,491
493,638,491,492,493
493,607,493,493,492
493,511,492,493,492
493,420,491,494,491
492,382,491,495,490
494,365,489,494,491
493,370,491,491,492
492,382,490,491,491
494,425,490,493,491
494,487,490,493,492
492,555,490,493,493
493,626,491,493,491
493,644,492,494,493
495,631,489,493,490
492,574,492,493,491
492,464,491,494,491
493,400,490,494,492
492,368,490,492,492
494,365,492,493,491
493,375,490,494,493
492,398,491,494,491
492,450,490,493,491
493,512,490,493,491
491,593,492,493,493
493,640,491,492,491
495,637,490,492,492
495,618,491,492,492
494,525,491,494,491
493,429,489,493,491
493,385,491,493,493
491,367,490,494,492
491,371,491,493,491
493,379,492,494,490
492,416,491,492,493
493,478,490,493,490
493,545,491,494,491
495,621,489,493,493
494,645,491,494,493
492,635,492,495,494
494,583,490,492,492
493,478,491,493,491
493,405,491,490,494
493,369,492,492,489
494,364,490,493,491
494,372,491,494,491
492,390,489,491,492
492,443,491,493,491
493,506,490,493,492
492,582,490,493,493
492,638,492,494,493
493,640,490,493,491
494,625,490,495,493
493,536,490,493,492
493,437,491,492,492
493,391,490,492,492
494,364,490,492,494
494,367,490,492,492
492,379,491,493,490
494,407,491,489,491
493,470,490,494,490
492,534,492,493,490
492,614,490,494,493
491,643,490,492,494
491,636,492,494,492
494,593,490,493,494
493,492,492,493,493
493,412,492,495,492
494,372,491,495,492
492,366,491,494,493
493,370,492,492,492
494,385,490,492,491
494,435,490,493,492
493,497,490,494,492
494,570,489,493,490
492,635,491,493,493
492,643,492,495,491
492,630,492,495,491
492,555,493,495,492
492,449,491,494,493
494,394,492,492,491
493,366,490,495,492
495,365,489,493,493
494,376,490,492,494
492,402,490,493,492
493,461,491,494,492
494,525,491,493,491
495,609,492,496,491
494,643,492,494,492
494,637,492,493,491
493,605,491,494,494
494,505,491,494,491
493,418,491,491,494
494,378,490,494,493
494,365,490,495,493
492,372,490,493,491
494,380,491,495,492
492,428,490,493,491
492,489,491,492,492
494,558,492,493,491
494,630,492,493,492
495,642,491,495,494
493,633,493,494,494
496,571,493,494,492
493,459,490,494,494
493,401,491,495,492
492,368,491,496,491
492,365,490,494,494
494,374,491,492,492
492,400,491,492,492
494,452,490,493,492
493,516,490,492,493
494,596,490,493,492
494,640,490,495,492
493,638,490,492,492
492,618,492,495,492
493,521,492,494,494
493,425,492,492,493
491,385,490,496,491
493,364,491,496,490
492,371,489,494,493
493,379,489,493,493
494,420,490,494,492
493,481,490,494,492
492,546,490,492,492
492,626,491,493,492
493,643,490,493,491
494,631,491,492,491
494,580,492,493,492
493,473,492,495,492
492,406,491,493,493
494,369,493,493,491
492,365,491,495,492
492,374,492,494,492
491,395,492,494,491
493,444,490,493,494
492,509,492,493,491
493,586,490,493,491
495,637,490,493,494
494,640,490,494,494
494,624,493,494,490
493,534,490,494,493
493,433,490,494,492
492,389,492,495,491
492,366,491,493,490
493,368,492,493,490
494,377,492,495,494
492,413,490,491,493
493,473,491,494,491
494,538,489,492,494
494,617,489,495,491
493,645,491,494,491
495,633,489,493,492
492,592,493,494,494
494,485,493,494,493
492,408,492,493,491
494,371,491,489,491
493,364,492,495,491
492,371,489,494,493
492,387,492,492,493
491,438,490,494,494
493,500,491,492,492
492,574,492,495,492
493,635,490,494,491
494,639,491,495,493
492,626,490,493,492
495,546,491,492,492
494,444,490,493,494
493,394,490,495,493
492,365,492,493,494
491,368,491,493,492
494,375,492,495,490
491,405,492,494,492
493,464,491,493,491
492,526,490,494,492
492,608,490,492,492
492,644,491,494,493
493,636,490,495,493
494,600,490,495,493
493,501,491,494,493
492,413,492,495,492
492,378,490,493,493
496,364,493,493,491
493,369,491,494,491
493,381,490,491,491
494,432,491,494,492
493,492,490,494,491
493,562,492,494,493
493,632,491,495,492
492,643,491,495,491
492,632,492,495,491
491,565,490,494,492
493,454,490,492,491
493,399,491,494,491
494,364,491,492,492
494,365,489,493,493
494,377,490,493,491
492,398,492,494,493
492,456,491,492,491
493,520,491,494,491
491,601,491,494,491
493,641,491,493,490
494,639,490,495,492
494,608,490,492,491
492,516,492,494,490
493,419,491,494,491
494,383,489,494,493
494,366,491,492,491
494,368,491,494,493
492,380,489,489,492
492,424,491,495,491
491,484,490,494,491
493,551,490,490,491
495,625,491,490,493
492,645,492,494,494
494,634,492,492,493
492,578,491,496,491
493,468,490,495,491
493,404,491,494,491
492,366,489,492,492
492,365,491,492,493
492,375,491,492,491
493,393,489,492,492
493,447,489,493,492
493,511,490,493,490
493,589,490,493,493
493,639,491,493,492
492,641,493,495,489
492,623,493,495,491
493,529,491,495,492
493,431,489,494,491
492,385,490,495,493
492,368,489,493,492
493,368,489,493,493
493,379,490,494,494
493,416,490,494,492
493,474,491,494,491
492,542,491,495,492
495,620,490,494,490
494,642,492,493,492
494,634,491,493,492
495,586,490,495,491
492,483,491,494,492
493,409,491,494,491
492,372,490,495,493
491,365,490,495,491
492,373,490,494,491
494,388,489,493,490
492,439,490,493,492
493,503,490,492,491
494,575,489,492,492
494,636,489,493,493
493,641,492,493,491
494,628,490,496,494
495,540,490,492,493
493,439,490,495,491
492,391,491,494,491
491,365,492,492,491
493,366,490,495,491
491,377,490,493,491
495,409,492,494,491
494,467,491,495,492
493,531,490,495,493
493,614,490,497,492
494,642,490,495,491
492,635,492,495,494
494,597,493,491,493
494,493,492,489,492
492,411,491,489,492
494,375,493,496,490
492,364,490,495,493
493,370,491,492,492
492,387,490,495,490
492,433,491,494,492
492,495,491,493,492
494,565,490,491,489
492,632,490,493,493
493,641,489,493,492
494,629,490,493,493
493,556,491,495,493
494,450,491,494,493
493,396,492,493,492
492,367,491,494,492
495,366,493,495,490
492,375,492,496,491
492,400,491,497,492
493,459,489,498,492
493,521,489,498,493
493,607,492,497,494
493,643,491,495,493
493,638,492,494,492
492,608,491,493,493
494,508,491,491,492
493,417,490,489,492
493,379,491,490,490
492,364,490,491,491
494,368,489,492,492
494,382,491,494,490
491,426,489,496,491
492,486,489,497,492
492,558,490,499,492
491,629,491,499,492
492,642,491,495,491
493,630,491,496,494
493,569,491,493,493
493,463,491,490,491
494,400,490,491,492
493,365,489,493,493
492,366,489,491,490
493,373,490,494,491
491,398,488,492,493
494,453,491,494,492
492,514,491,495,491
492,592,490,494,491
494,642,491,493,491
493,638,491,494,490
491,618,493,498,495
492,524,492,499,494
494,428,490,502,493
494,387,490,499,493
496,365,490,499,491
493,369,489,490,493
494,378,489,481,490
492,416,489,483,490
492,477,489,487,491
492,544,489,491,489
492,622,492,494,492
492,643,489,493,493
495,635,491,496,491
492,585,492,496,492
493,476,491,495,494
493,406,491,498,491
494,367,491,494,491
491,365,492,489,492
493,373,490,491,491
492,391,490,496,490
492,444,489,494,490
493,505,489,494,491
491,580,488,492,493
492,638,491,488,491
493,639,491,491,490
493,624,491,496,493
491,539,493,497,494
492,436,492,498,492
492,389,491,497,493
494,365,490,497,492
490,368,492,496,491
490,376,490,493,491
492,408,488,490,492
492,469,491,489,494
492,534,490,489,488
493,614,490,492,491
493,642,489,494,493
493,635,489,494,490
491,592,490,497,493
491,488,491,495,493
492,410,491,494,491
490,374,492,494,491
491,363,492,496,492
493,372,490,500,492
495,384,491,500,491
493,436,490,494,491
493,499,490,490,492
493,569,490,496,493
494,635,492,499,493
496,644,496,504,493
496,628,496,504,493
494,553,500,502,494
494,448,498,495,492
492,394,494,493,491
493,364,490,498,490
491,368,487,499,493
493,376,487,500,492
493,405,486,497,494
493,462,488,495,494
492,525,489,500,494
496,607,488,493,492
493,643,490,490,492
491,637,488,487,489
493,601,489,489,489
492,503,490,486,490
490,414,491,484,489
490,378,490,485,492
488,361,490,490,491
489,370,491,495,491
490,382,491,500,491
493,427,491,499,494
494,490,491,506,492
495,558,491,499,492
493,628,491,488,493
495,642,492,485,495
492,631,493,491,496
492,567,492,499,494
494,458,491,497,493
494,400,491,494,492
495,364,493,497,490
493,365,492,495,490
494,373,492,495,491
493,396,493,500,491
492,454,491,491,491
492,516,492,485,493
493,599,492,492,491
492,642,495,495,492
492,639,495,492,494
493,613,492,495,487
492,518,491,488,491
493,422,489,489,492
493,382,485,488,490
493,362,488,488,492
492,369,490,487,491
493,381,489,482,490
494,418,490,482,494
493,483,490,489,491
493,550,492,493,489
491,624,493,492,491
493,642,492,495,492
491,632,490,494,491
491,581,492,498,493
494,470,491,498,496
494,404,489,504,496
495,369,488,510,496
497,365,489,516,495
493,376,489,512,493
495,395,491,505,489
491,446,491,480,488
491,507,491,472,488
492,585,491,483,491
494,638,491,494,492
493,638,496,500,496
494,625,495,503,497
494,535,496,496,495
494,432,494,492,492
493,388,496,490,489
490,364,495,477,490
492,364,494,477,492
492,377,494,490,491
494,412,493,492,492
493,471,489,501,493
494,539,486,507,494
494,620,486,506,496
496,645,490,510,494
493,635,491,486,490
492,588,492,478,491
493,485,490,478,492
492,408,491,485,491
491,372,494,492,494
492,365,491,499,492
493,374,492,499,491
491,388,491,476,492
493,436,492,483,490
491,499,491,487,492
490,573,491,497,490
492,635,489,501,491
494,639,490,499,495
492,628,493,497,495
495,546,491,489,492
492,441,490,495,496
495,394,490,502,497
495,369,494,503,496
494,368,494,508,493
493,377,491,506,493
491,403,491,480,489
490,463,489,481,490
492,527,490,493,491
493,611,489,497,494
492,642,492,484,492
494,634,492,476,490
491,596,491,492,495
493,498,494,501,496
494,416,494,503,494
494,376,492,511,492
493,365,490,499,492
494,371,491,491,493
492,382,492,486,493
492,431,493,472,491
491,493,497,482,492
489,563,497,489,493
494,634,499,494,493
493,642,497,506,493
494,628,498,495,493
494,560,498,490,493
493,453,491,494,493
493,396,487,498,491
490,365,492,477,491
487,361,493,475,491
489,375,493,488,489
489,400,494,488,489
492,456,496,487,491
494,518,495,494,492
495,600,496,496,494
494,642,493,497,496
496,639,491,497,495
495,611,488,511,496
494,515,489,513,495
494,422,489,506,493
495,383,487,507,493
492,365,488,481,490
493,369,487,480,490
492,380,487,474,490
489,424,489,469,489
491,484,490,487,488
489,552,489,490,493
490,626,491,495,493
491,644,493,497,492
491,632,494,495,491
496,574,490,493,493
495,467,492,497,495
496,402,490,504,496
496,367,488,517,495
495,367,488,510,493
494,375,490,494,491
494,398,488,492,493
493,449,489,487,491
492,512,490,466,489
491,591,492,481,490
493,639,490,495,493
493,641,489,498,495
496,620,492,505,493
493,527,494,501,496
494,431,493,504,494
493,389,491,502,496
493,363,490,496,492
492,370,492,486,491
492,378,492,464,487
490,413,492,472,490
490,476,492,482,491
493,542,490,489,491
494,619,490,493,492
493,645,489,494,496
495,633,491,490,495
493,589,495,498,493
493,482,494,504,493
492,409,493,511,497
494,371,490,513,496
496,365,490,510,495
493,371,488,499,493
495,389,488,484,493
493,441,490,478,490
492,502,491,470,491
490,580,490,481,489
492,636,490,492,489
491,639,494,488,491
493,626,496,493,491
493,540,496,499,496
493,439,496,504,494
496,393,496,505,495
497,366,491,499,498
495,370,489,505,496
494,379,488,506,492
492,409,490,490,493
492,466,489,479,490
490,530,489,470,493
490,611,490,487,493
494,642,489,494,492
493,635,490,487,492
493,594,492,485,492
494,494,490,495,494
494,412,491,511,497
495,378,492,518,497
495,366,492,506,495
494,372,492,492,492
492,385,492,472,486
490,433,494,461,488
489,496,492,481,491
492,566,489,503,494
494,635,491,515,496
496,641,490,513,497
496,631,492,505,498
497,556,490,486,493
493,447,487,469,491
492,394,488,490,490
493,364,490,495,490
493,366,494,495,491
493,377,492,498,491
494,401,492,503,493
493,460,490,485,491
491,523,492,473,489
488,605,497,487,494
493,642,497,500,497
495,639,496,497,495
496,603,495,505,497
496,509,499,498,494
493,417,496,475,494
491,379,496,484,493
491,365,494,488,489
495,369,497,493,490
494,381,493,490,491
493,426,486,494,492
494,487,482,502,493
493,555,485,495,492
493,631,497,491,494
494,644,502,500,499
495,634,505,500,500
493,575,504,491,495
493,462,500,475,491
491,398,493,488,488
490,364,480,492,490
491,361,479,492,490
494,372,483,494,491
495,397,486,494,491
491,451,489,488,490
491,514,490,480,489
492,593,491,486,493
491,640,492,497,492
493,639,492,497,491
493,618,490,496,495
495,521,489,502,498
498,429,491,514,500
498,386,489,527,499
498,366,488,493,493
493,371,489,471,489
493,378,490,478,489
489,419,489,474,490
491,480,491,487,490
492,547,493,494,490
493,624,495,498,492
494,643,493,493,495
492,635,494,502,498
498,585,492,502,495
494,475,492,487,493
490,405,490,482,493
491,371,490,499,490
490,366,489,500,492
491,371,491,474,490
491,392,495,474,489
492,442,498,476,492
492,505,496,487,494
494,581,494,504,492
493,638,496,506,494
495,642,488,507,494
496,626,483,491,490
491,535,486,481,491
492,434,487,489,492
492,389,487,496,493
491,363,487,482,490
490,368,489,480,490
493,376,486,490,492
493,409,485,497,493
492,470,486,497,492
493,535,490,481,489
492,616,491,479,492
494,643,492,487,489
493,635,496,495,492
493,593,503,505,496
495,492,511,515,499
497,412,507,514,498
497,374,499,494,495
491,362,498,477,492
492,370,488,478,492
493,385,482,486,492
492,436,489,507,494
492,499,487,514,495
495,572,488,521,494
493,637,487,510,492
494,640,486,468,487
492,626,489,463,490
490,550,489,468,489
490,444,491,488,491
490,392,493,489,494
491,363,493,484,493
489,366,493,488,492
488,375,494,490,491
491,400,495,494,493
492,463,496,505,495
496,526,491,508,494
495,609,488,519,495
497,644,487,515,495
498,638,489,483,495
498,600,488,482,494
492,504,489,481,487
492,413,484,469,488
491,377,485,476,491
491,365,489,481,490
492,368,490,501,493
492,383,489,505,496
493,431,490,507,495
493,491,490,493,492
494,559,488,478,489
494,630,487,492,492
493,640,488,480,491
492,632,491,483,489
493,564,491,497,490
492,456,492,488,493
491,400,492,498,494
492,364,491,506,495
493,367,493,503,496
495,376,490,495,491
493,398,497,483,494
493,455,496,504,493
493,518,497,509,493
491,601,493,501,495
497,643,496,500,493
495,639,492,479,491
492,613,484,482,491
492,516,480,478,490
492,420,484,477,490
490,383,493,490,490
493,364,496,492,490
492,368,496,496,494
493,379,493,501,494
495,421,492,507,494
491,481,492,504,491
491,551,493,485,492
492,623,490,485,494
491,642,496,470,493
491,632,503,468,491
493,580,500,475,490
492,467,493,497,493
491,402,493,514,495
494,368,498,519,498
496,364,485,520,498
498,374,483,502,494
492,396,489,498,494
491,446,488,483,491
490,510,489,494,491
489,586,491,495,493
492,639,488,512,495
499,641,486,497,496
498,621,486,482,490
493,529,485,472,488
489,428,488,477,486
491,384,487,490,488
491,363,486,508,492
492,370,490,516,494
494,379,490,499,491
492,415,489,492,493
493,473,494,483,492
493,540,496,477,491
492,619,493,476,490
491,640,490,477,490
488,632,488,495,494
492,589,487,506,492
492,481,487,496,492
493,407,489,484,490
495,371,498,485,490
492,364,499,490,493
492,371,501,489,492
490,390,498,488,494
492,440,495,505,494
495,503,493,517,496
496,576,489,511,495
494,635,492,488,494
494,639,489,486,490
493,626,487,483,492
493,543,489,485,494
493,442,491,486,492
491,391,490,487,492
493,363,491,484,492
491,368,493,498,492
493,375,487,498,493
493,405,484,498,492
492,465,486,492,491
492,528,487,478,490
491,613,491,486,492
492,643,491,492,492
491,636,492,500,492
493,599,491,501,492
496,496,491,508,494
495,414,490,501,496
497,376,491,494,491
493,362,486,473,492
492,368,486,471,493
493,386,489,499,491
493,432,489,515,493
491,496,491,500,490
491,565,491,486,491
491,632,493,479,492
491,641,493,505,495
494,632,494,516,495
496,562,494,524,499
496,453,493,498,491
494,395,493,452,487
491,362,492,455,490
490,366,489,488,489
490,373,490,488,491
488,401,491,480,492
491,458,492,487,491
489,519,488,491,490
490,601,491,490,490
492,642,491,492,491
491,634,489,492,491
493,609,491,493,494
494,510,489,496,494
492,418,488,495,495
490,382,491,501,492
492,364,494,521,493
493,370,493,518,498
500,383,497,530,497
503,427,498,513,496
498,486,495,454,490
492,554,493,439,488
491,625,485,482,489
492,643,489,501,493
490,634,491,515,494
491,577,491,525,497
495,467,493,505,496
493,401,490,493,493
492,364,490,480,493
492,367,490,494,492
495,374,489,491,494
495,395,486,473,492
493,448,483,457,488
490,511,490,476,489
487,590,494,489,491
488,640,496,500,491
491,638,495,498,490
494,618,495,492,492
494,527,496,496,494
496,428,488,496,495
495,387,482,498,496
498,367,487,509,494
494,370,487,505,493
491,381,489,501,491
495,419,491,490,492
494,477,492,489,495
492,545,497,483,493
493,621,496,483,494
494,642,489,489,492
495,634,486,508,488
492,588,488,507,492
493,478,490,496,492
492,407,490,492,493
491,370,490,483,493
491,364,490,480,490
492,371,491,480,488
490,388,494,475,492
490,442,492,489,491
492,503,490,498,493
496,578,487,513,498
498,639,488,512,498
497,642,490,513,497
495,625,490,516,491
492,539,491,454,484
489,434,488,464,489
488,388,493,488,490
489,365,494,480,490
492,364,494,484,490
491,376,494,484,494
494,409,497,491,495
492,468,499,494,494
492,533,502,500,494
494,613,497,486,491
491,642,494,488,491
494,636,490,489,491
493,591,484,491,491
490,489,483,490,492
491,410,483,500,492
493,374,481,521,496
496,364,488,530,499
500,377,492,534,497
495,389,492,490,490
493,433,489,455,487
489,496,486,456,487
490,565,489,474,492
491,632,490,488,492
492,640,488,491,491
493,628,488,493,494
493,553,491,494,491
491,447,493,490,491
490,391,493,485,492
489,366,496,485,491
490,364,499,488,490
490,373,497,487,490
494,400,497,492,490
492,459,497,493,491
492,524,499,491,493
493,606,490,488,493
491,641,487,499,491
492,636,487,497,492
495,602,485,492,492
490,504,484,492,493
492,416,489,500,494
495,380,492,516,496
496,365,493,511,496
497,372,494,497,490
493,383,491,486,491
490,425,491,463,492
492,488,488,474,491
492,559,488,491,490
492,630,489,500,491
494,643,490,484,487
492,631,493,483,493
493,566,493,496,494
493,460,495,493,494
493,399,492,489,492
495,365,491,477,490
494,365,499,479,491
492,375,492,484,493
495,400,493,494,496
491,455,496,503,498
492,516,496,497,493
493,599,499,498,495
495,640,509,493,496
493,639,512,506,499
494,619,505,517,498
495,523,507,501,495
493,425,494,487,490
492,382,483,489,487
493,362,481,491,494
494,368,482,484,492
495,378,480,475,487
493,419,483,499,488
492,481,485,512,490
493,549,485,522,491
492,624,489,498,493
492,645,492,489,492
491,634,494,477,490
491,583,495,491,493
492,472,496,491,491
491,404,496,464,489
492,368,497,477,490
494,364,498,491,495
494,374,495,502,497
494,392,489,498,492
493,444,479,493,493
493,506,483,498,493
492,586,489,480,491
489,638,491,483,492
490,637,490,492,491
490,624,489,489,491
494,532,489,493,491
493,432,490,493,493
495,390,491,496,493
492,365,491,494,493
490,368,490,496,492
494,379,491,500,491
490,410,492,504,492
484,469,491,486,488
486,533,488,469,487
487,611,490,485,490
489,639,492,488,490
497,634,495,489,495
497,589,497,493,494
496,487,492,495,491
494,411,490,501,491
494,374,489,498,493
497,364,486,489,495
497,373,490,510,496
493,390,489,487,492
494,438,494,501,490
491,502,496,502,489
489,570,495,477,487
490,636,494,480,489
491,638,493,488,492
492,628,490,510,493
495,549,487,515,492
495,445,484,501,492
492,392,485,474,490
492,362,485,485,488
491,365,485,495,493
494,377,486,497,495
494,406,486,490,494
493,462,484,498,491
493,526,484,491,490
491,612,493,493,494
493,643,494,503,494
495,637,492,512,491
494,599,492,496,491
494,501,492,498,491
490,414,493,471,490
490,375,497,470,492
491,364,495,472,490
490,371,493,479,488
491,382,492,490,494
493,430,491,494,494
493,492,491,493,491
492,560,489,496,492
496,630,492,493,494
494,643,495,483,493
492,628,497,481,489
492,564,498,489,492
492,453,490,489,491
492,397,493,496,493
492,366,495,503,493
492,365,493,518,494
495,373,488,510,495
495,399,489,502,491
492,455,490,476,488
491,516,491,467,489
490,601,490,490,491
489,640,492,483,492
492,635,488,482,489
491,612,484,487,493
492,511,487,492,492
493,421,487,494,491
495,382,488,502,493
496,365,491,505,493
496,372,488,507,492
495,380,493,498,492
492,424,499,483,492
492,485,499,495,490
489,551,499,483,491
492,624,499,479,491
494,644,496,497,492
495,630,480,505,495
496,575,483,498,494
494,468,492,490,493
493,402,490,485,491
491,364,489,480,490
491,366,487,486,491
491,372,486,487,489
487,394,486,484,489
489,446,487,486,490
490,510,490,494,491
493,588,492,499,491
490,638,495,511,493
491,640,496,516,494
492,623,497,503,494
494,529,495,482,493
496,429,492,479,491
496,386,487,473,492
491,363,486,480,489
491,366,487,493,491
494,379,489,511,494
492,416,495,506,498
495,476,494,510,492
491,541,488,488,487
489,619,490,472,488
491,643,489,481,488
491,632,489,483,488
492,586,487,486,492
493,480,489,482,491
490,406,489,490,493
491,368,489,494,493
491,364,490,494,493
490,371,490,494,494
492,386,490,496,492
493,439,489,503,491
494,502,489,504,492
495,576,491,481,490
493,635,492,488,492
491,640,491,488,492
494,626,489,487,489
493,541,490,501,493
495,439,489,503,494
493,393,491,505,496
492,367,492,486,494
494,367,492,491,491
492,377,491,488,489
491,405,488,492,488
491,465,488,478,487
491,529,490,474,490
491,611,490,488,491
492,641,492,489,491
492,634,492,487,491
491,597,494,498,491
492,496,505,500,492
492,415,507,495,491
492,375,503,489,491
493,362,500,493,492
492,372,494,500,494
494,382,484,498,494
495,432,472,493,492
493,494,482,492,488
493,565,489,483,490
493,631,492,479,489
491,639,488,484,487
493,627,486,485,486
491,556,487,485,490
492,450,490,485,492
492,395,492,486,492
492,364,489,491,495
492,368,494,496,494
492,377,496,489,491
490,402,497,488,491
490,456,494,494,493
492,522,492,503,493
493,604,489,504,492
495,641,485,508,494
495,637,486,488,492
494,606,489,501,490
493,509,489,500,496
493,418,494,496,493
493,381,495,486,491
491,365,493,470,488
491,369,495,481,490
491,381,489,496,489
492,424,489,508,491
493,486,486,496,491
492,553,486,475,489
493,626,487,483,490
491,639,489,480,490
489,632,490,487,490
492,569,489,485,490
491,461,490,490,491
490,399,491,491,491
492,365,491,489,491
495,363,491,489,492
492,373,489,488,494
492,398,492,490,493
494,451,490,499,494
494,515,490,512,491
491,595,491,499,490
493,638,490,491,491
492,638,491,496,491
491,615,490,481,489
494,521,490,489,491
492,427,490,490,491
492,385,492,495,490
492,364,489,503,491
493,368,490,505,494
493,380,491,509,494
494,418,490,475,490
493,477,490,484,492
491,545,490,493,489
491,623,489,492,490
494,641,489,497,493
494,633,489,496,496
495,582,489,480,494
493,475,491,482,494
492,405,490,490,491
492,370,490,485,490
494,364,491,489,491
492,371,491,484,490
492,390,491,494,489
492,443,490,486,491
493,504,487,486,490
492,583,490,498,496
494,638,490,498,500
492,641,493,500,499
493,627,493,484,492
494,535,495,491,494
492,435,495,495,495
493,389,494,493,494
492,362,493,482,496
494,366,489,485,499
492,377,490,492,497
493,410,488,493,489
492,470,488,495,484
492,535,491,487,487
490,616,492,490,494
492,642,495,490,499
493,635,495,492,503
494,591,495,494,505
493,490,494,493,506
493,409,490,496,507
495,374,488,500,507
494,365,490,504,499
494,371,491,503,482
492,384,488,501,485
493,436,490,498,485
492,498,490,474,482
491,566,490,473,478
491,635,490,494,479
495,641,488,498,481
494,628,490,504,491
492,553,491,504,493
492,446,491,492,493
490,394,489,470,495
491,364,493,487,498
493,366,490,495,501
493,374,491,495,503
494,401,490,496,501
494,461,491,496,495
493,525,490,490,497
492,608,489,507,490
493,642,490,500,488
492,638,492,509,490
491,604,495,494,488
491,504,493,471,481
490,413,491,482,484
493,376,491,489,486
491,365,489,487,489
495,370,489,489,492
493,383,487,490,495
492,430,489,491,494
492,489,490,488,495
493,559,489,484,491
491,631,492,488,493
493,640,490,490,494
495,630,490,488,495
492,569,493,486,495
494,456,490,486,484
492,399,489,485,481
491,365,489,489,486
490,367,493,496,489
492,376,494,495,490
494,397,492,494,493
492,454,494,492,495
494,517,493,489,496
494,597,491,493,499
494,640,491,496,501
493,639,493,488,498
493,615,491,496,505
494,518,492,496,506
492,424,492,495,506
492,385,493,497,496
494,367,491,501,501
493,371,489,506,498
494,379,491,503,498
492,421,490,492,491
493,481,491,479,480
491,547,490,480,477
493,623,492,481,472
492,643,492,492,476
495,632,491,496,480
492,581,493,501,486
495,470,491,501,489
494,405,490,497,495
494,368,493,500,498
491,363,493,482,499
492,374,495,483,496
494,395,496,486,495
493,446,491,484,491
493,509,488,497,491
494,584,487,501,487
490,638,485,499,486
492,637,486,473,492
494,621,493,480,500
494,532,495,488,505
493,434,494,495,504
493,390,492,501,512
493,367,493,505,514
492,371,494,506,510
493,380,494,504,517
492,414,493,496,510
493,473,492,483,487
492,539,491,486,482
495,617,491,487,474
495,643,491,491,476
494,635,491,491,481
495,591,491,496,485
494,485,492,502,488
492,410,489,516,484
495,374,491,509,483
493,364,491,497,484
493,372,491,499,485
493,390,490,486,486
492,437,490,483,494
493,501,491,471,499
492,574,490,482,501
492,635,491,491,499
492,642,491,491,498
494,625,491,486,496
491,544,490,494,501
495,444,492,499,501
493,392,493,497,507
492,364,493,495,499
491,367,492,491,472
495,376,491,494,483
492,406,490,483,489
494,465,491,479,501
493,529,492,489,504
491,613,492,493,506
492,643,491,495,499
492,633,490,496,489
491,599,491,495,491
495,496,491,499,481
492,411,490,485,482
492,375,490,481,492
491,363,492,495,500
491,369,492,497,488
493,385,493,498,478
492,431,492,500,488
493,492,492,500,490
495,564,490,495,496
495,630,491,495,490
492,643,490,495,489
492,630,491,482,492
493,560,492,483,495
493,453,492,486,497
493,398,489,494,500
493,362,486,492,499
492,367,490,492,491
493,374,491,488,483
493,397,492,482,474
493,457,493,494,483
493,522,493,499,488
495,605,493,501,490
494,644,489,498,497
492,638,491,490,491
491,612,494,492,493
495,513,495,486,498
494,421,495,500,506
494,384,494,501,510
493,365,491,493,508
493,369,490,491,499
494,380,494,484,487
491,423,492,479,462
491,483,490,487,476
492,555,491,496,485
492,628,489,500,503
494,642,486,503,532
496,636,493,496,543
497,577,499,505,539
497,468,501,505,549
497,405,499,500,514
494,365,491,483,470
491,364,488,482,445
492,371,488,488,456
491,397,490,496,470
493,449,491,500,478
493,513,492,497,487
493,589,492,479,481
492,637,491,481,475
492,638,490,485,492
493,621,493,493,500
494,528,493,494,502
494,429,493,494,494
494,388,494,498,500
495,364,491,493,469
494,368,491,491,507
494,379,493,492,500
494,416,494,494,502
494,477,494,493,521
493,546,494,491,522
493,620,490,486,455
492,640,488,487,452
492,636,491,488,474
492,588,492,492,496
493,481,491,493,501
493,409,490,493,500
493,369,493,495,492
491,365,491,502,486
494,372,490,493,485
493,389,490,489,488
493,440,492,486,490
492,505,492,490,491
490,579,490,489,491
496,639,493,490,491
494,641,493,491,492
493,625,494,492,492
493,542,492,494,494
493,439,491,492,494
492,391,493,491,494
495,365,490,492,495
494,369,490,493,495
492,378,491,490,497
495,407,492,492,493
492,467,491,492,488
493,533,492,491,490
493,614,493,492,494
494,642,492,492,497
494,635,491,493,496
491,597,496,494,495
493,493,493,493,492
494,413,491,492,491
494,377,492,494,492
492,365,492,492,491
493,372,493,492,494
493,384,497,491,496
491,435,498,492,491
495,498,500,492,492
494,567,497,491,494
496,633,493,493,498
495,642,490,494,502
493,628,487,489,507
493,558,488,494,500
494,449,488,491,476
491,395,491,495,487
490,365,491,496,493
492,365,493,497,494
490,375,491,494,492
495,402,490,491,499
494,460,491,486,508
495,523,492,485,502
492,605,490,484,479
492,643,491,487,488
492,638,491,487,491
495,606,501,493,496
495,508,503,498,502
494,418,500,498,496
493,383,497,493,488
495,364,496,489,487
492,372,489,493,489
493,383,482,493,489
492,426,484,492,490
494,488,487,493,496
493,557,492,497,497
492,631,496,496,504
496,645,498,497,502
496,633,498,496,500
496,572,500,495,502
495,463,496,490,490
493,399,482,489,480
491,367,483,491,482
492,366,492,492,488
493,374,493,492,492
493,397,492,493,490
492,454,492,491,490
493,516,492,487,497
495,597,486,492,500
492,642,488,494,495
492,639,490,494,486
495,615,488,491,489
493,523,490,493,492
493,426,490,493,494
494,385,491,494,500
493,365,493,494,502
495,369,495,497,500
493,383,493,494,504
493,419,493,490,485
493,480,490,489,488
492,548,490,491,471
493,624,492,492,481
495,643,493,492,486
494,633,496,494,494
493,580,495,493,502
494,474,493,493,504
493,405,490,490,493
492,368,488,490,487
492,364,486,490,488
492,375,486,491,491
494,390,489,492,490
493,446,489,492,491
492,507,490,490,492
492,582,488,493,494
494,638,490,490,492
492,639,491,493,494
494,624,489,492,494
496,535,491,494,491
494,434,491,492,491
493,390,491,493,495
493,366,491,492,491
493,369,491,495,492
493,379,492,495,493
492,412,493,495,495
492,470,492,494,501
492,536,492,492,500
490,617,489,491,493
492,642,489,492,485
494,634,488,492,490
495,590,490,492,494
492,487,494,492,492
492,410,492,493,491
493,370,494,491,492
493,366,493,492,490
493,373,491,492,491
493,387,492,491,497
493,437,488,493,497
493,500,489,494,499
492,570,488,491,490
495,634,488,492,483
494,641,490,494,489
493,626,494,492,488
492,551,493,496,487
493,443,491,494,488
493,394,491,494,492
491,367,487,494,496
492,366,489,495,496
493,376,489,492,493
493,406,489,494,492
493,461,489,492,494
494,527,488,492,496
494,609,490,493,495
493,643,490,494,493
493,636,491,495,491
492,603,491,491,490
495,502,490,493,492
493,417,491,494,489
492,379,492,494,488
491,364,489,494,493
493,369,490,493,492
492,384,491,493,493
494,429,489,494,495
493,491,490,493,495
492,560,488,491,488
492,630,490,491,487
492,639,490,494,488
492,631,492,495,492
492,566,492,494,486
492,457,491,492,490
492,397,490,493,498
493,364,492,494,497
492,367,489,492,494
493,374,489,493,494
495,399,491,493,489
493,455,494,493,488
493,518,493,491,488
492,602,493,494,491
494,639,490,494,493
493,639,486,492,489
493,614,489,493,490
494,516,490,494,494
493,423,490,493,492
493,384,491,496,491
494,364,489,493,492
494,371,489,494,491
493,381,490,495,494
493,421,490,494,496
493,483,491,494,496
493,550,493,494,500
491,627,493,493,500
493,643,491,492,485
494,631,490,496,495
492,576,489,494,485
493,469,490,493,487
495,402,489,494,491
494,368,489,495,493
493,367,491,496,492
490,374,491,494,493
495,393,492,494,492
492,447,490,493,489
493,511,491,492,489
494,587,489,492,489
495,640,489,494,492
493,639,492,493,493
494,624,491,493,491
493,529,494,496,493
494,432,494,496,493
492,390,494,496,493
491,367,490,495,493
493,368,489,494,487
492,380,489,495,489
494,412,488,492,494
494,475,489,490,494
494,542,488,494,488
493,618,490,495,491
493,646,489,494,493
494,635,492,495,494
492,589,493,496,498
494,484,492,496,501
493,408,491,494,499
492,372,490,497,494
494,364,489,495,485
492,371,490,494,491
492,390,490,494,489
492,440,491,494,491
491,502,492,491,493
493,576,492,494,490
494,637,489,496,493
495,639,488,494,493
495,626,489,493,492
495,544,490,495,491
493,441,490,495,488
494,393,491,494,491
493,366,490,496,492
492,368,491,497,489
493,378,492,495,490
492,406,489,495,494
492,466,490,490,490
492,531,491,494,492
493,611,490,493,494
494,643,490,494,492
493,637,491,495,490
494,597,493,495,494
495,497,492,497,496
494,412,491,496,494
493,376,492,496,494
493,364,491,493,493
494,370,489,493,488
492,385,491,492,488
494,433,491,492,490
493,495,490,495,491
493,566,490,495,492
493,634,491,496,494
492,640,490,495,496
494,629,491,494,486
493,560,492,495,491
493,451,495,494,492
494,397,494,494,495
494,364,492,495,494
492,366,491,496,494
493,375,489,494,489
492,403,486,496,492
493,459,487,495,491
493,522,489,493,484
493,604,491,491,491
493,642,490,491,494
493,637,492,497,491
491,606,489,494,497
494,511,490,494,488
494,420,490,494,491
493,381,491,493,491
492,367,490,496,494
494,370,489,494,495
493,382,492,493,497
493,425,491,495,497
492,487,491,495,481
492,555,491,493,491
495,630,494,494,488
493,643,493,496,493
493,633,493,496,494
492,575,496,496,493
493,462,494,495,492
493,401,492,495,493
494,366,494,494,492
493,362,488,493,494
494,372,486,492,496
496,396,487,496,495
494,451,489,496,491
493,514,488,495,491
494,592,491,497,492
492,641,492,496,489
493,640,493,494,489
494,621,493,495,499
493,526,489,495,494
494,428,488,494,484
493,384,488,493,488
495,365,488,493,491
493,370,489,494,492
493,378,490,493,492
491,419,490,493,491
494,478,490,495,491
492,545,491,493,490
493,622,492,493,491
494,643,492,496,491
491,633,489,493,495
491,586,493,496,493
493,475,491,495,493
494,407,490,496,492
492,372,490,496,492
492,365,491,495,492
494,371,491,493,491
493,392,490,496,492
493,442,490,495,493
493,505,490,494,493
494,580,489,493,493
491,637,491,494,492
492,641,491,493,491
495,624,492,496,494
494,539,493,495,497
493,439,491,498,489
493,391,491,496,496
493,363,489,493,492
492,369,490,495,494
493,376,489,493,493
494,409,489,494,495
493,469,490,494,489
493,532,490,495,490
492,618,489,493,492
494,644,492,494,492
494,634,491,493,493
493,593,490,494,495
495,492,491,493,492
492,412,491,495,494
494,374,489,495,492
493,364,490,496,491
492,373,490,495,492
492,388,491,495,487
492,436,490,494,489
493,498,490,494,490
492,569,490,495,490
494,632,489,493,491
495,640,489,493,494
494,629,490,494,491
492,552,492,497,493
494,448,491,492,490
493,395,492,496,491
491,367,491,493,492
493,366,491,494,490
493,377,491,496,492
494,400,490,493,492
493,463,491,493,492
494,525,492,493,493
494,608,493,495,494
492,645,494,496,492
493,638,493,495,490
496,605,494,496,489
495,505,490,496,492
494,415,489,496,494
494,378,490,494,496
494,364,489,495,497
492,372,493,494,495
493,383,493,493,491
493,429,489,494,490
493,488,488,494,491
493,560,488,494,493
492,628,488,495,499
493,641,491,494,495
492,633,493,493,492
494,565,493,494,486
494,458,490,493,485
495,400,490,493,488
492,365,488,493,496
492,365,486,494,492
492,375,490,495,491
491,399,491,494,492
492,454,491,491,493
493,516,490,495,490
493,599,490,494,492
495,640,491,495,491
493,639,490,495,494
492,616,490,495,494
493,520,490,494,493
493,424,490,494,493
493,385,492,494,493
495,365,490,493,489
494,368,490,494,492
494,380,490,493,492
495,420,490,495,491
492,481,490,494,493
493,550,491,493,490
493,626,489,495,491
492,643,491,495,491
493,634,491,495,491
495,580,490,496,492
494,471,491,495,493
493,405,491,495,491
494,366,490,493,491
495,365,489,493,494
494,375,490,494,492
493,392,492,492,491
493,447,491,495,490
493,510,492,496,486
493,587,493,494,487
494,639,492,494,490
495,640,492,497,494
492,626,492,495,501
495,536,492,496,498
493,433,491,495,496
494,389,489,495,493
493,367,490,494,489
495,367,488,492,490
492,379,489,493,493
494,413,489,494,491
492,473,489,494,490
492,537,488,492,490
495,617,491,495,490
492,644,489,495,494
494,634,490,491,494
493,592,491,497,492
493,485,490,496,492
493,410,491,495,492
493,373,493,494,493
493,364,490,493,492
495,373,491,494,491
494,386,490,492,491
494,437,489,494,492
493,502,490,493,492
492,573,492,494,491
492,637,492,493,493
495,641,492,496,491
493,627,493,494,495
493,546,492,494,497
494,444,490,497,498
493,392,490,496,490
492,368,491,495,490
493,366,490,495,489
492,375,490,496,494
492,406,490,495,492
493,463,490,494,497
492,528,489,494,496
494,611,492,494,487
493,640,491,494,488
494,634,490,493,492
495,598,490,493,492
492,500,492,495,493
493,414,490,493,492
494,376,491,496,494
492,365,491,495,492
492,371,492,494,489
492,383,489,494,493
493,430,490,494,491
493,494,490,494,491
494,561,489,493,492
495,629,490,495,494
493,643,490,495,491
494,629,491,496,493
492,564,490,494,492
493,455,491,494,492
492,398,492,494,491
493,366,493,496,491
494,369,491,496,492
493,373,490,493,493
491,402,491,493,491
494,457,490,494,491
493,519,490,493,493
493,603,490,495,493
492,642,491,494,492
494,637,493,496,491
494,610,491,495,490
492,512,493,495,491
492,420,491,494,491
494,382,490,493,492
491,367,493,494,495
493,370,492,493,490
494,382,491,496,493
492,425,490,495,495
493,485,488,495,491
494,552,487,494,491
493,626,491,494,493
493,644,491,493,491
494,631,489,494,492
494,575,489,495,492
494,467,491,495,491
492,403,490,494,494
493,365,491,490,492
492,367,493,494,491
491,374,492,493,493
491,395,491,492,492
492,448,490,493,491
493,512,490,494,492
494,588,490,494,492
492,640,490,495,493
493,640,490,496,494
492,622,490,496,495
492,526,491,495,491
493,428,491,495,493
494,387,490,494,490
492,365,491,494,492
493,366,490,494,492
494,378,489,495,490
491,416,490,493,492
493,477,491,496,491
493,544,491,495,492
492,621,491,495,493
492,644,492,494,493
493,635,491,494,490
492,584,492,495,492
494,479,490,493,492
493,407,490,495,492
493,368,490,494,493
493,364,490,495,493
493,371,491,493,491
492,391,490,496,492
494,441,490,494,491
493,504,491,494,491
492,577,490,494,491
493,636,490,495,492
491,641,489,494,493
494,627,492,496,492
494,540,492,496,495
494,439,491,494,493
493,391,491,496,493
493,363,491,494,491
491,367,496,495,493
494,378,499,494,496
493,408,500,495,498
493,467,499,495,484
494,531,496,494,484
492,613,487,493,490
494,642,483,492,493
492,637,486,496,495
492,596,488,496,494
493,493,489,495,495
493,414,490,494,495
493,375,491,493,492
493,364,490,495,491
494,369,488,494,492
493,382,488,493,492
493,434,489,493,491
493,496,491,494,490
492,567,490,492,491
495,632,491,495,490
492,641,492,493,490
493,628,491,494,492
493,555,490,495,495
493,449,490,495,494
492,396,491,495,495
494,364,489,494,493
492,367,490,495,492
491,376,490,494,490
494,400,489,495,489
492,460,489,494,490
494,524,491,493,487
494,606,492,494,490
494,641,490,494,494
494,636,490,495,497
492,608,493,495,500
493,508,490,494,492
493,417,490,495,488
492,381,492,496,491
491,364,492,494,490
492,370,490,494,493
492,380,491,494,492
492,428,492,495,491
493,487,490,493,494
493,556,489,493,494
494,627,489,496,492
493,642,491,496,491
491,632,489,493,493
495,572,493,494,492
492,462,492,496,491
492,399,492,494,493
492,366,490,495,492
494,364,490,495,490
492,374,491,494,492
495,398,489,494,493
493,451,490,494,492
492,514,490,495,493
491,596,490,492,493
494,640,492,495,491
493,640,490,496,491
494,615,492,493,491
494,521,493,494,493
493,426,493,494,494
493,387,495,494,494
493,365,491,493,490
494,371,492,495,489
492,380,492,496,488
491,419,491,495,489
492,479,491,492,494
492,546,491,493,497
491,624,491,492,497
494,642,488,495,493
493,632,489,495,493
494,582,488,494,491
493,474,490,495,494
492,403,489,494,495
492,369,492,495,492
492,364,491,492,491
493,371,490,493,492
494,390,489,492,493
492,446,491,492,495
492,506,491,494,491
493,585,490,495,491
493,640,492,496,490
492,640,492,495,492
492,624,490,493,496
492,536,492,495,493
494,434,491,491,491
493,389,491,494,491
493,363,490,494,493
493,367,489,494,490
494,378,489,495,495
492,408,490,493,493
492,472,490,494,491
492,537,491,495,490
491,617,492,494,491
493,644,490,494,491
493,633,490,496,492
492,592,490,494,493
494,488,492,495,492
493,409,491,494,493
493,373,490,495,494
492,362,490,493,492
491,372,492,495,494
494,385,490,494,492
492,436,492,494,494
491,499,492,495,494
493,569,491,493,493
492,637,491,494,495
493,640,491,494,493
493,630,490,495,495
493,551,491,495,490
492,444,490,495,491
494,393,489,494,490
492,366,492,495,492
492,366,490,492,491
494,375,490,492,491
494,402,489,493,492
493,462,491,493,492
492,527,490,494,492
493,608,491,493,491
492,644,491,494,490
492,637,492,494,490
491,601,492,495,493
493,502,492,495,493
493,416,492,494,491
494,378,492,496,492
495,364,490,495,493
492,371,490,495,493
491,383,490,495,495
494,428,490,493,494
492,491,491,494,495
493,560,491,493,493
493,631,491,493,492
493,640,491,494,493
494,630,492,496,492
492,564,491,495,493
492,456,491,495,494
493,399,491,495,493
491,367,490,496,492
491,366,492,495,493
494,374,490,494,491
492,398,490,495,494
492,454,491,494,494
492,517,492,493,494
493,598,491,492,493
493,641,492,494,497
493,637,491,490,493
491,614,491,495,493
495,514,490,496,494
493,423,491,495,492
492,383,492,495,490
492,364,490,495,492
492,368,490,494,492
492,381,492,496,494
494,423,490,493,492
493,483,491,495,492
492,550,491,494,490
494,623,491,495,492
493,643,491,496,496
492,631,491,491,491
493,578,491,494,492
493,469,491,495,493
493,405,491,494,493
494,367,490,494,494
492,364,491,495,495
492,375,491,494,494
492,397,491,495,489
492,448,491,494,492
493,510,490,494,491
493,587,492,492,491
492,640,491,495,491
494,638,490,494,490
494,621,490,494,494
494,529,490,495,494
494,432,491,494,493
492,389,490,493,494
494,367,491,495,492
493,368,492,494,494
493,378,492,493,494
493,415,491,494,495
493,474,490,494,490
492,541,491,494,493
494,620,490,495,494
493,645,491,494,492
492,635,491,496,491
495,586,493,496,489
492,481,491,495,492
493,408,491,495,492
494,369,492,493,491
494,363,490,493,493
494,371,490,493,497
492,390,492,493,494
492,439,491,492,492
493,503,490,493,493
492,578,491,495,489
491,636,492,494,492
493,641,490,495,495
494,626,491,493,495
492,545,491,494,494
494,441,491,494,493
494,392,490,494,492
494,364,489,493,492
493,366,491,495,492
491,375,489,493,493
491,408,491,494,492
492,467,491,493,492
492,529,492,493,491
493,613,491,495,493
495,642,491,494,491
492,635,491,494,495
492,596,490,496,494
493,496,491,494,492
494,414,491,495,491
493,374,491,494,494
491,365,494,494,499
491,371,490,493,496
494,382,489,492,494
494,432,490,492,491
493,494,489,494,487
492,565,489,493,490
493,633,491,492,492
493,643,491,494,493
492,631,492,496,493
492,560,493,497,493
494,450,491,495,494
492,397,491,496,493
492,366,491,493,492
495,365,490,494,493
494,376,491,494,493
494,401,492,492,491
493,459,490,493,494
493,521,490,493,493
492,606,492,495,492
493,642,492,493,491
494,636,491,493,490
494,607,490,496,492
492,512,491,494,491
493,418,491,493,494
492,381,490,494,494
494,366,491,496,493
491,370,491,496,492
494,378,489,491,493
492,426,491,494,494
493,485,490,494,494
493,554,490,493,490
494,626,491,489,493
494,642,492,496,492
493,633,489,494,496
493,572,492,495,494
493,463,491,495,495
493,402,492,495,490
491,368,493,495,487
494,364,491,493,489
492,372,492,495,493
491,394,490,493,493
494,450,491,493,496
493,513,491,494,494
494,592,490,494,495
494,639,492,492,492
492,640,492,494,494
494,616,492,496,492
494,524,492,495,496
494,428,492,496,496
493,385,491,496,496
492,364,490,493,489
493,369,493,493,493
492,380,491,492,496
492,419,491,493,492
492,476,491,493,490
494,543,489,493,491
492,623,490,494,493
493,642,492,493,492
494,632,491,492,492
494,583,490,494,493
494,477,492,495,493
494,407,491,493,491
493,368,493,492,495
491,365,492,495,491
493,374,492,496,491
492,392,493,494,493
492,442,491,494,493
493,505,490,494,493
492,582,491,496,494
495,637,490,495,493
494,640,491,495,493
491,625,490,495,495
494,535,491,495,494
493,435,491,493,491
493,389,492,494,488
492,365,492,493,492
492,366,491,493,489
493,377,490,496,488
495,407,490,492,491
492,470,490,494,495
493,533,489,494,494
494,616,489,493,493
492,643,491,494,493
493,633,493,495,493
491,591,491,494,494
493,489,493,495,494
493,410,492,495,492
494,373,491,493,491
494,363,489,494,491
493,372,491,495,495
494,387,492,493,497
493,436,491,495,497
493,499,490,495,491
493,570,492,495,490
492,633,491,495,493
495,640,491,492,490
492,629,492,493,492
495,551,491,494,494
493,448,492,495,494
494,395,491,495,492
493,364,490,493,494
492,365,489,495,490
492,375,491,493,491
492,404,491,494,492
493,462,491,493,492
493,523,490,495,494
495,606,490,495,494
493,643,490,494,494
493,637,491,495,496
493,604,490,496,497
492,505,491,496,495
493,414,490,493,492
493,379,492,494,492
494,364,490,493,491
494,367,491,492,492
494,381,490,493,492
494,427,491,494,492
493,490,490,493,492
493,559,490,492,492
493,631,490,495,493
493,643,491,495,491
493,631,492,495,491
494,566,490,495,492
493,458,491,493,492
493,400,491,495,491
495,364,490,493,494
494,366,491,495,495
493,376,492,493,491
493,400,491,495,491
494,454,491,493,493
492,517,491,494,492
492,598,491,494,492
493,640,491,493,491
493,636,491,495,491
492,617,490,492,494
494,519,491,495,495
494,423,489,495,495
493,385,490,495,496
493,367,490,493,492
493,367,489,494,491
492,381,492,494,494
493,421,491,493,491
492,481,490,495,492
494,548,489,493,493
494,623,492,495,493
493,644,491,495,494
494,632,490,493,495
492,582,491,497,494
493,472,491,495,495
492,405,491,494,495
493,367,490,494,490
493,363,491,495,491
491,371,489,493,494
495,391,489,493,494
494,446,490,492,492
493,509,490,493,492
492,584,491,492,493
492,641,490,493,492
494,639,491,494,491
493,623,492,494,491
493,532,491,495,492
493,433,491,495,493
492,388,490,493,492
492,367,492,494,494
493,368,491,492,498
491,379,491,495,493
491,414,492,494,491
494,471,492,494,494
492,539,492,493,495
493,617,493,491,495
493,641,490,493,491
495,634,489,495,492
495,591,492,494,491
494,485,490,493,491
493,409,491,494,496
491,372,489,495,494
492,364,491,495,492
493,372,492,494,492
493,387,489,493,495
492,437,491,493,490
493,501,490,494,492
494,572,489,492,491
495,635,490,495,494
493,641,491,495,494
494,624,490,496,491
492,548,490,493,492
493,442,490,495,494
493,392,491,494,495
492,366,492,493,495
493,368,491,496,495
494,375,489,493,493
491,407,491,494,491
493,463,490,493,490
493,528,490,494,492
492,612,491,492,493
494,641,492,494,492
493,637,490,495,494
493,597,492,494,493
494,497,491,494,493
493,414,490,494,493
494,377,490,493,492
491,365,492,494,494
492,373,491,492,492
493,385,491,495,494
491,431,490,494,492
493,493,491,494,490
492,562,489,494,494
492,630,490,492,493
493,643,492,494,492
494,628,489,491,493
495,560,490,495,492
494,453,490,494,492
492,396,490,495,494
492,364,492,491,493
492,366,495,493,493
491,375,496,494,493
492,400,495,492,496
492,458,494,494,493
494,518,490,494,492
493,604,487,493,493
492,642,487,495,494
493,638,489,495,494
492,612,490,496,493
493,511,490,494,492
493,419,491,495,490
493,382,490,494,490
492,362,490,491,493
494,368,489,492,493
494,381,489,496,493
492,424,490,494,495
493,486,490,493,493
492,554,490,495,494
492,627,491,494,493
492,643,492,493,491
492,631,490,494,490
493,573,491,495,493
493,466,492,494,493
493,399,491,492,495
495,365,489,491,493
494,366,491,492,490
492,374,491,497,493
494,394,490,492,490
492,450,491,495,492
492,512,491,494,492
492,590,491,493,491
494,639,491,495,492
492,640,490,492,493
494,623,494,495,490
494,526,491,494,494
493,429,490,495,493
493,388,491,496,492
494,363,490,493,492
493,369,493,493,496
493,381,493,493,494
493,414,491,492,492
493,476,491,493,492
493,543,492,494,492
491,619,488,494,494
493,643,490,492,493
492,635,490,496,494
491,587,491,496,493
493,480,491,495,492
494,405,490,494,493
492,368,489,494,495
492,362,490,492,492
494,371,489,493,493
494,389,489,492,494
493,443,490,492,492
493,504,491,493,493
492,580,490,492,492
495,637,492,493,492
492,639,492,494,493
494,625,492,494,492
493,540,491,494,495
493,437,491,493,493
492,391,492,495,494
495,364,489,494,495
492,368,490,495,494
493,378,491,496,492
494,406,490,495,493
492,468,490,493,492
494,533,492,493,490
493,613,492,493,491
494,642,490,493,492
495,637,493,495,491
495,593,490,494,495
493,494,492,494,495
493,412,491,494,491
492,375,491,496,488
493,364,492,495,489
493,372,490,494,492
493,384,492,493,490
493,435,490,494,492
492,497,492,494,496
494,565,491,491,496
494,633,492,495,491
494,640,494,496,493
492,630,491,492,492
495,556,491,495,491
492,448,490,495,494
492,395,490,494,493
493,366,489,495,494
493,364,490,493,494
492,377,491,493,494
495,402,488,491,495
493,459,489,494,492
492,523,490,494,489
494,604,490,495,492
492,642,489,492,494
493,636,491,491,493
493,603,492,494,494
494,507,491,495,495
493,417,492,493,495
491,381,493,494,494
494,365,491,492,490
494,371,491,495,489
492,382,490,496,489
493,427,490,494,491
493,488,490,493,495
493,555,491,493,495
493,630,491,493,496
494,641,490,495,497
493,630,490,493,495
494,570,491,494,492
493,460,491,495,487
493,398,491,493,489
493,367,491,493,491
492,364,491,494,493
493,373,492,493,493
492,400,490,495,493
493,451,490,494,493
493,516,490,493,493
493,596,490,493,495
493,640,490,494,494
492,638,491,495,492
492,615,491,493,493
493,521,492,495,494
494,426,491,495,493
493,383,492,494,492
493,364,491,493,494
494,369,490,494,492
492,380,490,493,495
493,419,491,493,491
493,481,491,494,493
492,548,491,494,494
491,625,491,494,491
494,643,491,495,492
494,631,491,495,495
493,583,492,493,493
494,472,492,494,493
493,404,491,493,493
494,369,493,494,492
492,365,492,495,494
493,372,491,492,494
491,395,491,495,490
492,445,490,495,491
493,507,491,493,492
492,583,492,493,494
493,639,492,493,496
494,640,493,494,492
493,623,491,493,494
494,534,491,494,493
493,434,489,493,494
493,389,490,493,493
491,366,490,493,493
494,368,491,493,490
492,377,491,493,490
493,409,491,492,492
493,471,490,492,492
493,536,490,494,492
492,618,492,494,494
494,645,491,494,492
492,635,492,497,493
492,592,492,496,491
494,487,491,496,493
493,409,491,494,497
493,372,493,494,491
493,363,491,492,493
494,371,491,493,493
494,386,489,491,494
492,438,491,493,492
492,500,488,492,492
494,571,490,494,492
492,637,493,493,492
491,640,492,495,490
492,627,491,494,494
493,546,493,494,492
493,445,491,495,493
494,393,489,493,493
495,364,488,494,493
493,368,489,494,491
494,376,489,496,493
492,407,489,492,494
494,466,490,493,492
492,527,491,493,493
491,608,491,494,492
495,644,491,495,492
495,635,490,494,493
492,601,492,494,496
494,501,490,495,492
493,415,490,494,494
491,378,491,495,495
491,365,489,493,494
493,370,492,494,491
493,383,489,494,490
493,429,490,493,488
493,490,490,493,490
494,559,489,491,491
491,632,492,494,496
492,641,491,492,493
494,631,492,495,494
491,564,493,495,493
493,456,491,494,492
493,398,491,493,494
492,365,493,493,494
491,366,490,492,494
494,374,489,493,493
494,398,490,494,494
493,454,490,493,494
492,518,491,493,494
491,598,490,493,493
493,642,491,494,491
494,637,492,493,490
493,612,493,493,493
493,516,492,494,494
492,422,492,493,493
494,381,492,495,491
492,365,490,493,492
493,370,490,494,492
492,381,490,495,494
492,421,490,493,492
492,483,490,493,494
493,550,488,492,490
493,625,492,494,491
493,640,490,494,492
493,630,490,496,490
492,580,491,495,490
494,468,493,496,489
494,403,493,496,492
492,368,494,497,496
492,365,494,495,498
494,375,490,494,494
492,395,494,494,494
492,448,492,493,492
493,511,492,493,491
493,586,491,491,492
495,639,490,495,493
493,638,492,491,492
491,622,489,496,493
495,527,487,493,494
493,430,490,494,494
492,387,491,494,493
492,366,490,496,494
492,370,490,494,493
494,380,491,495,493
495,415,489,493,492
493,474,490,494,492
493,541,489,494,493
494,619,490,493,492
491,644,491,494,495
494,633,492,493,492
492,587,493,493,492
493,481,492,495,493
493,408,490,494,490
493,370,490,493,490
492,365,491,493,493
493,374,490,494,493
492,391,490,496,495
492,441,491,494,499
493,503,491,493,496
494,576,492,493,488
492,637,491,495,490
494,639,490,493,492
494,625,490,492,494
495,542,491,494,496
493,441,492,494,496
492,392,491,493,494
494,363,490,495,494
492,368,492,495,489
492,375,491,493,491
492,406,489,493,492
493,466,490,493,491
492,530,490,491,493
495,612,489,491,493
494,642,490,495,491
493,635,490,493,493
494,594,492,496,493
492,495,491,495,494
492,413,491,494,492
492,375,492,493,491
492,363,491,493,491
494,369,489,493,493
493,388,492,494,493
493,433,490,495,492
492,496,490,494,493
493,566,491,495,493
492,633,492,495,493
492,641,490,494,495
494,629,492,495,491
493,557,490,496,493
493,450,491,494,492
493,395,490,494,493
495,364,489,494,491
492,367,492,494,493
492,377,491,493,492
494,404,492,494,491
492,460,492,493,490
491,521,493,494,488
492,604,491,493,490
494,642,493,492,492
492,637,492,491,498
494,605,489,492,496
493,509,491,496,492
493,418,489,494,494
493,381,489,491,493
493,366,490,496,491
494,369,489,491,491
492,383,492,494,490
493,425,491,493,491
493,487,490,493,494
493,557,491,492,492
494,625,491,494,492
493,644,490,495,494
493,633,491,495,494
491,573,491,495,494
492,462,490,493,493
492,401,492,494,493
493,364,489,493,492
494,364,490,492,492
493,373,491,493,493
495,395,490,494,492
493,452,490,492,491
493,515,491,493,492
491,596,490,495,496
492,641,491,494,494
492,638,492,492,491
493,619,493,494,491
494,524,491,495,491
493,426,490,495,493
492,384,490,492,492
495,365,490,493,492
494,369,490,493,493
493,379,491,493,492
491,420,491,494,493
493,478,491,493,492
493,546,492,493,491
491,622,492,493,491
493,641,491,495,493
492,635,489,493,492
495,585,492,495,492
493,474,490,493,493
493,406,490,494,492
493,370,490,494,494
494,363,489,493,491
492,374,493,494,492
493,391,492,492,492
493,444,491,493,493
493,506,492,492,492
492,579,489,492,492
495,638,492,492,493
493,640,491,492,492
494,623,491,495,494
492,538,492,497,491
492,436,492,496,492
493,390,492,494,493
495,365,492,491,491
493,368,491,495,491
494,376,490,493,492
495,410,490,493,492
493,469,491,494,493
492,534,492,493,492
492,618,493,493,493
495,642,492,494,491
493,634,493,492,490
493,592,494,494,491
493,489,490,494,493
493,411,489,493,494
492,375,491,495,495
494,364,489,494,498
492,374,491,495,497
492,388,491,496,496
491,436,492,492,494
493,498,490,493,494
493,569,488,493,493
493,633,490,492,491
493,639,490,492,491
494,626,489,491,494
492,552,491,495,492
494,446,490,494,492
493,393,490,495,493
493,367,490,494,491
492,367,492,494,491
492,375,490,493,494
493,403,490,492,492
491,462,491,493,493
493,524,489,492,492
496,608,489,493,494
494,643,491,495,492
494,635,491,495,492
492,605,491,493,494
493,503,491,496,492
493,416,491,493,492
493,379,492,493,489
492,363,490,494,492
492,372,491,495,490
494,383,490,494,491
492,429,490,493,496
492,491,490,493,492
492,560,490,494,491
491,630,490,493,494
494,643,492,493,492
492,630,490,494,492
494,564,491,493,493
493,457,492,493,492
494,398,490,493,491
492,367,493,492,492
494,367,491,492,493
493,375,491,494,494
492,401,492,494,491
492,454,492,493,492
493,515,490,493,494
493,598,491,492,494
492,642,492,492,494
494,637,490,495,495
494,613,490,495,494
493,518,492,493,494
493,423,490,493,492
494,385,491,495,492
494,363,489,493,492
493,369,491,493,492
493,380,491,492,491
494,420,490,493,493
492,483,490,490,493
493,549,491,495,489
492,624,489,495,493
493,644,491,494,493
492,633,492,495,493
491,577,490,494,494
493,471,492,494,493
493,403,491,493,492
494,366,492,492,493
494,365,489,493,493
494,374,490,495,493
491,395,489,493,494
493,448,492,494,491
493,510,490,494,491
492,588,492,493,492
492,639,493,494,491
493,638,493,494,493
492,624,492,492,491
494,530,492,495,492
492,430,490,494,495
494,389,490,494,496
494,365,491,493,498
491,366,490,492,496
491,380,492,495,491
494,412,491,491,489
493,474,492,493,487
493,539,493,489,489
493,616,492,494,493
492,644,490,494,493
494,635,492,493,492
494,588,489,496,496
493,484,489,493,493
493,409,489,494,492
495,370,489,492,490
493,365,492,494,491
492,373,490,492,492
494,387,489,491,491
495,440,490,493,492
493,503,490,493,493
493,575,490,493,491
494,638,491,493,492
494,640,490,495,492
492,628,492,494,492
493,546,492,493,492
492,443,491,493,494
493,393,490,492,492
494,367,491,494,491
493,366,489,494,493
493,377,490,495,493
492,407,490,494,492
493,464,490,493,492
493,530,491,492,491
494,609,491,494,492
493,641,490,492,492
494,635,490,492,492
494,596,492,496,492
492,496,490,493,495
493,414,492,494,495
492,377,490,494,495
492,365,491,494,493
492,373,492,490,494
492,384,492,495,493
493,431,491,494,491
493,494,491,494,492
493,562,489,492,492
494,631,490,492,493
494,642,491,495,493
493,628,491,493,494
491,561,492,493,491
494,452,491,494,492
493,398,491,494,492
492,366,493,493,492
493,365,491,494,493
491,373,489,492,492
491,403,492,494,493
493,457,490,493,492
493,520,490,493,493
492,604,490,495,491
494,639,490,494,491
493,637,491,493,494
493,607,493,494,493
494,511,493,495,494
494,420,494,493,495
493,382,493,492,496
492,366,492,494,493
493,372,490,492,488
493,380,491,495,490
492,426,491,494,490
493,487,488,495,493
493,553,488,494,494
494,626,491,492,493
492,644,492,495,495
494,630,489,493,497
495,574,489,495,495
494,465,490,494,491
493,401,490,494,492
492,369,490,491,492
494,366,492,494,491
492,374,491,492,490
493,397,491,492,490
493,450,490,494,493
492,513,489,492,492
492,594,491,493,493
494,639,489,492,495
493,640,491,495,493
492,622,491,496,494
492,527,491,493,492
493,428,491,494,492
494,387,491,494,491
493,364,491,493,491
494,367,489,493,493
494,379,490,493,493
491,416,492,494,493
494,478,491,493,491
492,545,492,495,492
492,623,492,493,490
494,643,492,492,492
494,635,490,496,495
494,583,491,494,496
493,479,491,494,494
494,406,490,495,492
495,369,490,493,492
494,367,491,493,492
494,371,491,495,495
492,391,489,491,493
492,444,491,494,492
493,505,491,493,493
493,580,492,493,493
493,637,492,493,492
492,641,492,492,493
495,626,492,495,491
492,538,490,494,494
494,437,491,493,494
493,392,491,494,494
494,363,492,493,493
492,369,492,495,494
494,378,491,494,491
493,408,492,493,493
493,469,490,493,492
494,533,491,495,492
492,616,490,493,494
494,644,492,493,492
492,637,492,495,494
491,595,491,496,494
493,492,491,494,493
494,410,490,493,493
492,374,493,493,494
492,365,491,492,492
493,369,490,493,493
495,384,489,494,492
495,435,490,493,491
494,498,491,491,491
493,570,490,495,492
494,633,491,495,491
492,641,493,493,491
493,629,493,493,493
492,555,495,494,495
492,448,494,494,492
494,396,492,496,491
495,364,489,494,496
493,367,490,494,493
492,377,489,495,492
494,401,489,493,490
492,462,490,493,489
494,524,490,493,489
493,606,491,492,490
494,641,489,493,492
495,636,491,494,492
491,602,489,493,496
493,506,492,495,494
493,416,491,494,492
492,380,491,496,494
492,365,491,494,492
493,372,492,493,494
493,381,492,493,491
493,429,490,493,494
492,488,490,492,492
493,556,490,493,492
495,627,490,493,493
493,642,491,493,493
492,632,491,492,491
495,567,492,495,493
492,460,491,494,493
492,400,492,494,492
492,367,490,493,493
492,363,490,492,493
493,376,492,491,495
494,397,490,495,493
492,453,491,494,494
494,516,490,495,491
494,596,491,497,493
493,641,490,494,494
494,639,492,493,492
494,616,493,493,492
494,520,491,494,492
493,426,490,493,492
492,387,492,495,494
495,365,490,493,490
493,370,490,495,492
492,381,491,495,493
492,422,491,494,492
493,481,491,492,492
493,547,491,491,491
493,624,490,494,490
494,641,491,492,491
494,631,490,494,492
495,580,491,495,489
493,473,494,495,492
494,404,492,492,494
494,370,492,496,495
491,366,492,494,492
492,372,492,492,496
492,394,490,494,494
493,445,490,493,492
492,509,490,492,492
494,584,489,493,495
494,638,489,494,495
494,640,492,494,494
491,626,491,493,491
495,534,492,495,492
494,433,491,493,491
492,388,491,492,489
492,363,490,492,491
494,367,489,492,492
491,379,491,492,492
495,411,491,493,492
493,473,490,492,494
493,538,490,492,493
492,618,490,496,490
493,643,489,494,493
492,634,492,493,495
494,590,490,493,491
493,485,492,494,493
492,408,491,493,494
494,372,489,495,492
492,366,490,494,493
493,371,491,493,493
491,390,490,496,492
492,438,491,492,493
493,500,490,494,491
493,572,491,494,494
493,636,492,493,492
494,639,491,495,491
493,627,489,493,494
494,546,490,494,494
493,443,491,494,493
493,393,491,492,492
492,367,490,495,494
493,366,490,494,491
492,376,492,492,490
492,404,492,492,492
493,464,491,492,492
493,528,490,493,491
494,612,492,495,492
493,643,490,494,493
492,636,490,495,494
492,598,490,496,494
494,499,491,491,493
493,414,492,495,492
494,376,492,493,491
492,363,492,492,491
494,368,491,492,493
493,382,490,493,492
494,432,491,494,491
493,493,491,493,491
494,562,491,494,491
493,633,492,495,490
493,642,492,495,488
493,630,493,494,492
494,563,493,495,492
493,454,492,494,497
493,397,493,492,495
494,364,492,493,494
494,367,492,494,495
493,375,493,492,493
491,402,491,492,492
493,456,489,493,491
493,521,490,494,490
491,602,491,493,490
493,640,490,494,491
492,636,490,492,492
491,612,490,495,494
495,513,491,493,493
493,420,490,493,493
492,382,490,495,494
492,366,490,492,492
494,369,491,494,492
492,380,489,493,496
492,424,492,493,492
492,484,491,493,492
493,550,490,492,493
492,628,492,493,493
493,642,491,493,492
494,631,491,495,492
492,577,491,495,490
493,466,491,493,492
492,403,490,493,494
495,366,493,493,492
492,365,491,495,493
494,372,490,492,490
495,393,490,492,491
494,448,490,493,492
493,513,492,493,493
492,591,491,492,492
493,641,491,493,492
492,639,493,494,489
493,622,493,495,490
493,527,492,494,492
493,430,491,495,492
493,386,491,495,494
492,367,490,491,496
493,369,491,495,493
492,379,490,496,491
493,415,490,492,489
494,476,490,494,490
494,541,489,493,491
493,621,492,493,491
494,642,490,492,494
495,632,490,493,494
492,589,493,495,494
494,479,492,496,492
493,407,491,492,494
492,372,491,496,490
492,365,492,495,490
492,372,489,493,494
493,390,493,492,493
492,441,490,491,493
493,504,490,492,492
494,577,490,492,492
494,637,490,493,493
493,641,492,492,491
494,627,492,495,494
494,539,492,493,493
493,439,493,493,490
492,391,493,494,491
491,366,493,493,494
492,368,490,491,491
493,375,490,495,492
491,407,489,491,493
493,467,488,493,491
493,532,489,494,493
492,612,489,492,493
492,643,492,494,493
493,635,490,492,491
493,594,492,492,492
493,493,492,494,492
492,411,491,493,491
492,376,490,490,492
494,364,491,493,492
491,372,490,494,492
492,387,490,495,491
492,434,490,492,491
492,495,490,494,491
493,566,489,492,490
491,631,490,494,492
491,639,490,492,493
494,628,489,492,493
494,554,490,494,492
494,449,490,493,491
493,396,491,494,491
493,362,490,494,490
491,367,492,493,489
492,375,492,494,490
492,401,491,495,490
492,460,491,493,492
493,524,491,494,495
494,607,488,493,492
493,643,491,494,490
492,638,492,495,491
495,603,491,492,492
492,508,493,492,493
492,417,493,493,494
493,379,492,492,492
492,364,490,492,492
493,369,488,491,491
494,382,491,493,488
493,428,489,493,490
492,488,489,493,494
492,558,489,493,493
491,629,490,494,491
492,641,490,492,494
492,631,490,493,491
493,571,490,495,492
494,459,490,493,490
494,400,490,493,492
493,365,489,493,493
493,364,490,491,492
491,376,491,491,493
494,396,491,492,491
492,452,491,493,490
493,515,491,492,490
493,592,490,494,494
492,639,490,493,493
492,638,492,492,494
493,616,489,492,494
493,522,491,495,494
493,425,490,494,493
492,386,492,492,493
495,364,491,493,491
493,369,491,493,493
494,378,489,491,491
495,418,489,492,490
493,479,490,493,491
493,546,491,491,491
493,624,490,491,491
494,641,491,493,491
491,633,492,493,492
492,582,493,493,493
493,475,490,493,493
493,405,490,492,492
491,369,491,495,490
494,363,489,493,491
494,373,490,494,490
493,393,489,495,489
494,443,491,494,489
493,508,490,493,493
493,584,491,493,493
493,637,491,491,491
494,638,490,492,492
494,622,490,492,494
492,537,491,493,493
493,435,490,493,493
493,388,490,494,494
493,367,490,494,490
492,369,492,495,489
492,377,489,491,495
494,412,491,492,490
492,470,490,493,491
492,535,490,491,491
495,615,489,492,492
494,642,490,494,491
493,633,491,493,495
492,592,490,492,492
494,487,490,494,492
493,411,491,493,490
492,373,492,493,490
493,364,490,494,492
494,371,490,491,491
491,388,492,491,492
494,436,489,492,492
493,500,490,492,492
492,571,491,494,493
491,635,490,492,493
494,640,491,493,490
492,627,489,495,491
492,546,492,493,492
493,444,491,493,490
493,392,490,493,490
491,367,492,493,493
492,367,490,492,493
493,377,490,495,497
492,406,491,491,496
492,463,491,495,489
492,525,490,494,491
493,608,492,492,488
492,643,492,493,489
494,634,489,493,490
496,600,489,492,495
492,502,490,494,496
492,414,489,493,493
493,376,489,491,491
491,364,492,494,490
493,371,491,492,491
493,382,491,491,488
494,428,489,494,490
493,493,489,491,494
492,561,491,491,490
492,631,490,495,492
492,644,491,494,493
491,631,493,495,493
492,563,490,493,494
493,457,491,494,494
492,398,490,493,493
494,363,490,492,490
494,365,489,493,491
493,375,489,492,489
492,399,489,494,491
493,455,491,492,491
492,519,491,493,493
491,601,491,493,491
494,640,491,492,491
492,638,490,495,494
494,609,490,495,493
492,515,490,493,493
493,421,489,492,493
493,384,490,494,494
492,366,491,494,493
491,367,489,491,493
493,381,492,495,492
493,422,490,493,491
492,483,490,492,491
493,550,489,492,492
493,622,490,494,491
493,642,490,493,492
493,631,491,490,492
492,578,491,494,492
493,469,491,494,492
492,404,491,494,491
493,365,489,492,491
493,364,490,495,492
491,374,489,492,492
495,393,489,492,494
493,449,490,493,492
492,510,491,492,492
493,590,490,495,494
494,639,490,494,491
493,638,492,494,491
494,622,492,493,491
494,529,492,493,491
493,431,492,494,492
493,389,490,494,491
496,367,493,494,493
493,369,490,494,494
493,380,491,495,494
491,416,492,494,493
492,473,491,493,492
493,541,493,492,493
493,619,494,492,493
493,642,491,488,492
495,633,491,493,491
494,587,492,496,491
493,481,489,494,492
493,409,490,494,493
493,372,489,493,494
493,367,491,494,491
492,374,492,494,492
494,388,490,493,492
492,441,491,492,493
491,502,491,493,491
493,575,487,492,490
495,637,487,493,490
493,641,489,495,491
494,624,491,493,494
493,545,491,494,493
493,439,490,494,496
494,392,491,495,491
492,367,493,495,491
494,366,491,496,494
492,376,490,492,492
491,410,491,494,493
494,465,490,492,492
494,531,490,492,493
494,612,489,493,492
493,642,490,494,493
492,637,491,492,491
492,595,489,494,494
492,495,491,494,493
492,413,490,494,492
492,373,490,491,491
492,365,490,492,492
495,370,490,494,492
492,386,490,496,492
492,433,491,494,493
