Sensor0,Sensor1,Sensor2,Sensor3,Sensor4

548,491,491,492,494
620,493,494,491,492
636,491,494,93,491
492,467,491,494,492
493,527,490,492,490
491,608,492,495,490
492,635,492,494,491
493,627,492,492,490
493,592,490,496,492
494,493,491,495,493
492,416,491,493,493
493,380,490,493,494
493,370,491,495,493
491,378,492,492,491
493,391,493,495,490
493,433,491,493,491
492,495,491,493,491
492,559,491,492,491
493,622,489,493,493
494,633,488,494,490
492,621,489,494,494
493,553,491,494,491
493,453,491,494,493
492,400,491,495,492
491,373,492,494,492
493,372,491,494,491
493,379,491,495,493
492,408,491,492,491
494,459,492,494,492
493,519,491,494,493
494,598,493,494,490
493,635,492,495,492
495,629,490,493,491
492,604,494,495,492
493,509,492,495,493
492,421,493,494,494
493,387,492,493,492
493,369,492,495,493
492,376,490,494,493
494,388,490,494,491
493,428,491,494,491
493,485,491,494,491
493,551,491,492,490
492,622,493,494,492
493,635,493,493,490
493,623,490,492,493
493,567,490,494,494
494,465,491,495,493
493,404,491,494,493
492,373,492,494,494
493,374,491,495,493
492,381,492,495,493
490,402,491,494,493
493,451,491,495,491
491,512,490,494,492
494,589,492,494,490
493,632,492,493,493
494,630,490,493,492
495,615,493,496,491
495,521,491,494,492
492,429,491,493,493
493,391,491,494,494
493,371,491,495,493
492,376,491,495,492
492,385,490,492,492
495,422,492,494,491
494,477,490,493,491
493,542,492,492,489
493,614,492,493,491
494,634,490,492,490
492,627,493,494,493
494,578,494,494,492
493,476,492,494,493
493,410,491,494,493
492,376,491,495,494
492,369,490,493,492
491,380,491,494,492
494,397,488,493,491
493,445,490,493,491
493,504,491,493,491
493,574,490,496,493
492,632,491,495,494
494,632,493,494,491
493,620,490,496,495
494,536,492,495,494
494,436,492,494,494
493,395,491,496,491
495,370,491,495,490
491,374,490,493,493
494,384,492,495,490
491,414,492,494,491
492,470,491,494,491
492,533,490,493,492
493,609,492,493,492
492,636,491,493,492
494,627,490,493,493
495,586,491,494,494
494,488,491,495,492
493,415,492,494,493
492,376,493,493,492
492,372,493,495,491
492,379,493,494,491
492,391,494,494,491
493,438,491,493,492
493,498,491,494,490
491,567,489,492,491
494,626,490,493,492
493,634,490,495,493
492,622,490,495,495
492,547,492,493,492
492,447,492,494,492
493,397,491,494,491
491,373,493,494,489
493,372,493,493,490
493,380,492,495,494
493,411,490,492,492
493,462,490,494,491
495,524,490,494,492
495,603,491,494,492
493,635,491,495,492
494,628,490,492,492
492,599,492,493,492
493,500,492,494,492
492,420,491,494,491
492,384,493,495,491
491,370,490,494,494
493,375,491,492,491
491,388,491,496,492
494,431,491,493,491
493,489,491,493,491
493,555,490,493,493
494,621,490,494,491
493,634,492,495,492
491,621,490,493,492
492,564,492,495,492
492,459,492,495,491
492,402,492,494,491
493,372,490,494,492
494,371,491,495,492
492,380,490,493,493
494,403,490,493,492
493,455,490,493,492
492,514,491,493,491
494,595,491,494,493
493,632,491,494,492
493,632,492,493,491
493,610,493,494,491
493,516,492,495,494
493,425,490,493,491
493,388,492,495,493
493,369,490,492,493
493,376,490,493,494
493,386,491,494,494
493,424,491,494,492
493,482,491,493,493
493,548,491,493,491
494,616,491,495,492
493,637,493,494,490
493,625,493,493,491
493,575,491,495,493
493,471,492,493,492
492,408,492,494,494
494,373,488,492,493
493,373,490,495,493
492,381,491,495,493
494,397,489,495,490
492,450,491,493,491
492,509,491,493,491
493,582,492,493,491
493,631,491,493,492
494,632,493,495,491
495,617,492,494,491
493,528,493,495,494
494,434,491,494,493
493,395,491,496,492
492,374,491,495,491
492,375,489,493,494
493,384,492,493,491
492,418,490,495,492
494,474,490,493,491
493,537,491,492,493
495,611,491,493,492
493,636,492,495,493
492,629,491,492,491
494,585,492,496,493
493,485,491,495,493
492,412,492,495,491
491,377,490,493,494
493,370,491,492,491
492,380,493,493,493
495,392,489,492,494
494,442,490,493,492
492,501,491,494,492
493,569,490,495,492
493,629,490,493,493
492,632,492,493,491
493,620,493,493,490
493,542,492,494,492
492,444,491,493,493
492,397,492,493,493
495,370,494,493,491
492,373,491,495,493
493,383,492,495,492
491,412,492,495,492
492,464,491,494,493
493,527,492,493,493
493,606,491,493,492
495,634,491,493,492
495,628,490,493,493
495,591,491,495,491
493,497,491,493,491
493,417,492,493,490
492,382,491,496,493
492,372,492,495,491
491,378,492,494,491
493,388,489,493,491
493,434,492,494,492
492,493,491,493,491
493,558,489,492,492
495,623,490,494,492
493,634,491,495,492
492,621,491,493,491
493,559,492,496,492
494,452,491,494,492
492,401,492,494,492
492,372,494,493,492
492,371,492,495,493
492,382,491,493,492
495,407,493,494,491
493,458,491,493,492
493,519,492,493,492
491,598,491,495,493
494,632,488,493,490
493,630,492,494,492
493,603,492,494,491
493,509,490,494,492
493,421,491,494,492
494,386,492,495,492
491,370,489,493,493
493,376,492,494,493
492,387,490,495,493
492,428,491,494,493
493,485,491,494,492
493,551,492,493,493
495,618,492,493,491
493,637,491,495,492
494,622,490,492,492
495,569,490,493,492
493,466,491,494,493
492,406,491,492,494
492,373,490,492,491
493,370,492,495,492
492,380,492,494,491
491,402,493,493,491
492,451,490,493,492
491,510,491,493,491
491,588,492,495,491
494,630,490,494,493
493,631,490,493,493
492,613,491,495,491
493,521,492,494,493
493,429,492,493,491
493,390,492,494,490
491,372,491,492,491
492,374,491,492,491
493,384,489,491,490
490,420,491,494,492
494,476,491,493,491
492,541,490,493,493
492,615,490,494,492
492,636,492,494,491
491,626,490,493,493
494,579,493,493,491
492,476,491,493,492
491,407,491,493,491
494,373,490,491,489
494,371,490,493,489
491,378,491,494,492
491,397,491,491,491
492,446,491,494,492
492,503,491,493,491
491,576,492,493,490
491,629,491,493,492
493,629,490,491,492
491,619,491,492,492
493,533,490,494,492
493,438,490,493,492
492,395,490,495,493
491,372,490,492,491
493,374,491,493,491
492,383,490,493,489
491,411,491,492,491
492,469,491,493,492
493,530,490,493,490
491,609,491,493,493
493,635,492,492,491
493,627,491,494,492
491,589,491,495,492
492,491,491,494,492
491,412,491,493,492
492,378,492,493,494
492,371,491,492,491
493,375,490,492,492
494,388,488,492,492
493,437,490,493,491
491,496,490,493,492
493,564,490,491,491
491,627,491,493,492
491,632,492,494,490
492,621,492,494,490
492,550,492,493,492
492,448,490,493,491
493,398,491,493,490
491,370,489,494,492
492,373,491,494,493
492,383,492,494,492
491,404,491,491,491
491,462,491,492,490
493,522,490,493,489
492,600,490,492,491
494,633,488,492,491
494,629,489,494,489
491,599,489,494,493
494,504,491,494,491
492,419,490,494,491
491,384,491,495,493
491,372,492,493,491
491,376,489,494,491
492,386,491,495,493
491,432,491,493,490
492,488,490,493,492
493,554,489,493,493
494,621,490,494,492
492,632,491,492,492
491,624,492,495,492
495,563,491,494,493
492,460,492,493,492
492,403,491,492,491
493,371,492,494,491
491,373,489,492,492
494,382,491,493,490
493,403,489,494,492
492,454,489,493,491
492,515,491,493,491
493,590,490,492,491
492,633,492,494,493
492,632,491,491,492
493,606,490,492,493
494,516,489,493,493
493,428,491,494,491
492,388,490,494,494
492,371,491,492,490
489,376,492,494,491
491,385,492,495,491
492,424,491,493,491
492,480,491,493,493
492,545,490,492,492
494,619,491,493,491
492,634,490,494,492
492,625,490,494,493
493,575,490,495,491
493,470,491,494,492
492,407,491,493,492
494,371,493,495,490
492,368,491,493,491
493,377,490,492,491
494,396,491,494,490
491,446,490,492,491
492,508,491,492,492
492,581,490,493,494
491,630,490,494,490
492,631,491,494,492
493,614,490,495,492
491,529,491,494,493
493,434,491,493,491
492,391,490,493,492
494,369,489,492,492
494,375,490,493,492
492,383,492,493,493
492,417,490,492,491
493,473,491,493,492
492,536,491,494,490
493,611,492,493,491
493,635,492,495,491
491,624,491,492,492
491,586,494,494,492
493,483,492,493,492
493,411,492,493,494
492,379,491,493,490
493,369,489,495,490
491,379,487,493,492
494,394,491,493,491
492,440,490,493,491
492,499,489,493,491
493,570,490,494,492
494,625,489,493,491
492,632,491,494,493
492,621,490,494,492
492,543,490,494,493
493,444,491,494,492
492,398,490,492,492
495,371,492,493,490
492,374,490,494,491
493,380,490,492,491
494,407,490,492,492
493,464,490,491,492
491,525,491,493,492
492,605,491,492,489
494,635,491,494,490
491,628,491,493,490
491,594,493,493,493
492,498,491,493,492
492,415,490,493,492
492,383,492,492,491
494,370,489,493,492
492,377,490,494,493
492,389,490,491,491
493,432,491,494,492
492,492,491,492,492
492,560,492,493,490
492,623,491,492,493
494,632,491,492,492
495,622,489,492,490
492,559,492,493,492
494,454,491,493,490
492,401,491,494,492
492,372,490,494,492
491,373,492,494,491
492,381,490,493,493
491,403,492,492,493
491,459,490,493,491
492,517,491,492,491
494,594,489,491,493
493,634,490,492,491
493,628,491,494,493
491,601,491,491,492
492,512,492,494,492
492,423,491,494,491
492,386,492,493,489
493,373,491,494,491
494,374,490,494,491
492,388,490,492,492
493,427,491,493,492
493,485,490,493,493
493,550,490,494,492
492,617,490,493,493
492,634,492,493,493
493,625,491,492,490
493,569,492,493,492
493,466,492,493,491
493,406,491,493,491
492,374,490,492,492
493,371,492,491,491
492,382,491,494,491
491,402,491,494,491
492,451,491,493,492
492,511,490,493,490
492,584,492,494,493
492,633,490,492,493
493,630,489,493,493
493,612,489,492,494
493,525,491,493,492
492,430,490,493,492
493,389,490,492,492
491,374,492,494,491
491,374,492,493,491
492,384,492,492,490
493,418,491,493,491
492,476,491,493,491
493,542,492,492,490
494,614,490,493,492
492,636,492,494,492
491,627,491,495,492
495,579,489,493,491
492,479,491,493,492
493,410,491,492,490
493,373,491,491,490
493,369,489,493,492
494,378,492,493,490
493,395,489,493,492
492,444,490,492,491
493,504,490,493,492
491,575,492,495,490
492,629,493,494,491
493,633,491,492,491
493,616,491,495,493
491,536,491,492,492
493,439,491,492,492
493,394,489,494,493
494,371,489,494,492
493,372,490,492,492
490,383,491,492,493
494,412,492,493,490
492,468,491,493,489
492,528,490,492,491
493,606,491,494,491
492,634,490,493,493
493,626,491,492,493
492,590,491,495,493
492,491,490,494,493
492,415,490,493,493
493,379,489,494,491
492,369,490,494,493
492,377,490,492,491
493,388,489,492,490
494,436,490,492,492
492,497,492,493,491
492,564,491,494,491
493,624,491,494,491
492,634,494,493,489
492,620,494,493,490
493,551,493,493,491
493,452,492,493,492
491,398,489,493,492
491,373,490,493,492
494,373,489,494,492
492,382,490,494,493
491,407,491,494,491
493,460,490,493,491
491,521,489,492,492
493,600,492,492,490
493,632,491,493,491
494,626,489,493,493
495,601,493,495,491
493,504,491,493,493
492,419,491,493,492
492,386,491,496,492
490,371,491,494,490
492,376,492,493,493
492,388,492,492,491
492,430,491,493,493
492,488,491,492,492
493,553,489,493,493
495,619,490,494,494
493,634,491,494,494
493,621,489,495,492
490,566,490,493,492
493,461,491,493,491
492,402,491,493,491
493,370,491,492,492
494,374,492,494,491
493,379,490,493,490
491,403,492,494,492
492,455,490,494,491
492,513,490,494,492
491,590,491,492,492
493,632,492,493,491
492,630,491,493,492
494,608,492,491,491
494,517,492,493,492
492,427,491,493,492
492,390,491,493,493
493,372,489,492,492
494,374,490,494,491
492,387,492,494,490
491,423,491,493,491
492,479,490,493,490
493,545,492,495,492
492,613,492,493,492
491,634,495,494,493
492,626,493,496,493
492,576,492,497,493
492,473,491,492,491
493,407,491,492,491
492,371,486,492,493
493,370,488,492,491
494,378,488,493,492
494,396,488,494,493
492,449,490,496,491
492,506,489,496,491
493,579,490,498,494
492,632,492,498,491
492,632,492,497,490
493,617,489,492,493
494,531,492,491,491
493,434,491,492,491
493,393,490,491,491
495,371,490,491,492
492,374,490,492,494
492,384,490,491,490
493,414,490,493,492
492,471,490,492,492
492,536,492,492,489
491,611,492,493,491
492,633,491,491,492
491,628,492,494,492
494,583,490,493,492
492,486,491,494,491
492,412,491,494,492
491,378,490,495,493
492,371,489,492,493
494,379,492,494,490
493,391,489,494,491
493,439,491,493,491
493,500,491,494,491
493,566,489,492,491
491,629,492,493,494
492,633,490,494,492
494,621,491,496,492
491,546,492,495,492
492,445,491,494,492
492,396,492,491,491
493,372,490,493,492
494,370,491,494,492
492,383,490,492,493
494,409,491,492,492
492,463,490,493,492
493,525,490,493,492
493,605,491,495,491
494,632,490,494,491
493,628,491,492,491
492,593,492,493,492
493,498,492,494,493
492,419,492,492,492
493,382,493,494,490
491,372,490,494,492
491,379,491,494,491
491,390,491,496,491
491,432,490,493,492
492,492,492,493,491
491,558,491,492,491
494,622,490,491,492
494,633,490,493,493
492,622,491,493,494
493,559,491,492,493
492,455,491,494,493
492,400,490,492,491
492,373,492,494,490
492,371,490,492,491
493,379,490,493,493
491,407,491,492,492
493,456,490,494,492
492,517,490,493,493
493,596,490,494,493
492,633,492,494,493
491,628,489,492,493
491,606,493,494,494
492,511,491,494,492
493,424,491,493,492
492,386,491,493,492
493,370,490,495,490
492,377,489,494,492
493,385,492,492,490
492,428,491,493,492
492,485,490,494,491
492,549,492,494,490
491,618,493,495,493
492,635,492,494,493
494,622,492,498,492
492,570,490,496,492
493,467,491,495,492
493,406,491,495,494
492,371,491,490,491
491,372,492,491,493
494,379,490,491,490
491,401,492,491,490
492,450,492,492,491
493,509,491,493,491
491,586,490,492,493
494,631,492,493,491
493,633,491,494,492
492,615,491,495,493
491,526,491,493,493
493,430,490,493,492
492,391,492,493,495
492,371,491,493,491
494,373,490,492,492
493,384,490,492,491
495,417,489,493,492
494,476,490,493,491
492,540,490,494,491
493,611,490,494,491
492,636,492,493,490
492,626,492,492,490
492,581,493,494,493
492,481,492,493,492
493,411,491,494,492
494,375,490,491,494
493,372,491,494,491
492,379,491,494,493
494,393,490,491,491
491,444,491,492,491
493,502,491,492,491
492,573,491,492,491
493,628,491,492,492
493,630,492,493,491
492,620,490,493,494
492,537,494,493,493
493,440,493,494,493
492,396,492,495,491
491,372,492,494,490
491,372,492,494,493
493,383,491,492,490
492,412,491,494,492
493,467,490,493,492
493,529,490,493,493
493,606,490,494,493
493,634,491,493,491
491,629,491,493,492
495,588,492,494,491
492,493,492,494,492
492,415,492,493,491
493,378,491,495,493
492,370,489,493,492
491,377,491,493,493
493,390,489,494,493
492,437,490,492,494
491,494,491,494,492
493,560,489,494,490
491,626,491,494,493
492,631,490,492,492
494,620,490,492,492
495,551,491,492,492
493,451,491,493,493
492,400,491,493,493
493,372,490,492,492
494,371,491,494,491
492,383,492,494,490
491,407,492,492,491
492,460,490,493,492
493,521,491,492,491
491,601,493,495,493
493,634,491,494,493
493,630,491,494,492
491,600,491,496,493
494,505,491,494,492
492,420,491,493,492
493,384,492,493,491
490,370,492,490,491
493,375,491,493,491
493,389,491,495,491
494,429,490,492,491
492,486,491,493,493
492,554,490,494,493
492,622,491,493,491
491,633,492,494,490
492,622,490,493,494
494,565,492,493,491
492,460,491,494,491
493,403,490,492,492
494,370,490,491,493
493,372,490,494,491
492,379,491,494,493
491,403,490,492,492
493,455,491,494,493
492,515,491,493,491
492,588,492,493,491
492,632,491,494,492
494,630,489,494,490
492,610,493,494,494
493,519,490,494,493
493,429,491,495,492
492,390,491,493,491
493,369,491,495,491
492,375,490,493,493
492,384,492,491,491
493,421,491,491,491
492,480,491,491,491
492,542,490,492,490
491,617,493,493,493
492,635,493,492,492
493,627,493,494,493
491,579,493,494,493
492,474,493,494,493
491,407,492,494,494
492,373,492,495,493
491,371,490,496,492
494,378,488,497,492
494,397,488,498,493
492,445,490,497,492
492,505,490,495,492
491,577,490,491,492
491,630,492,488,491
492,630,491,489,490
493,616,492,490,490
491,532,491,492,492
493,435,491,493,492
491,393,490,493,494
493,371,490,493,493
490,376,492,494,491
491,384,492,495,491
491,413,490,493,493
492,472,491,493,492
493,533,491,492,491
494,608,489,493,493
494,635,490,494,493
493,626,489,493,490
492,585,490,496,493
493,486,492,495,492
492,413,490,493,493
491,379,492,493,491
492,370,493,491,491
492,378,491,493,491
493,390,491,495,490
491,439,490,492,491
492,500,490,492,492
492,568,490,492,492
492,627,490,492,491
494,633,491,493,492
493,620,490,493,491
491,544,492,494,493
492,446,491,493,492
493,397,491,493,492
493,369,491,494,491
491,373,490,492,493
493,382,491,492,490
492,411,490,494,492
492,465,491,492,492
492,525,492,493,490
494,602,490,493,491
494,635,492,494,492
492,629,490,493,492
495,593,490,493,494
494,501,491,493,492
492,418,492,493,491
492,384,490,493,494
492,370,490,493,491
491,377,492,494,490
492,389,492,493,490
492,433,491,493,492
492,490,491,492,491
493,557,491,492,491
491,621,489,494,493
493,634,490,494,494
492,624,491,494,494
492,560,492,494,492
493,455,491,493,491
492,402,492,493,492
494,370,493,492,492
493,370,490,492,491
494,380,490,492,491
494,402,493,493,491
492,457,490,493,492
492,517,492,493,492
491,597,492,495,492
493,634,492,493,490
493,629,492,493,493
492,605,491,492,491
494,513,493,494,494
492,422,492,493,493
494,387,491,492,493
495,371,491,493,493
492,375,491,492,492
491,387,489,495,490
494,425,490,494,491
492,483,490,494,491
493,549,491,492,490
492,619,492,492,490
493,633,491,494,492
491,624,488,491,492
491,574,492,494,494
493,467,491,492,492
493,407,490,493,492
492,374,489,494,492
493,370,490,493,491
492,381,490,493,492
493,399,493,492,491
492,449,491,492,491
492,509,491,492,491
494,583,493,493,491
494,631,489,494,490
493,629,490,495,491
490,614,491,495,493
492,527,491,494,493
493,432,492,493,492
492,391,491,493,491
492,372,491,494,491
493,372,490,492,492
494,384,489,492,493
494,418,490,493,492
493,474,491,493,491
492,537,490,494,492
492,615,491,492,493
494,635,492,493,491
493,626,491,492,490
493,582,492,493,491
493,481,490,494,491
493,411,490,493,491
492,377,494,490,494
492,371,490,493,493
491,379,491,493,492
491,396,491,493,491
494,441,491,494,491
492,502,490,493,492
491,572,491,492,491
493,627,490,492,491
494,631,490,492,493
492,619,493,494,494
494,539,490,493,491
492,441,491,494,493
492,395,491,495,492
492,373,491,494,491
492,374,493,493,491
492,383,491,494,494
493,410,491,492,491
492,468,491,493,491
493,528,490,492,493
494,607,490,493,491
493,635,491,493,491
494,626,491,494,490
491,589,490,493,493
492,493,493,494,493
492,416,492,493,492
493,380,492,492,489
491,372,492,494,492
494,377,489,493,490
492,390,489,494,493
492,436,490,493,493
492,495,490,493,491
492,563,491,491,491
493,626,492,493,491
493,634,491,494,490
493,619,491,492,490
494,551,491,492,491
494,452,491,492,491
493,400,490,494,491
491,372,489,493,493
492,372,490,492,492
491,383,491,495,492
491,408,491,493,491
492,462,491,492,490
493,519,490,493,490
493,598,490,494,492
491,636,490,493,493
493,629,490,494,494
494,601,490,494,494
493,508,492,494,491
492,420,491,494,492
493,385,490,492,491
491,371,493,493,490
493,376,492,493,490
493,386,492,492,492
491,431,491,494,491
494,487,490,495,491
492,554,489,496,493
493,620,490,496,493
492,635,491,494,491
492,625,492,494,491
495,565,490,492,493
492,463,491,493,492
492,404,491,491,491
493,370,490,490,491
494,372,489,492,493
492,381,492,492,490
491,402,489,494,492
493,453,491,493,491
492,514,490,495,491
491,590,491,496,491
492,632,491,495,492
493,631,491,495,492
494,609,491,498,493
492,517,491,496,492
492,428,491,494,493
493,390,491,494,493
493,371,492,491,491
492,376,491,494,492
494,385,489,492,489
491,421,492,491,491
492,478,490,492,491
493,543,490,491,490
494,614,492,494,490
492,635,490,493,493
494,625,491,492,494
492,578,491,496,493
493,475,490,495,493
492,410,491,493,493
494,373,490,494,491
492,371,490,493,491
492,378,491,494,491
493,395,490,496,492
494,447,490,497,492
493,506,491,500,491
493,578,489,499,491
494,630,491,495,490
492,632,492,491,490
491,618,492,493,491
492,534,492,496,492
493,437,492,498,492
492,394,491,494,492
494,369,491,488,491
494,374,490,491,491
494,384,490,493,492
493,416,490,495,491
492,471,491,497,493
493,534,490,496,492
494,611,492,501,492
494,634,491,501,493
495,626,491,494,493
495,588,492,496,493
495,486,491,499,493
493,415,492,500,492
493,378,490,492,493
492,370,491,488,491
491,379,493,486,491
494,389,494,493,492
492,440,491,493,493
492,499,492,489,491
493,564,488,482,491
494,625,488,486,490
492,633,491,489,492
492,621,489,491,490
493,545,491,494,491
492,445,491,494,492
492,398,491,494,491
492,373,492,494,491
493,373,491,497,493
493,381,490,499,493
492,411,492,501,492
493,462,491,499,492
493,523,490,496,494
493,602,491,495,491
493,632,493,493,491
492,627,489,487,492
492,595,493,495,492
493,500,491,499,493
493,418,492,496,493
492,385,492,494,493
494,369,490,479,490
492,376,491,480,491
492,388,490,492,493
493,432,491,495,492
493,491,491,502,491
493,558,491,502,491
494,623,491,504,492
494,633,492,505,493
495,621,490,502,493
496,559,490,495,493
494,457,489,494,492
492,402,490,494,494
492,371,492,492,492
491,374,494,493,491
492,381,493,492,490
492,405,494,492,490
492,457,493,491,489
492,516,494,490,489
491,597,494,490,491
492,633,494,495,493
492,631,494,499,495
492,608,495,499,493
495,514,496,497,494
494,424,490,493,492
493,387,492,488,491
492,370,492,482,492
493,374,489,490,490
490,388,493,491,492
492,424,492,488,491
492,484,492,491,492
492,548,491,493,492
491,618,488,493,491
493,634,490,498,491
493,625,489,507,493
494,571,490,512,495
495,470,491,517,496
495,406,491,521,498
497,373,489,503,495
494,373,491,491,493
493,381,491,496,493
495,398,489,492,490
490,451,491,488,490
490,509,491,480,489
491,582,491,480,492
491,632,490,484,491
492,628,492,492,489
491,613,490,499,494
493,526,491,503,495
494,433,491,510,497
494,392,492,496,493
493,373,492,495,496
496,376,490,506,493
494,385,492,498,490
492,417,490,484,490
492,474,489,493,492
493,539,491,494,491
491,612,489,486,493
493,635,490,496,493
492,628,492,504,492
491,584,493,496,494
494,482,492,494,492
493,410,491,482,489
492,374,493,481,492
491,370,493,492,493
493,378,492,492,494
493,394,490,496,495
493,442,491,501,492
492,501,488,498,493
494,571,488,490,491
492,628,492,484,489
493,630,491,494,492
494,618,491,508,494
492,542,491,502,493
494,441,490,482,492
494,396,489,493,494
493,372,489,500,493
491,375,490,496,493
492,384,492,501,495
495,411,490,495,492
492,468,490,493,491
491,529,490,498,489
493,605,490,495,492
494,634,489,494,494
494,628,491,479,489
493,590,489,486,492
493,493,491,483,491
491,416,492,482,490
491,380,494,486,491
491,370,494,484,492
492,378,493,485,491
493,392,494,498,492
494,436,491,498,492
493,495,487,499,493
492,562,488,497,495
494,624,490,493,493
492,633,492,489,495
493,623,492,495,492
493,553,492,502,494
493,451,492,508,495
495,401,491,509,495
496,374,492,495,491
494,372,490,480,491
493,381,492,486,492
491,407,492,482,489
490,460,490,490,491
492,519,491,493,492
493,598,492,498,491
493,635,491,497,493
495,628,490,502,495
495,599,491,496,496
494,506,492,488,495
494,422,495,504,497
494,388,499,505,495
495,371,502,490,494
493,378,503,489,493
492,386,503,482,490
491,427,497,480,490
490,487,492,489,490
491,552,489,505,494
494,620,487,510,496
493,635,491,523,497
494,625,491,505,495
493,568,489,480,495
495,462,490,490,493
492,402,488,465,491
493,369,490,476,490
493,370,488,504,494
495,381,488,519,496
493,404,492,507,494
493,453,489,481,491
492,512,489,461,487
489,589,490,476,489
490,631,491,498,492
492,630,490,505,495
492,610,493,512,496
494,522,493,524,497
496,430,492,504,497
495,390,492,497,496
494,371,490,479,491
493,373,490,475,489
490,386,489,475,490
493,423,491,494,491
491,480,490,495,492
493,543,490,498,492
494,614,491,502,493
492,636,500,477,494
493,626,501,489,494
493,579,503,501,497
493,475,500,482,493
491,408,497,477,491
491,375,488,492,491
493,369,480,490,491
492,379,485,492,495
495,396,487,503,495
494,447,489,512,493
493,505,489,505,494
495,579,491,514,497
494,632,489,489,493
495,632,491,471,489
493,617,491,468,488
492,531,491,486,492
492,437,493,499,496
493,395,495,504,496
492,374,494,503,495
493,376,491,508,493
492,384,491,491,493
490,413,492,469,492
491,470,493,484,491
492,533,495,483,489
492,608,492,487,490
493,633,494,485,492
492,625,491,488,492
494,584,487,486,492
493,488,489,492,493
493,413,490,497,496
496,381,491,503,499
495,373,492,506,494
493,379,491,493,490
492,392,489,489,490
491,438,491,489,491
491,498,494,486,492
494,567,498,494,494
494,628,500,502,495
493,634,500,508,498
496,622,501,519,499
494,546,499,500,496
495,446,493,477,494
493,398,486,474,490
491,370,488,466,489
492,371,490,496,491
491,385,492,493,493
495,407,494,500,495
493,466,495,515,498
495,527,495,499,495
493,604,491,501,495
492,634,488,485,493
491,627,491,465,493
493,594,488,487,492
493,500,488,504,493
494,418,489,517,496
495,384,488,512,495
493,372,489,485,493
492,375,490,482,493
491,390,490,485,490
488,432,490,464,488
488,489,490,481,490
488,556,489,492,489
490,620,490,491,492
491,634,489,493,493
496,623,489,511,497
498,562,492,524,500
497,459,493,524,500
495,402,491,483,492
492,372,493,463,490
494,371,494,483,490
491,380,498,479,490
491,403,500,489,492
492,456,501,492,494
493,519,499,496,493
493,595,491,495,491
493,634,486,485,492
492,631,489,477,492
491,607,488,484,492
494,512,487,488,492
492,424,492,495,494
492,387,492,494,493
494,372,492,512,498
496,378,492,524,500
497,389,493,520,497
496,430,489,495,493
492,481,487,458,491
491,550,490,493,491
492,621,492,493,491
493,634,492,496,491
492,624,490,500,494
492,576,492,510,495
494,470,493,503,495
495,408,490,496,496
495,374,490,483,493
492,372,490,467,489
493,377,489,467,488
489,401,493,479,492
491,448,491,490,492
492,510,492,511,492
494,584,491,522,496
497,632,494,521,499
496,634,492,493,495
493,613,492,447,492
491,527,491,481,493
492,433,491,494,492
490,393,492,492,492
493,368,490,487,490
491,375,491,492,492
492,383,490,500,491
496,419,490,517,494
495,477,491,513,495
494,538,490,479,494
493,612,493,461,494
493,637,494,484,497
496,626,495,492,496
494,586,494,510,491
492,483,492,489,489
491,411,490,489,493
491,375,490,488,489
489,371,490,492,492
494,378,489,508,496
494,396,491,517,499
495,443,492,488,495
495,502,494,479,492
492,575,492,487,493
494,629,493,492,492
493,632,491,491,490
492,617,490,476,488
492,539,492,479,491
492,441,494,492,492
490,395,496,501,497
492,372,494,503,495
491,375,493,501,492
492,383,489,497,492
493,411,485,504,496
496,469,489,502,496
496,530,489,498,493
494,605,489,487,489
492,633,490,465,489
490,626,490,478,489
491,589,493,487,492
492,495,491,486,491
492,415,490,487,493
492,382,491,500,493
493,372,492,516,496
495,380,491,517,499
494,390,490,499,493
491,436,490,486,491
492,494,489,459,490
491,561,490,470,491
491,624,491,482,491
492,632,492,491,490
490,622,491,489,495
492,551,492,502,495
494,453,491,521,494
495,401,492,525,498
497,371,490,490,492
492,372,496,480,492
492,383,502,476,491
491,408,507,478,495
491,462,507,485,497
492,521,506,498,495
493,600,498,502,494
496,633,493,503,493
495,630,487,508,494
494,598,478,463,491
491,505,487,473,489
490,420,488,488,491
492,383,489,495,493
491,370,488,503,494
492,376,490,511,493
494,387,490,501,492
493,428,491,483,492
493,486,491,475,496
496,553,490,485,496
495,622,489,493,493
490,634,488,485,489
491,625,490,506,491
490,569,492,496,493
492,461,491,492,496
492,404,491,500,495
493,372,490,488,494
495,370,490,491,495
494,380,489,479,495
495,400,489,480,493
492,453,489,500,490
491,512,490,477,488
489,589,491,485,489
491,632,491,486,490
493,629,493,492,492
489,612,496,487,493
494,519,497,489,492
492,427,497,489,493
492,389,495,490,494
493,371,493,494,493
491,375,490,492,492
495,385,489,493,492
495,421,486,499,493
492,479,487,514,496
496,545,489,515,496
496,615,489,483,492
493,634,492,466,489
491,625,493,477,495
493,578,498,493,495
491,475,495,487,493
492,409,493,482,490
491,376,491,501,491
493,369,486,498,492
493,379,488,512,495
491,399,488,510,496
495,447,489,509,495
493,505,488,487,491
492,577,489,478,488
491,629,489,466,489
492,630,489,487,491
491,617,492,481,494
491,532,492,482,493
491,436,491,488,493
491,392,491,493,494
494,370,492,508,493
495,375,491,511,496
496,384,492,484,495
492,416,491,474,491
492,470,493,494,494
494,532,492,497,493
493,611,493,511,493
493,635,489,488,490
492,624,485,479,489
493,584,489,486,491
492,487,490,484,492
491,412,490,477,492
493,378,495,486,496
491,372,494,501,494
491,380,495,512,494
492,395,497,513,497
493,438,492,482,489
491,496,489,470,488
491,564,485,488,491
495,626,489,496,495
495,634,491,489,495
493,618,493,479,490
491,547,492,502,490
493,446,491,484,488
490,396,492,482,490
491,371,492,489,491
493,372,490,487,492
493,380,490,491,495
491,407,493,503,495
492,467,496,520,497
496,526,497,515,498
495,604,497,492,494
492,635,496,485,489
493,624,490,477,489
491,596,486,480,491
494,498,485,497,494
492,418,488,501,497
493,384,491,505,497
494,372,491,512,496
496,376,490,493,491
492,390,490,492,491
492,430,487,469,487
490,489,488,460,489
491,556,489,474,488
491,620,491,485,491
490,633,490,492,492
491,622,493,500,491
492,560,494,507,495
493,458,494,511,493
493,402,492,490,493
493,372,492,487,493
494,373,492,478,489
492,380,491,476,491
490,404,494,478,490
491,456,495,487,491
491,514,492,492,493
492,593,490,496,494
492,634,490,490,493
494,628,493,488,496
493,605,495,490,496
493,514,494,493,495
493,424,492,501,497
492,387,492,505,490
491,372,491,494,490
492,375,488,496,492
494,386,490,501,492
492,425,489,479,492
493,482,487,484,491
492,550,489,492,493
494,617,490,510,494
494,636,489,493,493
493,626,489,488,493
491,570,489,476,491
491,468,490,476,490
492,405,491,482,490
491,370,494,490,492
492,370,491,490,492
493,379,490,492,492
490,400,487,492,493
493,451,489,489,492
494,510,489,502,496
493,587,489,518,492
492,633,491,508,493
495,633,491,513,492
494,613,491,469,491
491,526,492,464,488
491,431,492,494,490
493,391,491,489,493
494,371,491,497,493
494,377,490,508,496
495,384,488,494,493
491,419,491,468,491
491,474,489,473,487
491,537,491,480,487
492,611,492,494,492
490,635,491,497,495
495,627,492,495,491
494,582,491,493,495
494,481,490,500,495
494,414,490,516,494
493,375,489,480,489
491,371,490,484,491
492,380,492,494,491
493,393,493,486,492
493,442,495,492,493
493,503,496,496,493
491,572,494,490,494
492,629,496,480,491
491,632,496,485,491
490,619,491,483,489
490,539,489,483,490
493,439,488,487,491
492,393,489,489,492
491,369,491,488,492
494,372,488,494,494
494,383,487,507,495
496,413,490,523,500
497,470,496,523,502
497,532,497,515,495
494,605,496,450,483
489,632,496,460,487
492,626,496,480,489
492,590,493,488,491
491,492,488,487,491
492,416,488,490,493
492,380,485,487,494
493,369,487,488,492
492,379,490,495,492
493,388,491,499,492
492,436,492,500,494
493,496,492,499,491
491,561,490,494,491
493,624,488,495,492
495,635,490,491,490
495,620,486,485,490
493,553,490,484,492
493,451,491,488,491
492,400,491,499,493
491,374,491,514,496
494,376,492,512,498
493,380,491,489,492
493,407,489,475,490
492,458,489,481,490
491,519,488,488,492
493,598,489,486,487
492,633,491,480,491
491,630,489,489,492
494,602,492,501,494
493,507,492,496,496
493,421,491,484,491
492,384,491,481,491
491,369,494,484,493
491,378,496,494,492
493,386,496,496,489
493,427,492,479,489
491,485,492,485,491
488,553,490,492,490
489,621,489,491,491
491,631,487,485,492
491,620,489,491,490
491,564,491,498,494
495,464,492,500,494
496,405,489,492,492
495,370,487,488,492
493,371,489,484,491
494,379,487,495,491
494,401,487,495,491
494,455,490,496,489
492,511,489,492,491
493,590,491,490,495
492,634,492,493,492
492,631,494,492,490
492,613,494,474,490
493,519,494,483,491
492,428,493,487,493
493,389,493,486,491
493,369,489,489,492
493,375,488,492,492
492,385,491,491,493
492,423,488,499,493
495,481,490,512,495
496,546,491,514,492
495,617,490,494,491
493,633,489,485,492
492,627,491,496,490
492,575,489,475,491
492,475,491,482,491
492,407,491,480,491
492,374,489,495,494
492,372,490,493,492
493,378,491,498,491
491,396,489,496,493
492,446,491,490,491
492,505,491,485,492
493,575,490,482,491
492,631,494,480,491
492,632,495,485,490
493,616,495,493,492
492,534,494,492,492
493,435,490,487,493
493,394,488,484,494
495,372,489,490,491
491,374,490,495,491
493,382,490,490,490
494,413,490,491,492
493,470,491,494,492
495,534,489,501,492
494,610,490,513,496
494,636,489,516,497
495,628,491,491,493
494,587,493,500,494
494,489,492,486,489
492,412,490,473,488
490,376,490,481,492
489,371,489,487,490
493,377,488,497,492
493,390,489,500,492
493,438,491,489,490
491,498,493,475,490
491,567,493,484,492
494,626,490,491,491
492,633,491,491,492
490,621,490,493,491
494,545,490,486,491
492,446,488,486,493
493,397,491,486,491
491,371,492,496,492
493,372,491,502,493
494,381,491,486,490
490,410,494,487,491
491,463,493,487,491
491,524,493,489,490
490,604,492,497,492
493,635,490,509,492
495,629,487,510,495
495,594,490,487,493
494,499,490,472,490
491,416,490,482,489
492,381,490,487,491
492,370,490,493,491
491,376,490,494,491
490,388,487,485,492
492,434,490,490,491
490,490,491,489,491
491,556,491,494,491
492,624,490,496,491
493,632,490,484,489
493,622,493,488,493
494,561,492,492,492
493,456,493,496,493
491,402,492,499,491
492,373,489,500,491
494,371,490,494,490
492,381,488,494,492
494,402,489,489,492
493,456,489,492,491
492,514,489,481,489
492,594,490,486,491
492,634,489,491,491
494,631,491,491,490
492,608,493,489,492
492,513,493,486,492
492,424,492,487,492
492,386,493,489,492
491,372,493,491,494
493,376,492,488,493
492,386,489,487,493
491,424,489,485,490
492,483,490,494,490
491,547,489,493,492
492,619,492,497,491
494,634,490,496,494
494,622,489,494,494
495,571,488,491,493
493,470,490,494,492
494,405,491,485,492
492,374,489,493,492
490,373,490,497,490
489,379,490,484,489
490,399,488,489,491
491,448,491,491,491
492,509,488,494,491
493,583,489,496,491
494,630,489,498,492
493,631,489,484,490
493,613,490,488,493
492,524,491,487,492
493,433,491,492,491
492,392,492,493,489
491,372,491,496,490
492,376,489,496,491
494,383,489,497,492
490,419,489,497,493
493,475,490,490,492
492,539,490,488,491
491,612,490,495,491
491,634,490,484,491
491,625,493,481,492
493,581,491,485,490
492,480,493,490,491
492,410,491,499,491
494,375,488,508,491
493,372,488,498,494
491,377,489,481,491
491,396,490,483,492
491,444,490,488,494
492,501,491,494,494
493,573,491,495,493
492,628,492,493,493
491,632,490,483,492
494,619,489,488,491
493,538,489,493,491
493,440,490,490,491
493,396,489,491,491
492,368,489,490,490
490,373,491,488,492
492,382,491,491,488
492,410,491,492,490
492,467,491,495,491
492,530,491,495,494
493,607,493,490,493
491,636,491,492,493
491,628,489,500,491
492,592,489,493,494
494,493,490,488,494
493,414,491,482,493
491,381,490,492,489
493,369,490,496,487
494,377,489,497,489
493,388,492,489,489
493,437,490,489,493
492,495,492,492,492
492,563,492,496,491
492,627,493,496,492
493,631,492,488,493
492,623,493,489,493
495,552,492,490,494
491,449,490,488,497
493,399,490,491,496
491,372,488,493,493
491,372,491,493,494
494,381,489,497,489
492,406,491,501,497
493,460,491,500,498
492,521,490,485,496
493,596,489,484,499
492,633,491,490,498
492,631,491,493,494
493,598,491,489,482
492,507,490,490,484
492,421,491,489,484
491,385,492,490,491
492,371,490,491,490
493,375,491,495,491
491,385,489,492,493
493,429,489,481,490
492,487,490,490,491
492,551,490,490,489
491,622,491,492,490
494,633,490,490,489
493,622,491,491,487
492,565,492,495,489
492,462,491,498,492
494,403,491,499,493
492,371,489,495,492
492,371,491,486,488
491,381,490,481,489
491,403,491,487,491
492,452,491,492,493
493,512,490,495,493
493,589,490,497,494
492,631,490,497,494
495,631,489,501,494
495,610,490,494,495
492,518,491,486,491
492,429,490,490,489
493,387,489,490,489
491,373,492,487,489
492,375,492,489,489
493,384,491,495,494
491,423,490,496,496
493,480,489,490,497
492,543,490,489,498
493,616,489,491,496
492,635,492,488,494
491,625,492,489,493
495,576,491,492,485
493,474,491,494,485
492,407,491,496,489
494,374,491,498,489
494,371,490,501,493
493,379,492,501,495
492,400,490,501,495
493,445,490,489,493
493,507,491,487,490
492,579,492,497,487
493,629,491,500,490
493,633,490,497,492
494,618,492,492,489
493,531,490,488,492
493,435,490,482,491
492,394,491,489,491
493,369,490,488,489
492,375,492,489,492
493,384,492,491,491
492,414,491,494,491
493,472,491,496,488
493,533,490,497,489
495,612,491,498,490
495,637,490,500,492
494,625,490,483,493
490,588,491,480,491
492,488,490,486,490
492,412,490,491,490
493,378,491,492,487
493,371,491,494,491
493,376,491,492,493
494,392,490,490,492
492,439,492,486,492
493,500,492,488,490
492,569,492,489,490
494,625,493,495,490
493,632,492,493,490
494,620,492,492,489
494,545,493,494,491
493,446,491,495,491
493,398,493,495,493
494,371,490,492,494
492,375,492,501,494
491,384,492,506,496
491,411,493,506,499
495,463,491,493,492
493,524,491,496,494
494,603,491,503,500
495,635,490,493,503
492,628,490,482,498
490,594,494,488,487
493,500,492,496,492
493,416,491,493,492
492,383,493,490,487
491,370,493,484,488
492,375,490,491,493
492,387,491,492,492
491,434,492,495,489
493,492,490,493,487
493,558,490,491,489
492,624,491,495,488
493,631,490,487,488
491,623,489,479,490
493,558,493,486,488
492,456,491,492,488
492,402,491,493,491
494,370,491,492,495
492,373,493,494,503
493,383,492,495,505
492,403,493,498,507
493,459,493,498,509
494,519,494,495,510
492,596,490,493,510
494,634,492,494,491
492,630,492,495,473
494,603,489,489,477
494,513,490,488,479
493,425,490,494,482
492,387,491,499,488
493,373,490,499,487
494,377,491,504,487
493,388,492,506,487
493,426,491,487,488
491,483,490,492,491
494,548,489,498,488
493,621,492,496,491
493,635,490,485,491
492,624,491,473,492
492,574,492,487,492
492,467,494,490,492
494,407,493,491,489
493,372,491,489,490
493,369,491,493,490
494,379,490,492,490
495,399,490,492,489
492,450,492,493,493
494,511,491,493,493
495,586,489,495,493
494,632,492,495,494
494,633,494,502,495
494,615,491,508,501
495,527,493,511,497
494,433,493,510,502
494,391,492,499,515
494,371,490,479,494
492,375,491,484,494
493,383,491,494,501
491,418,490,493,500
491,476,490,493,490
493,539,491,490,484
492,613,491,488,481
493,634,491,492,489
491,627,493,494,490
495,582,494,499,479
492,479,491,501,482
493,411,491,502,487
492,378,490,504,489
492,369,489,501,491
494,380,492,497,491
493,396,491,507,493
497,445,495,525,495
497,507,496,513,494
496,575,493,521,491
494,631,492,527,495
493,633,487,486,491
488,617,485,439,479
489,536,490,465,486
492,441,493,484,488
491,395,492,492,491
493,369,492,494,490
492,375,491,496,495
493,382,492,498,497
493,412,491,496,493
493,467,492,490,490
494,527,491,490,491
492,609,493,492,494
493,635,491,490,493
495,626,492,493,504
496,590,493,498,513
496,495,495,503,523
495,418,494,501,523
495,382,494,498,517
492,372,494,498,500
492,379,492,495,487
492,392,493,493,486
492,434,488,488,465
491,494,490,488,472
492,563,489,490,482
494,624,489,493,486
494,634,490,493,491
493,623,491,491,481
494,554,491,496,489
494,451,493,494,499
493,399,496,498,509
494,372,496,496,517
494,373,496,499,518
494,382,495,503,511
493,409,492,492,498
494,462,490,495,478
493,520,489,496,490
492,601,490,494,490
493,636,491,494,481
494,629,491,496,480
493,600,493,494,503
492,507,493,492,506
492,418,491,488,489
493,383,489,487,470
494,370,491,489,477
492,376,490,493,485
493,386,492,492,489
491,430,492,494,490
492,487,491,494,490
492,554,493,494,497
492,621,490,493,495
494,633,491,494,484
492,623,490,492,488
494,565,492,493,491
493,462,492,493,490
493,405,491,494,492
493,369,491,492,490
491,373,492,493,492
493,381,492,493,491
493,402,492,493,491
493,454,492,493,491
492,513,492,494,491
492,590,490,494,493
494,633,493,493,492
491,631,493,495,493
491,613,493,495,493
492,520,493,495,494
492,428,491,494,492
492,388,491,495,494
492,369,491,493,493
494,375,490,493,493
493,386,490,493,494
493,422,492,493,492
493,479,491,493,491
493,544,491,495,491
492,618,494,494,491
492,634,492,492,492
494,625,492,492,490
493,577,492,494,493
492,472,492,494,493
491,410,492,495,493
492,373,491,494,494
492,373,493,495,492
493,381,494,494,492
495,395,493,493,492
493,447,492,491,491
492,507,492,493,491
493,578,489,492,491
494,630,490,492,492
494,631,495,493,491
492,618,494,495,494
495,531,495,496,493
493,436,493,496,493
493,395,493,494,492
492,373,493,493,492
492,375,490,492,492
495,385,488,495,490
495,414,489,494,493
493,471,491,493,495
494,535,492,494,493
493,612,494,496,493
494,634,493,494,493
493,627,494,493,497
494,585,495,494,491
493,485,491,495,492
494,413,488,493,494
494,380,489,496,496
494,371,489,493,495
493,379,494,496,493
491,394,495,496,487
492,441,495,494,488
493,500,496,493,491
493,567,496,493,491
493,629,491,495,491
494,631,489,494,491
494,619,490,494,492
495,545,493,495,493
492,446,492,494,496
492,397,494,493,495
495,370,494,494,491
492,372,492,494,491
493,381,489,493,491
493,408,488,492,491
493,464,490,494,492
493,525,490,494,491
492,605,493,494,493
493,635,491,495,493
492,630,492,495,491
492,596,491,494,493
493,498,490,496,493
493,417,490,495,493
493,380,491,494,492
493,369,491,492,495
493,377,488,491,492
493,389,491,493,495
492,434,490,495,492
493,492,491,495,492
491,559,493,495,490
491,624,494,494,490
493,634,494,494,492
492,620,494,493,491
492,561,494,495,492
493,454,491,494,492
493,400,489,495,493
493,371,489,494,493
492,374,491,493,492
493,379,492,494,491
492,404,489,493,493
491,457,490,495,492
493,516,489,492,492
494,595,489,494,493
493,634,492,496,495
492,631,492,494,490
494,605,492,497,494
493,512,493,495,495
493,423,491,496,490
492,388,490,494,490
494,370,491,493,490
492,378,489,495,491
493,384,489,493,491
494,425,489,493,492
494,483,490,493,491
492,549,491,495,494
492,619,491,493,493
494,636,492,495,490
492,624,492,495,490
492,573,493,494,493
492,468,492,495,492
492,406,492,495,493
493,371,490,496,491
492,372,490,494,493
493,380,490,495,494
492,401,490,496,493
492,451,492,494,491
492,511,493,494,491
493,585,491,494,490
492,630,494,493,492
493,629,490,493,493
494,613,490,493,491
492,527,490,495,493
492,432,490,494,491
494,392,490,496,492
491,373,491,496,490
492,374,491,495,490
493,385,489,494,493
493,417,490,494,492
493,477,490,494,491
492,540,490,493,493
494,613,490,493,493
493,637,491,496,492
492,628,489,494,491
494,582,492,496,491
494,479,491,495,492
492,411,494,494,493
493,375,496,494,491
494,371,495,492,494
491,380,497,493,495
492,395,497,493,493
492,444,492,494,492
492,502,486,495,491
492,574,488,495,490
492,628,485,494,491
494,630,487,493,493
492,621,489,494,492
494,535,490,496,493
493,440,490,495,493
494,395,489,494,491
492,371,489,495,493
490,371,489,493,492
492,384,491,496,489
491,412,492,493,492
493,468,491,493,492
492,529,490,493,491
492,609,491,495,492
494,634,492,495,490
493,628,490,495,492
493,589,490,496,493
492,492,491,495,492
492,414,491,494,490
493,380,492,496,492
495,371,490,493,491
493,376,491,494,491
492,388,490,493,491
494,436,490,495,491
492,496,491,494,491
493,563,492,494,490
493,628,491,496,493
492,634,491,496,492
492,622,491,496,492
495,552,490,496,492
492,449,491,496,493
492,400,490,494,491
494,369,490,494,492
493,372,489,494,493
493,382,490,494,494
492,405,491,493,490
492,461,490,494,491
494,520,489,494,490
491,600,492,494,490
493,633,490,493,492
494,628,490,495,491
491,602,490,495,493
494,506,491,496,492
493,420,490,495,493
492,386,491,496,494
492,372,491,496,491
494,376,490,494,491
492,387,492,494,493
493,430,491,494,490
492,487,492,495,490
493,552,490,494,491
494,620,493,495,491
493,634,490,495,493
494,622,491,493,495
492,567,492,496,492
492,461,491,495,492
491,404,492,494,495
490,373,493,493,494
493,372,490,492,491
493,381,491,496,492
494,401,491,494,492
493,453,490,494,491
493,513,488,492,491
493,589,489,495,493
491,633,490,495,493
493,630,490,495,490
493,611,492,496,491
493,518,491,496,492
493,430,490,495,491
492,388,489,494,492
491,373,490,494,493
493,377,489,495,492
492,385,489,496,492
492,423,489,495,491
494,479,490,495,491
492,544,489,494,492
493,616,492,494,490
494,633,491,493,493
493,624,489,495,492
495,576,489,493,493
493,474,492,496,493
493,408,491,494,493
493,373,490,496,487
492,372,491,496,488
492,379,491,495,493
492,398,489,495,492
492,446,490,494,492
493,507,489,494,491
494,578,489,493,492
494,629,489,495,493
493,631,490,496,492
494,615,491,497,493
491,532,490,495,491
493,435,491,495,491
492,393,492,495,490
492,370,492,493,491
493,376,492,495,490
493,383,490,493,489
492,415,491,494,491
493,472,491,494,490
492,535,489,495,491
491,611,489,496,492
492,635,489,495,494
493,625,491,493,492
492,586,489,496,492
493,484,491,495,491
493,411,491,494,493
494,377,489,493,490
493,370,491,496,492
491,379,489,494,491
494,395,491,496,489
492,440,491,495,491
492,498,491,494,492
493,569,492,495,493
494,626,492,494,493
491,633,494,495,495
492,621,491,495,493
493,545,490,496,492
493,445,488,494,491
493,397,491,496,490
491,370,488,495,493
494,372,491,492,490
493,382,491,493,489
493,407,489,494,490
493,464,489,494,491
492,527,490,495,494
492,604,491,494,491
494,636,491,494,492
491,629,492,496,489
492,595,492,496,491
493,500,491,494,491
492,417,492,495,492
492,383,491,494,491
495,370,490,495,492
493,377,490,495,493
492,389,488,493,490
494,432,490,495,490
492,491,489,494,492
493,560,490,494,490
492,624,491,494,491
494,632,490,494,492
492,624,491,496,491
495,557,490,494,490
492,456,490,495,491
493,402,490,496,491
492,372,490,495,492
491,373,491,496,494
492,381,490,495,493
491,404,494,494,493
492,458,491,494,491
492,517,491,494,492
493,594,488,493,495
493,633,487,494,490
493,629,489,496,491
491,603,490,494,491
492,513,491,496,491
492,424,491,496,491
492,387,492,495,490
494,372,489,495,491
494,375,489,496,490
492,388,489,493,491
494,427,489,494,491
494,485,490,495,492
492,549,490,493,491
494,622,491,495,491
494,634,489,495,492
493,624,491,492,492
493,571,492,495,492
493,467,491,496,491
493,406,490,496,490
492,375,489,494,491
493,371,491,493,491
493,382,490,496,492
492,402,491,496,491
492,450,490,494,492
493,510,490,494,490
492,584,491,495,493
492,633,490,493,493
493,631,489,494,492
493,612,490,494,493
494,526,491,494,490
494,432,490,493,493
492,390,489,494,491
491,375,491,496,489
493,375,491,494,490
493,384,491,493,493
492,421,490,494,492
493,476,490,494,493
492,541,489,494,493
494,615,491,495,490
492,636,493,496,490
491,626,493,495,491
495,580,490,495,491
493,479,491,496,491
493,410,489,494,490
494,374,490,493,489
493,370,490,494,491
494,379,492,494,489
492,397,490,495,490
493,443,491,494,491
493,505,491,495,491
492,576,490,495,491
491,629,488,494,493
493,634,489,494,492
494,617,490,497,493
491,535,489,494,492
494,440,490,494,493
493,395,490,495,494
493,370,491,493,491
491,375,492,496,492
494,382,489,496,490
492,413,492,494,490
492,468,491,494,491
491,528,490,493,491
493,605,491,495,490
492,635,492,494,492
493,626,492,492,492
492,591,492,496,492
492,492,492,496,492
492,415,491,495,492
494,379,487,494,490
492,369,489,496,492
491,376,488,493,490
494,388,488,492,491
493,436,490,494,492
492,496,491,495,490
492,565,491,495,490
494,624,489,496,491
492,634,492,495,490
492,621,493,494,491
493,551,491,496,496
492,451,491,495,491
493,400,492,495,490
494,370,489,495,492
493,375,490,494,493
492,383,491,496,493
491,408,490,497,491
494,460,489,494,490
492,521,489,493,492
493,600,490,493,489
494,633,489,494,491
494,628,489,494,493
494,601,492,495,490
493,505,490,494,491
493,418,491,494,492
492,386,491,496,491
490,371,492,494,490
492,376,492,494,492
493,389,491,494,489
493,431,491,495,492
493,488,489,494,491
494,554,489,495,492
494,621,490,497,493
494,633,490,494,491
492,625,492,493,492
495,564,492,494,492
492,461,491,496,490
492,403,491,494,490
493,370,491,494,491
494,373,491,495,490
494,381,489,495,489
491,402,491,495,491
493,455,489,494,490
492,514,490,495,491
491,591,491,493,491
493,632,492,494,489
492,631,490,496,494
494,608,492,493,492
494,518,491,495,491
493,428,491,494,492
492,389,492,494,493
494,373,490,493,491
493,374,490,496,491
491,387,491,495,490
491,423,490,494,491
491,479,489,494,492
493,545,490,493,490
491,617,490,495,492
494,634,489,494,492
494,626,490,495,493
494,576,490,494,493
492,472,490,495,492
493,408,491,496,492
490,371,490,494,493
492,370,491,493,491
493,378,490,493,491
494,396,489,492,491
492,449,490,496,491
493,506,490,495,490
492,579,490,495,494
493,632,491,495,491
492,632,492,495,491
491,617,489,494,493
495,532,491,495,491
493,434,490,494,492
493,392,490,493,491
493,370,490,493,492
492,374,491,494,491
491,384,492,494,493
493,417,491,492,490
492,473,491,494,490
492,536,492,494,491
490,611,491,494,492
491,633,489,494,490
492,628,489,496,490
494,583,489,496,492
492,485,489,495,491
493,413,490,495,491
492,379,490,495,493
491,371,490,493,493
494,380,492,495,491
493,392,491,494,491
493,440,494,494,492
493,501,494,494,492
493,567,492,493,492
492,629,492,494,494
493,633,490,493,491
493,621,487,496,492
492,545,490,495,492
493,445,490,494,490
493,396,489,496,491
492,372,493,494,491
491,373,491,492,491
493,380,488,494,491
494,408,488,493,492
492,463,489,494,492
493,524,489,493,490
493,605,489,496,491
494,632,489,494,491
493,628,491,494,491
492,594,493,495,492
493,498,491,495,492
492,417,490,494,491
493,382,492,496,490
491,371,489,495,493
492,378,490,495,492
491,390,490,496,491
491,431,488,493,491
492,493,491,494,491
491,558,489,493,490
493,622,489,493,491
494,632,490,494,492
493,622,489,495,491
492,558,490,496,492
493,455,491,495,490
492,400,490,495,491
492,373,491,494,490
492,372,492,493,489
492,379,491,495,493
492,406,490,494,491
493,456,490,495,491
492,516,489,494,492
493,597,490,495,492
492,634,491,496,491
491,628,489,494,494
491,607,493,496,494
493,510,491,495,493
492,422,492,494,492
492,386,491,490,490
493,370,490,496,491
493,377,489,495,493
493,386,493,494,490
491,428,491,495,492
492,485,491,494,490
492,550,492,494,490
493,618,491,495,490
493,634,492,495,490
491,625,489,493,492
495,570,489,493,494
493,466,490,495,491
493,406,489,495,494
492,370,490,492,493
492,373,492,496,493
493,379,489,495,490
492,401,492,494,490
493,451,491,495,489
492,510,491,495,490
492,587,489,493,492
495,633,492,494,491
492,632,490,495,492
492,616,490,496,493
492,526,491,496,493
493,430,489,494,491
492,391,492,494,493
493,371,490,493,492
493,373,489,493,492
494,385,489,493,492
494,419,491,494,491
492,477,490,493,492
492,541,490,492,491
492,616,491,495,491
493,636,491,494,491
493,626,492,493,490
492,580,492,496,493
493,479,491,494,491
493,411,491,495,491
494,374,488,493,493
493,372,490,495,492
492,380,490,495,491
494,393,489,493,490
492,445,491,493,490
492,504,491,494,490
493,574,490,493,490
493,629,490,493,491
493,632,492,495,492
493,620,489,494,494
492,537,491,495,493
492,439,490,495,492
492,396,491,496,491
491,374,491,495,493
493,373,490,493,491
493,382,491,496,493
491,411,490,494,491
493,468,490,494,491
494,531,489,494,492
493,608,490,495,492
494,634,491,493,492
492,630,492,494,491
494,587,493,496,491
493,491,492,495,491
492,415,492,494,491
492,378,491,496,493
491,370,489,494,493
492,378,492,494,493
493,390,488,495,493
493,438,489,494,491
493,496,490,495,491
493,562,489,494,490
492,627,490,495,492
491,631,490,493,492
494,620,490,493,491
495,551,490,494,492
494,450,491,495,492
493,400,491,496,489
493,370,492,495,491
491,373,492,494,491
492,382,492,495,489
492,407,492,493,492
492,461,489,494,493
492,521,489,493,490
491,602,492,496,491
493,634,490,494,494
493,630,491,496,490
492,600,491,495,492
493,503,492,496,494
493,420,491,494,492
493,383,493,495,490
492,369,491,491,490
494,375,491,494,491
493,388,489,496,490
493,430,489,493,491
492,488,490,494,490
492,554,489,495,493
492,622,490,494,491
492,634,491,495,493
493,622,491,494,491
493,565,491,496,492
492,458,491,495,491
493,401,490,493,492
495,370,490,492,492
493,372,491,495,491
491,379,490,495,491
491,405,488,493,491
493,454,490,494,492
493,515,490,493,491
493,590,492,493,490
494,633,491,495,492
494,630,489,494,490
492,610,493,495,494
493,517,490,494,493
493,427,490,494,491
492,390,492,494,491
494,370,491,494,490
493,376,490,494,492
493,384,492,493,491
493,422,491,493,491
492,481,490,492,490
491,546,491,495,494
494,616,489,491,492
494,634,491,492,492
492,626,491,497,489
492,578,493,496,491
492,473,492,495,491
492,407,490,494,492
493,372,491,493,492
491,372,491,494,492
494,378,489,494,492
495,398,489,492,493
493,447,490,494,491
492,507,490,494,492
492,580,490,493,491
491,631,493,495,490
493,631,493,493,492
494,617,493,494,491
493,531,491,495,492
494,435,490,494,491
492,394,490,495,493
493,371,489,494,493
492,376,490,494,493
491,385,491,492,491
494,416,492,495,492
492,473,491,494,491
492,535,491,493,491
494,610,490,493,493
495,635,489,494,492
494,627,489,494,489
492,585,489,495,492
494,485,492,494,491
492,413,491,495,493
492,379,492,496,492
492,372,493,493,492
492,379,491,494,493
494,391,490,495,491
492,441,490,493,490
493,500,489,492,492
494,569,489,491,491
493,629,491,494,491
493,633,491,494,491
494,620,489,494,491
492,543,492,495,492
492,444,491,494,491
493,397,491,493,493
492,373,490,493,492
494,372,492,494,492
492,383,490,495,494
492,410,490,495,492
493,465,490,494,491
492,527,492,494,490
494,603,490,492,493
493,635,492,496,492
492,629,490,493,492
494,591,490,493,493
494,498,491,494,491
493,417,492,494,491
492,382,490,493,495
492,370,491,492,491
491,378,491,496,490
492,390,492,495,490
492,434,492,493,493
492,492,490,494,491
493,558,491,495,491
492,623,490,494,492
493,634,491,494,493
493,623,491,495,493
492,555,493,495,491
493,454,492,495,490
495,401,491,494,488
492,371,494,494,490
493,371,492,493,492
494,380,491,492,494
494,404,492,494,493
492,458,488,494,491
492,519,490,493,493
492,598,489,494,494
492,635,491,495,490
493,630,493,495,493
494,604,490,495,490
494,510,492,494,492
492,422,492,494,493
493,385,490,494,493
495,372,489,494,492
493,376,491,493,490
492,387,489,495,491
494,427,490,495,491
492,485,490,495,491
492,550,491,494,490
493,620,492,495,492
493,635,490,494,493
495,626,491,496,491
495,570,490,495,493
493,465,491,495,493
493,406,491,495,492
492,374,490,495,491
493,370,489,493,490
491,381,490,495,492
493,400,491,494,490
493,451,490,494,491
493,511,490,493,491
494,587,492,494,491
494,632,489,494,493
493,630,491,496,493
491,614,491,496,492
493,524,491,495,491
494,431,491,494,492
493,391,492,494,491
491,372,490,495,492
494,373,489,494,492
494,384,489,493,492
495,420,490,493,492
492,477,491,494,492
492,542,490,493,491
494,613,492,494,490
492,635,492,494,490
494,624,491,493,490
494,580,492,494,492
493,479,491,495,493
494,409,490,493,491
492,377,493,493,493
493,371,490,495,492
492,379,491,494,491
492,397,491,492,491
494,442,491,494,492
492,504,490,493,491
492,574,492,492,490
493,628,491,493,492
494,632,491,494,492
492,618,495,495,493
494,536,492,494,491
493,440,490,495,492
493,394,489,495,492
492,372,490,493,492
493,374,490,493,494
492,381,491,492,492
492,414,491,495,491
493,468,492,496,493
494,530,491,492,495
494,608,491,495,492
493,635,492,494,492
494,626,491,495,489
492,587,489,493,492
493,489,491,494,491
492,415,491,494,491
493,378,491,493,490
491,372,491,495,493
494,376,489,494,490
492,392,489,494,492
492,437,489,494,492
493,496,489,494,492
492,565,490,492,492
494,627,491,495,492
494,633,490,493,492
493,619,491,492,492
494,547,491,495,492
494,449,492,495,491
492,400,492,495,492
494,371,492,493,490
493,374,491,495,491
491,382,491,496,490
491,407,492,494,490
492,462,491,494,492
493,521,490,495,492
494,599,490,496,493
492,636,491,495,493
493,629,491,495,494
494,599,490,496,493
495,505,492,494,491
493,418,491,495,493
494,384,490,494,491
492,371,492,494,492
493,375,492,494,492
494,386,491,492,491
492,432,491,494,491
493,489,491,495,490
493,557,490,495,491
494,623,491,496,492
492,635,492,496,492
492,623,491,493,493
492,565,494,495,494
494,459,493,495,492
493,403,494,494,492
494,370,494,493,493
495,372,491,493,493
494,382,491,494,489
492,403,487,495,492
493,456,490,494,492
492,516,491,495,491
491,594,493,496,492
493,634,494,494,493
493,631,492,493,491
494,607,491,496,493
493,516,489,495,491
493,426,489,495,493
494,389,489,495,495
495,373,491,494,492
492,376,491,497,493
495,386,490,496,491
492,426,492,495,492
493,481,491,494,492
494,546,491,496,493
493,620,491,494,494
494,636,492,494,492
494,628,490,495,493
493,576,491,495,493
493,472,491,497,493
493,409,491,495,491
495,372,490,496,490
493,371,490,494,492
494,379,492,493,490
494,397,491,493,492
493,448,491,494,491
493,510,492,494,491
493,582,489,494,492
492,631,491,494,492
492,633,492,495,490
492,618,493,496,491
493,530,492,495,492
494,435,492,493,491
493,393,491,496,493
495,370,490,494,493
494,375,490,494,493
493,384,490,494,493
493,416,491,493,491
493,474,491,494,492
494,536,492,494,490
492,613,493,494,490
493,634,491,494,492
494,626,490,493,492
495,587,492,495,492
494,482,491,495,493
492,413,492,495,492
493,378,491,495,493
492,371,492,495,491
492,379,492,494,493
494,392,493,494,490
493,441,490,494,492
493,502,492,493,491
494,568,491,493,491
495,628,490,494,493
493,633,492,493,494
492,621,490,494,491
494,541,491,495,494
493,444,491,494,491
493,397,492,495,491
492,373,490,492,494
492,372,491,494,490
492,384,491,496,491
495,410,490,493,491
494,466,491,494,491
494,527,490,493,492
493,606,490,493,492
494,634,492,496,489
492,628,490,495,492
492,593,494,494,491
493,496,494,495,492
493,416,493,493,492
493,384,493,495,492
495,370,490,493,491
493,377,490,494,492
492,391,490,495,489
492,434,492,493,490
493,492,490,494,493
494,560,493,494,492
493,624,492,495,492
495,633,490,493,492
494,621,490,493,493
495,555,490,495,492
493,455,491,494,493
493,401,490,493,492
494,373,490,495,492
492,374,492,494,491
492,380,492,495,490
492,405,491,493,491
493,459,490,493,492
493,518,490,495,491
492,599,489,492,492
494,635,491,493,492
493,631,491,496,493
492,605,491,493,492
494,510,491,494,492
494,421,490,494,491
493,387,493,494,490
492,371,491,492,491
494,375,490,492,492
492,390,493,493,492
494,428,492,494,491
492,486,491,494,493
493,554,491,495,491
492,621,491,495,491
493,635,490,494,493
494,624,491,493,494
492,570,491,494,493
493,464,491,494,491
494,405,491,494,492
495,370,490,493,492
494,373,492,493,490
494,381,491,494,492
494,399,490,492,491
492,455,491,493,490
492,512,492,493,490
492,586,491,492,493
494,634,491,494,492
494,629,492,494,491
492,612,489,494,493
494,523,492,495,492
493,430,491,494,493
492,390,491,493,491
492,374,492,495,492
493,375,490,493,490
493,385,492,492,490
493,420,492,493,491
493,477,490,494,492
492,543,490,493,492
494,615,493,493,491
493,637,491,495,492
492,627,492,495,492
492,581,493,494,491
493,476,492,495,492
494,409,490,494,490
493,373,491,496,493
492,369,491,493,492
495,379,491,494,492
493,396,491,494,492
492,445,492,493,491
492,505,492,494,491
493,574,490,495,490
493,631,492,494,489
494,632,493,493,491
494,617,493,496,494
493,538,491,494,493
494,438,490,495,494
494,394,487,494,494
494,372,488,494,492
492,375,491,495,490
494,382,489,492,490
492,415,492,493,492
493,469,491,493,491
492,533,490,492,490
493,608,491,493,491
493,635,490,494,493
493,629,492,492,490
495,588,490,493,492
493,490,491,496,493
493,415,491,494,491
493,381,492,496,492
492,371,492,495,493
493,379,492,492,491
493,393,491,496,491
494,438,490,493,491
493,498,491,493,492
494,566,490,494,494
493,626,491,493,492
492,635,493,493,493
494,620,492,494,491
493,550,492,496,491
493,449,491,494,491
492,398,491,496,493
492,370,491,493,492
491,374,492,494,493
494,382,490,494,493
494,409,490,494,492
492,462,490,494,491
493,522,491,492,492
494,600,492,494,490
493,634,490,495,493
494,628,491,492,492
494,596,491,493,491
494,502,491,494,492
493,419,491,494,495
493,385,490,493,490
492,369,491,495,492
492,378,491,495,491
493,389,493,495,490
492,431,490,493,492
494,490,491,493,491
492,557,491,495,492
494,621,490,494,492
494,634,491,494,492
493,624,491,495,491
494,561,491,495,493
493,460,492,494,491
493,402,491,495,491
493,372,493,494,491
493,372,492,493,490
493,380,492,493,491
492,406,492,494,492
494,456,492,494,491
491,516,492,493,493
494,595,492,494,494
492,635,493,496,493
492,630,489,492,495
494,609,492,495,490
493,515,490,494,492
493,424,490,493,491
494,387,489,492,489
495,369,489,493,490
492,376,491,492,491
493,388,491,491,489
493,425,490,492,492
493,483,490,495,491
492,547,492,492,489
492,617,490,495,492
494,634,490,492,490
491,626,491,492,492
495,572,489,493,492
494,471,490,494,492
494,407,490,495,492
491,374,490,492,491
493,374,492,494,489
494,379,490,494,490
492,399,492,492,490
493,449,491,493,490
493,508,491,493,491
492,583,491,492,492
495,632,493,493,491
493,632,491,495,493
492,617,491,495,493
491,529,493,495,492
492,433,491,493,491
493,392,491,492,493
493,371,491,492,491
493,372,489,492,492
494,384,489,491,492
495,417,489,493,490
491,474,490,493,492
493,537,490,492,491
491,614,490,495,491
491,635,491,494,490
492,626,492,492,489
492,582,492,493,493
492,483,490,494,491
492,411,491,494,490
491,375,489,492,493
493,372,490,494,493
492,380,491,495,491
491,391,489,492,494
492,443,491,494,491
493,501,490,493,491
493,571,492,492,491
494,629,491,492,492
494,632,492,495,490
492,620,491,494,493
494,540,493,494,491
493,442,490,494,492
492,397,490,495,491
491,373,491,494,490
493,373,488,494,491
493,382,489,495,493
491,412,490,492,491
493,466,489,493,491
494,528,489,493,492
493,606,489,493,492
491,633,490,492,492
491,629,491,494,492
494,589,490,495,491
492,495,492,494,491
493,417,492,493,491
493,380,491,495,493
491,372,489,493,493
494,378,492,493,490
493,389,488,494,494
492,436,490,493,492
492,495,491,494,490
493,559,489,492,489
492,625,491,495,491
492,634,491,492,492
494,620,491,493,493
495,555,491,494,492
494,453,492,494,491
491,400,490,494,493
493,371,492,493,489
492,374,491,495,489
492,382,491,494,488
491,407,492,493,489
492,459,491,493,491
493,519,490,492,491
494,600,491,495,492
494,633,490,494,492
493,630,490,494,493
493,603,491,494,493
493,506,490,494,492
493,421,491,493,491
493,385,492,493,489
492,370,492,491,492
493,376,491,491,491
493,386,492,496,490
492,428,490,492,492
492,487,491,493,492
492,553,490,494,493
492,620,490,494,491
492,634,492,491,493
493,623,489,495,490
493,567,491,492,492
493,462,491,494,491
493,403,491,492,493
495,371,490,493,491
494,373,491,495,492
492,379,491,493,493
492,404,489,493,490
493,452,490,494,490
493,513,491,493,490
493,588,491,493,492
493,631,491,495,492
493,630,489,492,492
492,615,492,495,494
493,520,490,493,493
493,430,490,493,493
492,391,491,493,491
493,369,490,495,491
492,377,490,493,491
493,384,491,492,490
493,421,491,492,491
491,479,491,493,490
493,544,492,494,489
495,615,489,494,491
493,635,491,495,492
491,627,492,495,493
492,580,492,495,492
493,477,491,493,492
492,410,490,493,494
492,374,492,492,490
492,372,491,495,492
494,377,489,493,492
494,395,490,493,490
493,446,491,492,490
493,504,491,494,492
492,578,489,491,490
494,630,491,495,491
494,631,491,493,491
494,617,492,493,491
494,535,492,495,492
493,437,491,493,492
492,395,493,495,493
493,371,490,495,493
492,375,491,494,492
492,385,490,491,491
495,412,491,494,490
492,471,490,493,492
492,533,490,492,490
493,608,491,492,492
494,635,490,493,492
494,627,490,494,490
492,587,492,494,495
493,490,491,492,491
493,413,491,495,491
493,380,492,496,491
492,371,493,493,490
493,378,492,494,492
493,390,491,491,490
492,440,491,491,491
492,499,490,493,492
493,566,489,493,492
493,627,491,492,491
493,631,491,494,491
492,620,489,492,491
493,546,492,495,491
493,447,490,494,491
493,397,491,492,491
491,373,491,495,493
494,372,489,493,490
493,382,491,494,493
492,409,491,495,492
493,463,490,493,491
493,524,491,494,490
492,601,490,492,494
494,634,492,492,493
491,630,493,493,493
494,592,491,493,492
495,501,492,492,492
493,418,491,494,491
493,383,491,493,493
492,370,489,493,490
492,378,491,494,489
493,388,492,494,490
492,432,491,493,491
492,490,490,493,493
493,556,489,494,492
492,625,490,492,494
493,634,490,494,493
492,624,490,494,494
493,563,491,493,491
493,457,491,493,491
494,402,491,493,491
492,372,494,494,491
493,370,491,492,491
494,380,491,492,491
495,403,490,494,491
492,458,489,493,493
494,518,491,492,491
492,596,490,495,493
493,635,490,495,491
493,630,492,493,490
492,607,490,494,490
494,513,491,494,492
493,425,491,492,491
493,387,490,491,493
495,371,490,493,493
493,378,493,493,490
493,387,490,495,492
495,424,490,492,491
492,483,490,494,490
492,548,491,493,489
492,618,492,492,491
492,636,491,493,491
494,623,493,495,491
491,572,490,494,494
493,468,490,493,493
493,407,490,494,492
492,375,490,496,490
494,370,489,493,491
492,380,491,494,493
494,401,491,493,491
493,448,490,493,492
493,509,490,493,491
494,582,492,494,490
491,631,489,494,492
495,631,490,492,491
491,616,491,497,493
492,528,492,494,493
493,433,492,494,491
493,392,490,493,491
493,371,490,495,492
491,374,490,492,492
493,384,489,491,495
494,418,489,493,492
494,476,491,493,491
493,539,490,496,490
495,612,490,496,490
492,636,493,494,491
493,626,492,492,490
493,582,493,491,490
494,483,492,495,492
492,411,491,492,492
492,378,493,494,492
493,372,490,494,493
491,379,491,495,492
491,396,491,495,491
494,441,489,494,492
493,501,489,492,492
493,572,491,492,490
494,628,490,492,492
494,632,490,492,493
494,620,494,494,490
494,539,491,493,492
493,442,491,493,492
492,396,491,495,492
492,372,490,495,490
493,373,491,493,493
492,383,490,491,491
494,413,491,495,491
493,467,490,493,491
494,527,489,494,493
493,606,490,493,493
493,636,492,494,491
494,626,490,494,490
492,592,490,493,493
494,493,492,494,491
493,415,491,493,491
493,379,491,492,491
494,372,493,494,491
493,377,490,493,492
493,390,493,494,494
491,437,491,493,492
492,494,491,493,491
492,562,491,492,493
494,624,490,492,491
493,634,490,494,491
494,620,489,493,491
495,552,489,494,494
494,452,490,493,492
493,400,491,493,493
492,372,490,492,492
494,372,492,493,491
492,382,492,494,490
491,405,492,492,491
493,460,490,492,491
493,521,491,494,492
494,597,489,492,491
493,635,491,495,491
492,630,491,495,492
492,602,491,496,493
492,508,492,494,491
493,419,492,494,491
492,385,491,494,493
492,370,491,492,492
494,375,489,492,492
494,387,488,492,493
492,430,491,493,492
493,486,490,492,492
494,553,491,494,491
492,622,493,492,491
492,634,492,494,491
494,623,491,494,493
492,565,492,493,492
493,463,492,493,491
494,404,491,493,492
492,370,489,493,492
492,373,490,495,491
492,381,491,493,490
495,400,492,494,491
492,454,490,492,492
493,514,492,492,493
493,588,492,492,492
494,631,491,492,493
492,632,493,493,492
493,610,490,493,490
494,520,490,494,493
493,429,489,494,492
492,390,491,495,492
492,374,489,492,492
493,375,491,493,491
492,386,490,494,490
495,421,489,493,491
494,478,490,493,492
494,543,490,493,490
493,617,493,495,492
493,636,490,493,493
495,627,493,494,491
492,579,493,494,491
493,474,492,494,492
493,409,491,493,491
492,376,491,495,491
494,369,489,493,490
492,380,490,493,493
493,396,490,495,493
492,446,490,494,491
493,505,490,492,492
494,579,492,493,492
495,630,490,494,490
494,630,491,491,491
494,615,491,493,492
495,532,491,493,492
492,438,492,494,491
493,393,491,493,490
493,373,491,495,490
491,375,492,495,491
492,383,492,495,492
493,415,490,493,494
493,471,491,493,492
493,535,491,490,492
495,609,490,493,493
494,636,490,494,493
493,627,490,494,494
493,587,491,492,492
494,487,491,495,493
494,412,491,493,491
492,379,493,493,491
493,369,491,492,492
494,377,491,492,491
491,395,492,492,491
494,438,491,493,491
493,500,490,492,492
492,568,491,494,492
492,627,490,494,492
493,632,489,493,493
492,619,492,494,494
493,546,490,493,492
493,446,490,493,491
493,396,490,493,492
495,369,489,493,490
493,374,490,494,492
492,380,491,492,490
492,412,492,494,491
492,464,490,492,491
492,524,490,491,491
492,602,492,491,493
491,636,492,492,494
495,626,492,495,491
492,594,490,494,493
493,499,491,494,492
494,418,490,493,491
493,382,490,491,491
491,371,492,494,493
494,377,490,492,489
494,388,492,492,490
493,432,491,492,492
492,491,492,493,491
491,559,490,492,492
495,624,492,493,491
493,636,491,494,493
491,624,491,495,492
492,561,492,495,492
495,456,490,494,491
492,401,491,493,494
493,371,492,492,492
494,372,490,492,492
494,380,490,493,493
494,403,489,491,494
493,457,491,493,491
493,517,489,494,491
494,593,489,493,491
492,635,491,494,489
493,629,491,492,491
494,606,492,495,492
493,515,491,494,492
493,425,490,494,491
494,389,490,493,492
495,372,490,494,492
492,378,490,494,493
494,386,490,492,491
491,427,492,492,492
494,485,491,493,490
493,549,492,492,490
493,618,492,493,492
495,634,492,493,490
493,626,490,494,493
492,572,491,493,493
494,469,490,493,491
493,407,490,494,491
492,374,491,496,491
492,372,491,494,493
493,381,491,492,491
493,401,490,494,492
494,450,490,492,491
492,509,490,493,492
494,583,489,492,493
492,631,491,492,491
492,632,491,492,492
495,612,492,495,491
492,527,492,495,491
492,432,492,494,491
492,391,491,494,493
493,371,491,491,492
492,375,492,493,492
494,385,490,494,493
493,419,490,494,493
493,474,489,493,492
493,539,490,494,491
491,614,490,493,493
494,635,492,494,491
495,626,491,492,490
495,579,491,494,492
494,481,491,494,492
493,413,492,493,492
493,376,491,493,490
494,370,491,495,491
491,379,492,495,491
491,396,491,494,491
493,442,490,493,491
494,502,491,492,490
492,573,490,492,493
493,628,490,493,491
494,631,490,493,494
493,619,490,493,491
493,537,493,494,492
493,440,491,494,491
493,395,491,494,490
492,372,492,493,490
492,371,491,493,491
493,382,491,495,493
494,409,490,493,491
493,468,490,493,491
494,529,490,493,492
493,607,490,495,491
492,634,491,495,491
492,628,490,493,492
495,590,494,495,491
494,492,491,494,491
493,414,491,493,491
494,378,490,492,491
495,369,489,494,490
493,378,492,494,492
493,391,491,492,491
494,438,489,494,492
493,496,490,495,490
492,563,492,494,491
493,625,490,494,492
495,633,491,493,492
491,622,492,492,493
496,551,490,494,493
494,450,491,494,493
493,399,489,493,492
494,371,490,494,491
492,370,489,493,492
492,382,492,494,489
493,407,492,492,489
493,460,492,493,491
493,519,490,492,492
492,602,491,490,492
493,633,491,494,491
494,631,490,493,493
492,600,491,497,494
492,505,491,495,492
494,418,490,493,491
493,385,492,494,492
494,371,490,492,491
495,375,490,492,492
494,386,490,492,492
494,429,490,494,492
492,489,491,493,492
492,553,491,492,491
493,624,492,494,491
493,635,492,493,490
493,622,491,493,491
494,567,490,495,491
493,462,491,494,492
493,403,490,493,492
496,371,489,492,492
494,373,490,491,494
493,381,490,495,492
492,401,490,493,490
492,455,490,494,491
493,513,490,493,491
492,591,492,489,491
493,631,491,493,491
494,629,490,495,490
492,613,491,493,493
494,518,492,494,493
493,428,491,492,494
492,390,490,495,492
492,373,490,496,490
495,375,489,493,489
493,385,492,494,493
493,423,490,492,490
493,480,490,492,490
494,544,490,491,491
495,615,492,493,490
494,637,491,494,491
494,624,491,493,493
492,579,493,495,491
493,474,492,494,491
492,409,490,494,492
493,373,490,494,494
492,373,489,492,491
494,379,491,494,491
495,397,488,493,493
493,447,490,493,492
493,505,490,494,493
495,578,490,491,492
493,632,493,494,493
494,632,492,493,491
495,617,491,493,490
494,531,490,494,491
493,436,490,494,492
493,394,490,493,492
492,372,491,493,493
492,376,491,494,492
492,386,491,495,491
492,415,491,493,492
494,471,490,493,490
492,534,490,491,493
493,609,491,490,493
494,635,489,494,491
494,627,490,494,493
494,585,490,494,494
493,486,492,495,492
494,413,491,493,493
494,376,492,495,490
493,371,492,493,490
493,378,493,493,491
493,390,490,496,492
493,440,491,493,491
494,500,492,495,492
494,570,491,494,492
494,629,492,495,491
493,634,493,495,493
495,620,490,495,491
493,545,492,494,493
495,445,490,494,492
495,397,491,493,492
495,370,491,493,492
495,374,492,494,491
495,384,490,494,490
493,408,490,494,492
493,466,489,493,492
493,527,491,494,490
492,606,492,495,491
493,635,490,494,492
493,628,491,492,491
492,595,491,496,493
495,498,491,493,492
493,417,491,493,492
494,382,490,493,491
493,370,491,494,492
493,379,491,493,492
494,390,493,495,491
493,435,492,494,492
494,493,493,492,492
493,559,491,493,494
495,624,491,494,491
493,635,493,494,493
494,624,491,494,493
494,559,492,493,492
494,455,491,495,491
494,400,491,495,490
493,370,490,493,492
493,372,491,493,491
494,381,490,492,491
494,404,490,492,491
494,457,490,493,492
493,520,491,493,492
494,598,492,493,490
494,636,490,495,491
493,632,492,494,491
493,607,493,496,491
493,510,491,493,493
494,424,492,493,492
492,387,491,493,491
494,370,490,492,493
495,376,490,494,493
494,386,490,494,491
494,426,491,494,492
494,486,491,493,491
493,551,492,495,492
493,622,493,493,489
494,635,492,492,489
493,625,492,494,492
495,571,492,495,494
493,468,493,494,493
494,405,492,495,494
493,373,491,494,492
493,373,492,495,491
493,378,489,492,493
492,402,492,493,493
493,450,489,494,492
495,511,490,492,492
494,584,490,492,493
495,632,490,494,492
494,632,491,495,492
494,614,494,493,489
493,525,492,495,493
493,432,492,494,492
493,393,493,496,491
496,370,490,494,491
495,376,492,494,492
491,386,489,492,491
495,419,490,493,491
494,478,490,493,491
494,541,492,493,489
493,616,491,494,492
494,636,491,493,490
492,628,493,494,491
493,583,494,494,492
494,481,493,493,491
493,410,491,495,492
493,377,490,492,490
494,372,492,494,490
494,379,490,494,493
493,397,491,494,492
493,444,492,495,492
494,502,492,493,491
493,576,493,494,492
496,630,492,494,493
495,632,490,493,493
496,619,491,493,492
496,537,493,494,492
493,440,490,492,493
493,395,491,493,493
492,372,489,495,493
492,375,491,495,492
493,384,492,494,494
494,412,490,493,491
493,469,490,493,492
493,530,490,492,491
494,607,490,493,492
495,635,490,493,493
495,629,490,494,492
493,588,492,493,494
493,493,491,494,492
492,414,491,493,492
492,380,493,495,491
493,371,492,493,491
494,376,491,496,492
492,388,490,491,492
492,438,491,494,492
493,497,490,493,492
494,565,489,492,493
494,628,492,495,493
494,632,491,494,490
493,623,491,494,494
495,550,493,495,492
494,450,492,494,492
493,400,491,492,491
496,373,491,494,491
495,373,490,494,491
493,382,492,495,493
492,408,492,494,492
493,463,490,494,492
493,523,491,495,492
492,603,489,493,493
494,636,491,493,492
492,632,492,496,493
495,597,490,493,493
495,505,491,494,493
494,420,491,493,492
492,384,492,494,494
495,372,491,493,491
495,378,492,495,491
492,389,492,495,490
493,431,492,494,491
492,488,490,494,492
494,554,491,491,493
493,624,491,493,493
494,634,490,494,493
494,625,490,494,493
494,566,492,495,491
493,460,491,494,492
493,403,490,492,492
492,373,493,495,490
493,371,492,493,491
494,380,492,493,491
495,402,491,493,491
493,456,492,494,491
494,515,492,493,490
493,593,490,494,493
493,635,491,495,491
492,633,493,494,491
492,608,490,494,493
494,518,491,495,492
494,427,490,494,491
493,387,490,492,492
494,371,489,492,491
495,376,489,495,489
492,386,489,493,493
494,425,491,493,491
493,482,491,494,493
492,548,491,495,491
492,620,492,493,491
494,636,490,495,491
494,625,491,495,493
493,578,491,494,492
494,472,491,494,492
494,408,490,493,493
494,375,490,493,492
493,371,491,493,492
492,381,491,494,492
495,398,490,494,491
493,449,491,491,493
493,509,491,493,490
494,581,491,496,491
493,633,489,492,491
495,634,493,494,490
492,618,491,495,494
493,530,492,495,494
494,436,492,494,493
494,392,491,494,490
492,373,493,492,494
493,376,493,493,492
493,382,492,492,491
495,415,489,493,491
494,473,491,494,491
492,537,490,493,494
494,613,492,494,491
493,638,492,495,490
492,628,492,494,490
493,587,492,494,490
493,485,492,494,491
493,412,491,493,492
494,378,491,495,493
494,369,490,493,493
494,378,490,494,492
495,393,489,493,492
493,440,491,493,492
493,501,490,492,491
495,569,492,495,490
492,630,491,494,491
494,632,491,490,491
494,620,491,496,493
492,542,491,494,493
493,445,492,494,492
494,397,491,494,494
492,371,490,494,493
492,375,491,495,491
495,382,490,494,491
493,411,489,491,492
494,467,491,493,489
493,527,491,493,491
494,604,491,492,493
496,636,490,494,493
493,630,493,494,494
494,595,490,493,491
494,498,491,495,493
493,417,491,495,493
492,383,492,496,491
492,372,491,494,492
493,376,492,492,491
493,392,492,495,491
495,433,492,493,491
493,493,491,493,492
494,560,488,493,488
493,625,490,495,492
492,636,489,492,493
495,625,492,495,491
492,558,493,495,492
493,455,491,494,491
494,402,491,493,492
494,370,491,493,491
492,374,492,493,492
494,382,490,493,493
494,405,489,494,493
493,459,489,493,493
493,520,490,492,492
495,599,492,493,492
494,635,491,495,492
494,629,492,493,491
495,602,491,493,491
495,511,492,493,491
493,423,492,493,492
493,385,492,493,491
492,373,490,495,492
491,377,491,495,492
492,387,492,495,491
492,427,489,493,491
492,484,489,493,492
493,552,490,491,490
