Sensor0,Sensor1,Sensor2,Sensor3,Sensor4

490,492,637,491,495
493,494,627,491,492
491,494,584,1,494
626,491,494,491,491
635,492,494,491,492
4,434,489,492,491
492,495,491,493,492
492,563,490,492,491
494,626,491,494,491
491,635,492,494,491
492,623,492,494,491
1,492,495,491,493
492,492,563,490,492
491,494,626,491,494
491,491,635,492,494
491,492,623,492,494
491,492,555,491,494
492,493,450,491,494
491,492,398,491,494
491,494,368,490,493
492,493,370,490,493
493,493,380,490,493
490,492,404,491,494
492,492,460,490,493
492,493,522,491,493
490,491,603,492,494
490,493,635,491,492
491,494,631,490,492
492,492,604,492,496
492,494,506,491,494
492,493,421,491,494
492,492,384,491,494
494,493,370,491,495
492,492,376,490,493
492,493,385,492,494
491,492,428,490,493
491,492,486,490,493
490,492,552,490,492
491,493,621,490,492
491,492,637,492,493
492,493,626,492,493
491,492,568,491,494
493,493,462,491,494
493,492,403,491,494
492,492,368,491,492
492,491,371,493,493
493,493,379,490,492
491,492,399,492,492
491,492,452,491,492
491,493,512,490,492
491,494,590,492,493
490,492,635,490,494
493,494,632,491,492
492,491,615,492,496
492,492,521,491,495
493,494,430,491,494
492,493,389,491,493
491,493,369,491,495
493,492,373,491,493
492,494,383,490,492
493,493,420,490,492
492,493,480,491,492
490,492,544,491,494
491,493,616,490,493
491,492,638,492,493
491,492,627,493,493
491,492,579,493,494
493,492,475,492,493
491,492,408,491,494
492,494,372,490,491
491,493,369,489,493
493,493,378,489,494
493,492,397,490,494
490,493,444,491,493
491,492,506,490,492
492,493,581,492,492
490,492,631,491,492
492,493,633,490,492
492,495,622,492,495
491,494,533,491,494
492,493,437,492,493
492,493,393,491,495
493,492,370,491,495
492,492,372,493,493
492,494,381,492,493
490,492,413,490,493
492,492,470,491,493
491,493,532,490,492
491,494,609,490,492
493,492,637,492,493
492,492,630,491,492
491,493,585,491,495
492,492,487,491,493
491,492,412,491,494
491,492,376,492,494
491,492,369,491,494
492,493,374,491,492
492,492,392,491,492
491,494,436,491,493
491,492,497,490,493
492,493,567,490,492
490,492,627,491,494
491,491,633,490,493
492,492,624,493,494
490,492,547,492,494
492,492,445,491,494
492,492,397,492,495
492,493,367,491,495
491,492,371,490,493
492,493,380,491,493
492,492,406,491,494
492,492,462,491,492
491,493,525,491,493
490,493,603,490,492
491,493,636,491,492
491,493,630,491,492
491,493,594,491,492
492,494,501,491,494
492,492,419,490,493
492,493,381,492,493
490,494,370,491,494
492,491,376,491,494
492,491,387,491,494
491,493,430,490,492
490,492,490,491,492
492,492,558,491,491
491,493,623,491,492
491,493,635,491,493
493,493,625,494,493
491,492,562,491,494
492,493,455,491,493
492,493,402,492,494
492,492,372,492,495
491,492,370,492,493
494,493,380,491,492
490,492,400,491,494
491,492,455,490,492
491,493,516,490,492
491,493,595,489,492
493,492,636,490,494
493,493,631,490,492
491,491,609,492,492
493,494,513,492,494
492,492,424,492,493
491,492,385,493,493
490,492,370,490,493
491,492,372,491,493
492,491,384,492,494
493,494,424,490,493
492,493,483,490,493
492,492,548,490,494
490,494,618,491,493
490,491,637,490,494
493,493,627,492,492
491,493,573,493,493
492,493,468,492,494
492,493,406,491,494
492,494,370,491,493
492,493,369,492,495
493,493,380,491,494
492,491,401,491,494
491,492,448,491,493
492,492,509,491,492
492,493,585,492,493
490,493,633,491,494
492,494,632,491,492
492,494,615,490,492
492,494,527,490,493
492,492,433,492,492
491,493,391,492,492
491,492,371,490,494
492,491,375,491,494
491,491,383,492,494
491,491,416,490,492
492,492,475,491,493
492,492,538,490,491
491,494,614,490,492
492,493,637,490,493
492,493,629,490,493
491,493,584,491,494
493,493,480,492,493
493,492,411,491,494
492,492,377,493,494
491,492,369,492,493
492,493,376,491,492
492,491,394,491,491
491,493,440,491,493
492,492,502,490,492
491,493,573,490,492
492,493,632,491,494
492,492,633,490,492
492,491,623,492,495
492,494,539,491,493
492,493,441,491,493
491,492,394,492,493
490,492,369,493,494
492,491,373,491,492
492,493,382,492,494
490,494,410,489,493
492,493,467,491,492
491,493,528,490,494
491,493,606,490,492
490,491,638,492,493
492,493,631,492,492
491,493,592,493,492
492,493,495,493,494
491,493,414,492,493
492,494,381,493,494
491,495,370,491,494
492,493,374,490,494
492,492,390,490,494
491,491,435,491,494
492,492,494,491,492
492,493,561,491,492
489,492,626,491,494
492,494,634,490,492
492,494,623,490,492
492,494,554,491,493
492,492,452,491,493
492,493,399,491,492
491,493,368,490,494
492,492,372,492,494
491,492,380,493,494
490,491,404,490,493
492,493,460,491,493
491,492,520,491,494
491,494,599,490,492
491,494,636,490,493
492,493,632,490,494
493,493,602,490,492
491,494,507,492,494
492,492,420,491,494
492,493,384,493,494
491,493,370,492,492
490,493,373,491,492
492,491,386,491,494
491,493,427,491,494
491,492,485,490,492
492,493,553,490,493
492,493,622,490,494
492,491,636,490,492
492,494,628,492,494
491,494,567,490,494
492,493,463,492,493
491,492,403,491,492
491,493,368,492,492
492,491,372,492,492
492,493,378,492,493
490,492,399,490,493
493,492,453,490,493
491,492,512,491,493
491,491,590,491,494
491,493,633,490,493
491,493,632,492,494
493,492,614,492,492
492,494,521,491,493
491,493,430,491,493
492,493,389,493,493
491,492,370,491,494
492,493,372,491,492
492,492,385,492,494
491,492,422,492,493
491,492,479,491,493
492,493,543,490,491
490,492,617,491,493
491,491,636,490,493
492,494,628,490,493
492,494,579,491,494
492,493,475,492,493
491,493,408,491,493
491,493,370,491,495
492,491,371,492,493
490,492,378,492,493
490,492,395,492,492
490,492,444,490,493
491,493,505,490,492
491,491,579,491,494
492,494,632,490,493
492,492,635,491,494
491,492,620,491,495
492,494,533,491,494
492,492,438,492,493
492,493,392,492,493
491,492,370,491,493
491,493,371,491,492
492,494,382,491,494
491,494,413,489,493
490,492,470,491,492
492,493,534,490,494
491,492,613,490,494
491,492,637,492,493
493,493,628,492,492
490,492,587,490,494
493,493,487,492,494
492,492,413,491,492
491,493,376,491,492
491,493,368,490,493
491,492,377,492,494
492,493,392,492,492
491,493,439,490,493
492,493,500,491,494
491,491,569,492,493
490,491,628,491,493
493,493,634,491,492
491,491,624,492,492
492,495,547,491,493
492,494,448,492,493
492,493,397,491,493
491,492,369,491,494
492,492,370,491,493
492,492,380,492,493
491,491,407,492,492
491,492,463,491,493
491,492,523,491,494
491,494,603,491,495
491,492,636,491,494
493,493,631,491,494
493,493,598,491,494
493,492,502,491,494
492,492,416,491,492
491,492,383,492,494
492,494,368,490,492
491,493,374,491,492
491,493,385,490,491
491,493,430,490,494
491,492,490,491,492
492,493,558,492,492
490,493,625,490,494
492,492,637,492,494
491,491,626,492,495
491,495,560,490,494
492,493,458,491,494
493,493,401,491,493
493,494,368,491,492
492,494,371,490,493
493,493,379,492,493
490,492,402,490,493
492,492,456,492,493
491,492,516,490,494
491,491,596,491,494
491,492,635,491,493
490,492,631,492,494
493,492,609,493,492
491,493,516,492,494
493,493,423,491,493
492,494,387,491,492
491,494,370,491,493
493,493,373,493,492
493,492,386,491,491
490,494,422,492,493
491,492,483,490,493
491,492,549,490,492
490,492,619,488,494
493,492,636,489,493
492,492,629,492,495
492,494,573,490,493
493,494,470,491,494
492,494,407,491,494
492,493,369,491,495
493,492,372,491,493
493,494,378,492,493
491,492,398,491,493
491,493,449,491,492
491,492,508,491,492
491,492,585,490,494
491,495,633,490,493
491,492,633,490,494
493,492,618,490,494
494,493,529,491,494
493,493,432,491,493
491,493,392,492,494
491,494,369,490,493
491,492,371,492,492
491,493,382,491,491
491,493,416,490,492
492,492,474,491,492
491,493,539,491,492
490,492,614,490,494
492,492,637,491,494
492,492,630,492,494
492,492,581,490,493
494,493,482,492,494
493,493,411,491,493
492,493,372,491,492
491,494,368,490,493
493,494,377,490,493
492,494,392,492,492
491,492,442,490,492
491,493,501,491,493
492,492,574,491,494
492,492,631,492,493
491,493,634,491,492
493,492,622,489,492
491,494,541,491,494
493,493,439,491,492
492,493,394,489,493
493,495,369,490,493
493,492,370,491,492
491,492,382,490,494
491,494,408,490,493
491,492,467,490,493
492,493,528,491,492
490,492,607,492,494
492,492,637,490,492
492,494,632,493,493
490,494,591,491,493
494,493,495,491,494
492,493,415,490,493
492,492,381,491,495
492,495,367,490,494
491,493,377,490,493
492,493,386,491,492
491,493,433,491,492
491,492,495,491,492
491,493,563,492,494
491,494,626,490,494
491,493,635,491,495
492,491,625,492,494
493,492,557,491,494
492,493,453,490,493
492,493,398,491,493
491,492,370,489,493
492,493,368,490,492
492,493,378,490,492
492,494,403,490,492
492,492,459,492,493
492,493,520,490,492
490,493,600,490,494
492,492,637,492,493
491,492,632,491,493
490,493,604,493,493
492,493,509,491,494
493,493,421,491,493
492,493,386,492,493
493,495,369,490,494
494,494,376,490,493
493,492,387,490,492
491,493,425,491,494
492,492,486,491,491
491,492,552,491,493
490,492,622,492,492
490,493,636,491,492
491,491,627,492,495
492,495,568,490,494
491,493,465,491,493
492,493,403,490,494
493,493,371,490,493
493,492,372,490,493
492,493,378,492,494
491,494,399,489,492
490,492,452,491,493
491,491,512,491,492
491,493,589,491,491
490,494,634,490,494
491,492,633,490,493
493,493,614,493,493
491,493,523,491,494
493,493,431,491,494
492,492,391,493,495
492,495,368,491,494
492,493,373,492,494
492,491,384,491,492
491,494,418,490,492
492,494,479,490,492
491,493,543,492,493
489,492,617,490,494
493,493,637,490,492
491,491,629,492,494
492,491,582,493,495
492,492,478,492,493
492,492,407,490,493
491,493,372,490,494
493,492,367,490,492
492,494,376,490,493
493,494,394,489,492
493,493,445,490,493
491,492,504,491,492
492,492,579,491,492
491,494,631,492,493
490,492,633,491,492
491,494,620,492,493
491,493,536,491,494
493,493,437,491,493
492,493,395,493,494
493,494,369,490,495
493,492,373,491,494
492,491,383,491,495
490,494,410,490,494
492,492,471,491,493
492,493,533,492,492
490,492,610,492,492
492,494,636,490,492
492,494,630,493,493
490,494,587,491,493
492,493,491,492,493
492,492,413,491,494
492,491,378,492,494
493,492,370,492,494
490,491,377,490,493
493,493,389,491,492
490,492,438,490,493
491,492,497,490,492
492,493,565,489,492
492,495,628,490,493
490,492,634,491,494
493,492,625,491,492
492,494,550,492,494
492,492,447,491,494
492,492,397,492,493
491,493,371,491,495
492,493,370,490,492
492,492,382,492,493
492,494,406,490,493
492,493,461,490,493
492,493,524,490,492
490,493,602,491,495
492,491,635,490,492
492,492,631,492,493
490,492,597,493,493
492,493,502,492,494
492,493,418,492,493
491,492,383,492,492
492,495,368,492,493
490,492,375,491,494
493,492,386,490,494
493,492,431,491,493
492,493,490,491,493
492,491,556,491,493
493,493,624,490,492
491,493,633,491,493
492,494,624,490,493
492,495,562,491,494
492,492,459,492,494
492,493,402,492,493
491,493,371,491,495
492,491,371,492,495
492,492,379,492,494
491,494,401,490,493
491,491,454,491,493
492,493,516,491,492
491,493,593,491,492
491,493,634,490,493
492,494,633,490,493
493,493,608,493,493
491,492,516,491,494
492,493,425,491,494
491,491,387,492,495
491,491,371,492,493
491,493,374,492,493
492,492,384,492,493
491,493,424,491,493
492,493,482,491,493
491,493,546,490,492
493,493,618,490,494
492,493,636,492,492
492,492,627,492,492
493,495,574,494,494
491,493,470,492,494
492,492,405,491,493
493,494,371,490,495
492,492,368,490,494
493,492,378,492,493
493,494,398,490,494
492,492,448,491,493
492,493,508,490,493
492,492,584,492,492
491,494,631,492,493
492,493,634,491,494
493,494,615,492,492
491,494,527,490,494
492,493,434,490,492
491,492,393,492,494
492,494,368,489,493
491,493,373,491,494
492,491,383,491,494
493,491,416,491,494
491,493,474,491,493
492,493,537,492,493
490,494,613,490,493
491,494,635,491,492
492,493,627,490,493
492,495,583,491,493
492,493,485,493,495
493,493,410,492,494
492,494,377,492,495
494,492,370,493,495
491,492,376,492,494
491,492,393,493,493
491,493,441,491,493
491,493,500,491,494
492,492,574,490,492
491,494,630,491,493
493,493,634,490,494
494,493,624,493,493
491,494,543,492,495
494,493,441,492,493
493,492,396,492,495
492,491,371,492,494
492,492,371,492,494
493,493,381,491,493
491,493,407,491,494
493,493,466,492,494
491,494,527,491,493
493,494,606,490,493
495,494,638,492,493
491,492,632,492,495
493,495,592,492,496
493,493,497,492,495
492,493,416,492,494
492,492,380,493,494
492,493,369,492,495
493,492,374,491,493
492,493,389,493,494
493,494,434,491,493
493,493,494,491,493
492,493,562,491,494
491,494,625,491,494
491,492,636,491,494
493,493,624,493,493
491,493,556,492,494
492,493,453,491,494
492,493,401,491,495
491,494,369,491,493
491,492,371,492,494
493,493,381,491,494
493,492,405,491,494
492,493,459,490,493
492,493,518,492,494
491,491,599,490,492
493,493,636,492,492
491,493,631,492,492
492,494,603,492,493
493,495,511,492,494
492,494,423,493,494
493,493,386,493,494
492,493,372,492,495
492,492,376,492,495
491,492,386,492,494
491,493,427,491,493
492,492,485,491,493
493,493,553,491,492
491,494,621,491,493
492,493,636,490,494
493,493,627,490,493
490,493,570,492,495
493,493,463,492,494
491,493,404,492,494
491,491,372,492,495
491,491,369,492,493
491,493,378,491,494
490,493,398,491,495
492,492,452,491,493
491,493,512,491,493
492,494,589,490,493
493,494,634,490,494
492,493,633,491,492
491,491,616,492,496
493,495,522,492,495
493,493,431,493,494
492,493,389,493,494
491,493,369,491,495
492,492,375,490,493
492,493,383,493,494
491,494,421,491,493
492,493,478,491,494
492,492,542,491,495
492,494,615,491,493
491,492,638,493,494
493,493,629,492,492
491,493,581,493,493
492,493,477,492,494
492,493,409,491,494
492,492,374,491,493
492,492,370,492,493
493,493,379,491,494
493,492,397,491,496
491,492,444,491,494
491,493,504,491,493
492,494,577,492,493
490,492,632,491,494
492,494,633,490,492
492,494,619,491,493
493,495,536,491,494
493,493,440,493,494
493,493,394,492,493
492,494,368,492,495
491,492,374,494,494
490,492,381,493,494
491,492,411,490,493
492,493,470,491,493
490,493,532,491,494
492,494,610,490,492
492,493,638,491,494
493,493,630,491,495
491,493,588,492,495
492,492,490,492,494
492,493,413,492,494
491,493,379,493,494
491,492,369,493,493
491,493,375,492,493
492,492,392,490,495
491,494,436,490,494
492,493,498,490,493
492,493,567,491,493
493,493,628,491,494
492,492,636,490,492
493,495,625,493,495
491,495,548,491,494
493,493,448,492,494
492,493,398,492,493
491,493,369,493,493
493,492,373,492,493
493,494,380,492,494
490,491,406,490,493
493,493,463,491,493
492,493,524,491,494
493,491,601,490,492
492,492,638,492,493
493,493,631,490,493
492,493,597,493,493
492,493,503,492,493
492,493,417,492,493
492,493,382,492,495
492,492,369,490,493
492,493,373,492,492
493,492,389,490,495
492,492,431,491,494
492,492,489,491,494
492,494,556,489,493
489,492,624,491,494
492,491,635,491,492
493,494,625,490,492
492,495,563,492,494
493,493,460,492,494
492,493,403,491,494
492,493,369,493,496
493,492,372,493,494
491,492,380,493,493
490,492,402,493,494
493,493,454,492,492
491,493,515,492,494
491,494,593,490,492
492,494,635,490,494
493,493,634,491,494
492,492,609,491,494
491,494,516,492,494
493,492,426,492,493
492,493,388,492,494
491,491,372,492,493
490,492,374,493,493
490,492,384,491,494
493,494,422,491,492
491,492,481,491,493
491,493,546,490,492
492,493,619,490,494
492,491,637,492,492
492,494,626,492,495
492,491,574,491,494
492,493,471,492,494
492,492,407,492,493
491,493,371,494,493
491,492,371,493,495
493,494,378,491,494
490,491,397,491,493
493,492,448,491,492
492,493,509,491,493
492,492,584,490,495
492,492,631,489,493
492,493,634,491,493
493,492,618,490,493
492,493,529,492,493
491,493,433,491,492
491,492,391,490,495
492,491,371,490,493
492,493,372,493,493
490,492,383,489,494
493,492,416,491,494
492,492,473,491,493
491,493,535,490,492
490,492,614,492,493
492,492,638,491,492
492,494,627,490,492
491,494,584,491,493
493,494,484,492,494
492,492,411,491,493
493,493,375,493,493
494,492,371,492,495
491,492,378,492,493
490,491,393,493,493
490,492,438,492,493
492,493,500,492,492
491,493,572,491,494
491,495,629,490,493
493,494,635,490,493
492,493,622,491,493
493,492,542,492,493
493,493,443,491,493
491,493,393,492,494
491,491,372,491,493
490,492,371,492,493
490,492,379,491,494
493,491,407,490,491
491,492,465,491,493
491,493,526,490,492
492,494,606,490,492
492,492,637,491,493
491,493,628,491,494
492,492,596,491,492
491,494,496,492,494
492,492,416,491,493
491,493,381,493,494
491,492,369,493,493
491,492,375,490,493
491,493,385,491,495
491,491,434,490,492
491,493,493,490,491
491,493,560,490,492
491,494,625,492,493
491,492,637,491,494
492,493,623,491,492
493,492,559,491,494
492,493,454,491,493
492,492,401,491,494
491,493,368,489,493
490,492,371,491,493
492,491,377,490,492
490,493,401,489,491
491,493,458,490,492
491,492,520,491,493
489,493,599,489,492
490,493,635,491,494
491,491,632,492,494
491,491,605,492,495
491,492,510,492,494
492,492,421,491,493
492,493,385,493,493
490,493,369,491,494
492,493,372,490,492
492,493,383,489,491
491,493,425,490,492
490,491,485,490,492
491,493,551,492,491
489,491,621,489,493
492,491,637,491,494
492,491,628,492,494
492,491,568,491,493
491,492,465,491,493
491,493,403,490,493
490,491,370,492,493
491,492,369,491,491
490,493,377,490,494
492,491,400,489,492
491,493,452,491,493
491,492,510,489,492
492,492,588,489,492
493,492,634,490,493
491,491,633,492,494
491,494,611,489,494
491,492,525,492,493
492,493,428,492,494
491,492,389,491,493
491,492,370,492,493
491,493,374,492,495
491,493,382,490,493
489,491,420,492,494
491,492,476,490,493
492,492,542,490,492
491,492,616,490,490
491,492,635,491,492
491,491,628,490,492
491,491,581,493,493
491,492,478,491,493
491,492,410,492,493
491,491,373,490,493
490,492,367,490,494
491,491,378,490,493
491,493,393,489,492
492,493,443,490,492
491,492,503,490,493
491,492,575,491,492
490,492,632,491,493
492,493,633,490,495
490,492,621,493,496
491,493,537,493,495
492,492,439,492,496
492,492,394,490,497
491,494,373,492,501
491,493,372,490,500
493,493,382,489,496
493,493,413,490,492
492,491,468,491,488
493,492,531,490,486
491,493,609,491,490
489,491,636,492,490
491,493,629,491,491
490,492,589,490,494
492,492,489,492,494
492,492,414,490,493
491,493,375,490,492
491,493,368,489,493
493,493,377,490,493
492,493,389,491,492
490,492,435,491,493
493,493,498,492,491
491,491,566,491,493
491,492,629,491,492
491,493,635,491,493
491,491,624,490,501
492,494,549,491,503
493,493,449,492,502
493,493,397,491,502
494,494,370,491,504
493,493,373,492,504
493,494,381,492,502
492,495,405,491,496
491,492,462,492,492
492,492,522,491,488
491,493,602,492,490
492,492,637,492,495
492,494,631,491,492
490,492,598,490,490
493,492,503,491,493
492,493,419,490,498
493,492,385,492,503
493,494,368,491,507
493,494,377,492,507
496,494,388,493,505
494,495,429,492,510
495,495,491,492,506
494,495,555,491,498
492,492,623,489,496
494,494,637,491,491
493,492,627,492,496
493,493,567,493,495
493,493,461,492,482
491,493,401,492,485
490,492,370,490,494
493,492,369,491,497
492,493,377,491,497
493,494,400,489,494
492,493,455,492,497
491,492,514,490,495
490,492,593,490,496
491,491,635,492,495
491,491,632,492,489
490,492,611,493,494
490,491,517,491,492
493,491,425,491,499
492,493,389,492,504
493,493,368,491,501
495,492,374,491,497
494,496,385,490,492
490,498,422,491,492
492,493,482,490,488
491,492,547,492,482
489,491,618,492,482
490,493,635,490,488
491,494,628,491,495
493,495,575,490,499
493,495,473,493,504
494,495,407,492,507
494,493,373,491,507
495,494,373,492,513
494,496,377,492,516
494,493,398,491,520
495,494,449,494,511
493,494,508,493,509
491,494,581,493,489
490,494,632,494,470
491,492,634,497,482
495,494,619,496,480
492,493,531,495,487
495,494,434,495,486
494,493,393,495,485
492,492,368,492,488
491,491,373,491,483
491,492,383,490,488
489,491,413,490,488
490,492,472,489,486
490,492,535,488,487
489,490,614,488,499
494,493,638,491,506
493,492,631,492,521
496,494,588,492,521
497,495,486,493,512
497,496,411,493,490
493,493,374,493,470
494,493,369,491,475
491,493,374,490,482
490,493,389,489,484
490,493,439,490,488
491,492,501,491,498
491,492,571,489,502
491,494,630,490,505
492,492,636,492,515
493,493,623,493,510
493,492,545,493,494
493,493,443,492,504
494,494,397,492,503
494,494,368,491,479
492,494,370,490,476
493,494,381,490,491
494,492,408,492,493
491,492,465,491,493
492,493,527,492,494
490,491,608,492,487
491,492,636,492,488
491,493,629,492,486
491,492,591,492,507
494,494,499,493,521
497,496,417,492,518
498,497,382,492,500
498,496,371,490,481
492,491,376,491,471
488,492,384,490,469
488,491,431,488,473
490,491,492,491,489
490,491,559,490,495
491,493,625,489,507
494,493,638,492,525
498,496,626,491,524
496,495,561,494,516
495,495,454,493,479
491,491,399,491,460
488,489,370,491,466
488,492,369,491,476
490,493,379,491,484
489,491,402,492,496
491,492,457,492,510
495,494,518,491,513
495,493,601,493,519
496,495,637,492,517
492,494,634,492,482
489,490,605,492,477
492,491,510,496,470
494,493,424,498,477
493,493,385,498,493
493,492,369,498,509
494,492,377,494,492
492,494,383,490,493
493,493,425,488,488
491,492,484,489,487
489,491,550,490,490
493,493,620,492,493
493,492,638,494,499
493,493,627,495,507
494,494,574,495,511
497,496,467,491,511
493,493,404,489,496
491,491,368,489,464
488,491,367,489,467
490,491,377,490,486
493,493,398,492,503
492,492,452,491,507
496,494,511,491,509
495,493,590,492,493
490,492,632,492,463
490,492,631,491,481
491,493,614,494,492
492,492,524,496,484
493,492,433,498,492
492,492,391,495,497
494,493,370,493,496
493,492,375,493,503
494,494,383,492,498
492,491,417,493,489
494,493,478,498,493
492,491,540,497,484
491,493,613,496,496
493,495,639,497,507
493,494,630,494,512
493,494,581,491,490
493,493,477,484,476
491,492,408,486,487
493,492,375,490,484
492,494,369,493,495
493,493,378,494,497
493,493,393,496,491
491,493,443,494,492
492,492,502,492,496
495,494,575,490,497
491,491,631,492,478
490,491,634,486,478
489,494,622,488,488
491,492,538,491,497
493,493,441,492,513
494,495,396,494,518
498,494,370,496,509
496,494,374,496,489
494,494,381,492,488
494,494,411,492,489
492,490,467,494,479
489,488,529,494,487
489,489,607,490,491
492,491,637,491,485
490,492,628,489,481
489,496,589,488,491
491,495,494,488,508
494,495,415,490,525
497,494,381,489,512
497,494,370,489,478
495,493,377,489,489
491,491,389,488,483
487,490,435,488,486
487,491,495,490,477
489,491,563,489,481
489,491,627,491,483
491,493,633,490,487
492,493,623,490,495
492,491,554,491,495
493,494,449,492,488
493,493,399,491,493
494,492,371,493,493
493,492,371,496,491
493,494,381,494,497
490,491,404,493,492
492,492,461,492,502
493,494,522,491,506
494,495,603,488,515
496,496,636,488,503
494,495,633,490,497
494,493,597,490,472
490,490,505,493,484
491,492,420,494,490
491,491,383,495,493
491,491,369,495,505
496,492,377,495,497
495,494,386,492,477
490,493,428,489,474
490,492,487,491,479
492,492,554,491,493
496,494,623,493,497
494,492,637,495,486
491,492,625,496,491
490,491,567,498,506
492,493,461,497,497
493,493,402,496,497
494,492,368,489,482
491,492,368,487,488
494,493,380,488,499
494,492,402,489,493
493,492,453,488,490
491,492,513,488,478
488,491,593,489,485
493,493,634,491,497
493,494,632,491,509
496,496,611,494,529
498,497,520,494,490
492,492,426,494,456
490,492,387,495,485
489,490,371,494,496
495,492,376,494,502
496,493,385,492,491
491,490,421,490,477
490,493,480,489,508
491,494,546,486,522
495,497,620,489,531
497,497,637,488,496
492,494,627,487,483
491,492,579,492,482
492,490,471,491,472
489,490,406,491,472
490,491,372,492,483
492,491,370,493,489
492,493,378,490,501
495,493,396,492,502
494,492,448,490,509
493,492,507,490,485
490,492,580,489,485
492,493,632,489,491
494,492,635,491,502
493,494,621,490,501
492,494,529,491,478
492,492,435,494,485
491,490,392,496,478
491,491,370,496,487
496,493,375,497,496
495,496,381,496,514
498,495,416,490,521
496,496,474,487,517
492,495,536,486,504
489,494,612,489,498
491,493,639,491,517
493,495,630,489,504
490,490,586,492,461
489,489,484,493,472
491,491,410,494,477
493,492,378,495,494
494,496,371,498,510
497,496,379,495,504
496,493,393,491,488
491,490,439,493,480
492,491,498,491,481
489,492,566,492,468
487,489,629,493,488
492,491,633,495,477
491,495,621,497,503
494,495,545,497,514
497,496,447,490,531
497,496,398,483,513
491,493,371,491,502
494,494,374,492,486
493,491,382,494,479
491,491,409,495,496
493,493,464,493,496
490,492,525,490,494
490,492,604,489,487
489,492,634,490,476
491,493,629,488,501
493,492,596,490,503
496,495,500,490,498
495,495,416,490,511
498,497,384,492,517
498,497,373,494,526
496,496,377,492,526
490,493,389,487,505
489,492,430,488,477
490,491,491,489,473
490,491,558,488,460
489,493,624,490,490
492,494,638,490,523
497,500,628,494,543
501,500,561,494,546
501,501,461,495,515
490,492,402,495,481
485,490,371,495,485
485,489,371,492,474
489,491,377,493,481
493,491,405,491,520
500,497,459,488,520
498,498,519,489,497
494,493,598,490,456
490,493,636,491,481
488,493,633,490,507
488,491,607,495,494
489,491,512,497,478
491,491,424,496,475
491,492,383,494,486
493,491,372,494,510
494,494,375,497,517
495,495,386,490,500
494,492,425,487,464
490,492,481,488,484
492,494,549,489,495
491,493,623,493,519
495,497,640,494,536
499,502,630,497,530
501,502,576,500,526
497,497,470,498,498
491,487,402,490,418
488,485,368,495,463
493,489,370,496,487
494,492,381,496,502
495,492,400,497,494
495,493,449,495,500
496,494,512,495,499
496,494,585,494,479
496,496,634,491,498
495,496,633,487,475
491,496,616,486,523
497,499,531,488,557
500,496,436,485,510
492,491,388,486,467
489,487,369,489,432
486,488,371,491,469
486,490,381,490,487
492,492,417,492,488
492,492,476,493,495
495,494,541,494,497
496,494,616,495,505
496,495,639,494,506
496,497,629,491,509
499,496,588,489,494
497,498,481,490,486
497,496,414,490,497
495,493,378,491,514
494,493,372,490,491
498,494,378,491,518
497,493,399,492,497
492,494,442,490,474
491,494,504,488,468
488,493,575,489,467
493,492,632,491,484
494,492,635,492,466
491,494,621,492,495
499,495,541,497,521
503,497,446,496,532
498,498,397,496,544
501,497,377,495,510
496,495,372,494,451
495,490,381,490,478
498,489,412,489,472
488,490,466,491,451
488,490,527,488,466
488,491,611,489,501
493,494,638,488,496
490,494,628,487,491
493,495,590,490,497
496,494,494,491,498
491,490,414,489,484
491,493,379,492,505
492,495,371,490,503
495,492,378,490,505
490,492,391,491,489
488,492,435,491,482
492,492,494,490,485
491,493,564,492,502
492,493,626,492,494
493,494,636,495,479
494,492,624,502,482
498,494,553,509,503
501,497,454,506,527
499,497,400,502,517
494,495,373,502,505
493,493,370,496,451
489,488,376,485,472
490,487,404,480,484
487,493,460,483,506
494,496,521,485,527
503,498,605,486,529
505,497,638,489,500
496,495,629,487,455
486,490,602,489,469
486,491,505,490,479
487,490,418,489,473
489,492,383,491,474
488,491,368,490,478
489,492,376,490,489
492,494,385,489,505
493,493,431,495,513
496,494,490,493,495
492,493,554,492,448
490,490,624,491,480
492,493,635,492,485
490,494,628,489,491
492,492,566,489,496
493,494,462,489,510
494,495,404,489,512
495,495,374,491,519
497,496,373,490,511
491,493,377,491,459
489,490,401,492,485
494,491,454,492,484
493,490,512,490,470
492,491,590,492,472
489,491,635,492,477
489,493,629,491,490
492,496,610,492,510
498,498,522,493,521
496,496,429,492,508
492,492,388,488,460
488,490,368,487,466
487,489,373,489,487
490,491,384,491,495
491,491,422,491,480
491,493,478,490,481
495,493,545,491,511
498,494,621,492,522
499,497,638,490,514
495,496,630,490,499
493,495,580,495,485
494,491,474,493,481
489,492,407,492,494
489,492,373,494,492
489,491,367,492,469
490,492,376,491,483
490,490,397,490,494
492,493,445,491,495
495,495,507,492,508
495,493,580,488,492
491,492,631,488,477
492,491,633,489,474
489,493,616,492,481
490,492,534,497,492
493,494,436,499,512
497,495,393,500,517
494,493,372,498,516
493,493,371,495,489
486,489,378,487,459
486,488,413,485,473
492,493,469,487,469
492,494,534,492,483
493,492,613,493,508
493,494,635,492,493
494,493,629,490,484
495,494,585,492,474
490,491,484,490,495
491,493,412,489,510
492,494,379,490,509
493,494,369,488,479
493,493,375,491,455
497,492,391,491,495
499,491,441,494,529
499,494,501,493,513
491,493,569,490,484
490,493,628,490,482
486,489,634,490,456
487,490,618,487,476
491,493,544,486,492
492,495,446,489,510
494,495,398,491,511
495,496,371,490,501
490,494,372,488,482
487,489,379,490,475
490,489,407,491,483
493,491,462,489,479
493,493,523,490,480
493,494,608,496,510
493,495,637,497,519
496,496,632,495,507
490,491,596,493,465
487,488,496,494,468
491,489,414,490,473
492,490,380,485,487
489,491,367,488,481
491,494,373,490,493
491,493,385,491,490
492,491,432,491,477
490,492,491,491,488
490,491,558,490,480
492,492,624,490,483
491,491,636,495,483
490,491,623,495,488
493,491,561,500,495
494,494,457,502,499
493,492,399,501,480
491,493,368,498,494
494,494,370,488,502
492,491,379,482,488
493,494,402,486,488
490,493,456,483,476
488,491,515,483,482
490,492,597,486,503
493,495,636,488,510
493,493,630,489,482
492,492,608,490,499
492,495,513,490,507
494,494,425,490,483
492,494,386,489,484
491,494,370,493,484
488,490,375,492,493
493,493,384,493,500
493,491,426,491,493
491,492,483,491,468
489,491,548,490,486
493,490,620,489,493
491,493,638,488,485
490,493,626,485,486
492,495,572,488,494
495,495,469,490,494
494,494,406,491,491
493,492,372,489,489
491,492,370,491,495
490,491,378,491,504
490,491,398,491,473
489,491,447,488,458
488,491,507,489,478
491,489,586,490,491
492,493,632,490,493
491,492,632,491,495
494,493,617,492,501
496,494,528,493,501
492,494,432,493,496
491,493,390,490,497
493,492,370,492,500
494,493,372,491,510
496,495,382,490,480
488,490,416,489,443
485,489,472,489,467
489,490,539,488,485
493,491,614,489,496
493,492,637,491,492
489,490,628,493,494
492,494,584,496,501
492,493,479,492,493
492,492,409,496,479
491,492,370,497,466
491,493,366,492,483
492,491,379,492,506
492,493,393,495,506
494,495,444,495,487
491,493,503,494,486
489,491,574,494,505
489,492,631,496,490
490,494,634,488,482
491,492,618,480,485
491,492,541,487,477
489,492,439,490,477
491,492,393,491,485
493,495,369,495,487
491,492,372,491,487
493,494,378,488,482
489,490,410,489,485
490,491,466,488,487
491,492,527,489,500
494,493,609,490,506
494,493,635,492,492
491,491,629,492,478
491,494,589,491,486
492,494,493,489,508
493,494,417,493,511
493,493,380,494,485
493,493,367,493,481
493,493,377,493,494
492,492,389,490,484
487,493,433,486,502
490,492,496,484,512
489,491,561,485,491
489,490,628,489,500
494,494,636,490,499
495,494,624,489,478
493,494,554,490,472
491,493,451,490,500
493,492,399,490,498
491,495,371,492,475
488,492,368,491,469
491,491,377,491,475
491,490,406,491,471
488,491,456,490,479
491,491,520,490,487
491,491,601,489,487
492,491,635,491,484
491,491,631,492,487
492,494,600,493,491
491,492,504,491,490
492,492,420,492,491
490,493,382,492,489
490,492,367,489,488
492,493,373,490,495
491,492,387,493,499
493,493,428,491,512
493,493,488,491,503
492,492,554,490,499
495,492,622,490,473
496,493,636,489,488
494,492,625,491,504
492,493,568,490,480
490,493,460,491,483
490,492,402,490,495
492,494,368,491,496
492,492,371,493,499
494,494,377,492,495
492,493,403,492,487
489,491,452,490,480
488,489,511,493,477
488,492,590,494,471
488,491,632,495,477
491,491,632,493,480
492,493,611,491,494
491,494,520,489,482
491,492,427,484,483
492,493,388,486,480
488,492,369,488,491
491,493,373,489,488
491,491,385,492,492
490,489,420,491,492
491,492,479,490,494
491,492,545,490,504
491,494,620,489,519
496,496,640,489,526
498,496,630,490,487
495,494,579,490,481
492,494,474,491,491
490,493,408,491,483
490,492,371,491,486
488,492,369,492,474
489,490,375,492,470
491,491,392,490,476
490,491,444,489,483
490,491,506,490,496
491,492,580,492,499
493,493,633,493,500
491,491,633,493,477
490,491,620,492,480
492,495,532,492,487
492,493,434,490,484
491,492,391,489,488
490,491,369,489,492
490,493,370,488,497
493,493,384,490,510
496,496,414,489,521
493,492,471,488,493
491,492,533,489,466
488,489,609,489,461
488,490,635,490,479
491,492,629,494,488
490,493,587,491,501
493,495,488,491,509
494,495,412,490,514
495,496,376,490,500
496,495,371,491,504
492,493,377,491,480
488,492,391,490,479
488,490,438,493,482
490,490,497,493,466
488,490,565,492,465
488,493,627,489,475
489,492,632,488,488
491,491,623,488,491
492,495,546,490,492
492,492,446,490,488
492,492,396,494,487
491,491,371,495,490
494,493,369,495,481
493,493,382,496,496
490,492,409,493,501
489,493,463,489,508
492,495,525,484,523
494,496,605,486,519
495,494,635,487,472
490,492,630,488,475
492,493,596,490,487
495,493,500,492,488
491,492,418,491,484
488,493,379,489,488
490,492,369,490,500
492,493,376,490,496
493,494,385,491,488
491,493,430,490,490
490,493,491,491,499
491,492,559,492,500
494,495,625,489,470
489,490,635,488,479
490,490,625,489,484
490,493,560,490,484
492,493,458,491,488
494,494,401,490,494
490,491,370,492,486
489,491,368,490,480
488,492,379,491,484
490,494,400,489,484
490,491,456,491,490
492,493,516,490,494
492,492,596,490,496
492,492,635,491,489
492,494,631,491,491
490,492,606,489,492
494,493,514,493,506
494,494,428,495,520
496,495,388,494,524
496,497,370,491,492
492,492,373,490,441
488,489,383,489,469
487,492,424,487,475
491,493,483,489,474
490,491,548,489,493
489,491,619,489,493
491,492,637,492,488
491,491,627,492,485
490,493,572,492,486
491,493,469,491,489
491,493,404,489,490
492,492,373,488,490
493,492,369,490,491
492,492,380,490,514
496,493,403,491,523
493,493,450,491,525
493,493,507,489,471
490,492,583,491,469
490,492,632,489,464
487,493,632,488,483
488,493,615,490,486
491,493,528,492,485
491,493,434,492,483
491,492,391,491,491
491,493,367,490,495
491,493,374,492,498
491,492,383,493,501
491,492,415,491,479
492,492,474,491,483
493,492,539,492,496
495,494,614,489,512
496,495,639,492,514
500,495,631,491,491
496,494,581,488,455
490,491,481,490,479
489,491,409,490,498
489,491,375,492,490
487,492,368,491,490
491,493,375,490,504
495,493,391,490,502
495,492,443,490,488
494,492,501,489,481
493,491,574,489,493
495,491,631,492,478
496,490,634,494,485
499,494,621,496,490
496,492,540,495,483
499,493,442,494,488
494,493,395,493,488
484,495,368,491,488
487,492,372,488,490
488,493,381,487,490
485,491,407,488,489
490,492,467,489,492
491,492,529,490,494
489,491,609,489,489
491,493,637,491,489
489,492,631,490,486
490,493,590,490,486
490,494,495,491,490
488,493,415,490,489
488,492,380,491,489
491,494,369,491,493
489,493,376,490,488
491,492,389,490,496
490,492,435,490,495
489,492,494,491,493
489,492,560,489,478
489,492,625,491,487
491,491,635,490,481
494,494,623,489,488
495,495,556,490,492
494,493,451,491,491
493,492,399,491,491
494,493,368,491,491
492,492,372,493,492
491,492,380,491,492
488,492,404,491,491
492,492,459,489,492
491,493,520,490,496
494,492,599,489,496
500,493,636,490,489
498,492,633,491,487
497,491,599,492,489
500,493,509,492,493
497,493,420,491,491
490,492,383,492,488
479,492,369,491,489
482,493,373,491,490
487,493,383,491,492
489,491,427,490,487
489,491,487,490,489
492,492,553,489,493
492,492,623,490,498
492,491,637,491,494
492,493,625,489,509
494,493,571,491,507
498,495,462,491,499
496,494,403,490,491
496,495,369,491,489
495,494,370,492,482
492,492,378,490,475
491,490,398,491,479
493,491,452,490,488
495,492,513,490,486
494,491,590,492,486
487,492,633,491,495
484,493,634,490,502
489,494,610,490,500
494,495,521,491,506
496,493,430,491,489
495,492,389,491,489
493,491,370,492,492
487,491,375,491,470
488,492,382,492,484
488,491,420,492,489
486,492,478,491,490
485,492,542,490,490
491,493,616,491,490
496,492,638,493,493
501,494,628,491,496
502,496,580,492,496
502,495,477,493,497
497,494,408,492,496
490,493,372,491,491
496,492,371,492,496
508,493,378,493,500
516,495,397,494,501
523,496,448,494,508
523,497,508,494,504
502,495,582,492,492
505,494,631,491,479
498,492,635,491,491
489,491,621,490,484
474,491,531,489,482
461,492,435,489,484
471,492,391,489,481
476,490,369,491,484
480,491,371,490,487
483,493,380,489,491
490,491,413,488,489
494,493,472,490,491
497,493,533,490,491
502,493,612,490,492
503,493,639,492,493
502,494,628,491,491
500,492,591,492,492
496,495,488,491,493
492,493,411,490,491
482,494,376,490,489
482,494,368,491,494
487,492,375,490,491
484,492,391,493,490
489,492,438,491,492
490,492,499,491,493
491,493,569,492,493
489,492,630,492,492
498,493,636,492,492
498,494,625,492,494
502,494,546,493,494
501,494,448,492,494
487,494,397,490,491
482,491,371,492,490
482,493,372,489,487
484,492,379,490,491
487,491,408,490,493
493,493,464,490,493
500,492,524,491,488
507,493,604,494,490
509,492,638,493,493
513,494,630,491,495
503,495,596,492,495
498,495,503,491,494
486,493,419,492,494
496,493,383,492,493
493,493,371,492,497
500,493,376,493,497
496,493,387,494,496
484,493,432,492,493
485,493,489,490,492
488,493,556,490,492
489,491,626,490,488
483,492,635,489,483
481,492,626,489,484
484,493,563,491,488
488,493,457,491,492
493,494,401,490,494
493,491,371,492,500
485,491,370,491,499
483,493,379,491,489
490,491,402,490,486
489,493,454,490,488
493,492,515,490,489
496,494,595,490,494
500,494,637,493,500
512,495,632,494,500
517,494,612,495,502
507,497,516,494,499
509,495,426,495,496
520,493,388,492,489
496,492,369,489,485
478,492,373,491,489
476,491,383,490,488
490,492,425,491,489
489,492,481,489,490
482,492,548,489,491
479,492,621,490,493
487,494,635,490,493
488,493,627,490,492
486,493,574,492,490
488,493,469,491,489
489,492,406,490,490
490,494,373,491,493
491,493,368,489,492
491,493,378,491,493
493,492,399,490,494
493,492,448,490,492
492,492,509,490,491
492,494,582,492,492
492,492,634,490,493
494,493,631,490,492
493,494,614,491,492
494,495,529,491,493
494,494,436,492,492
493,493,390,492,494
496,493,371,492,492
493,494,374,492,494
492,492,383,492,493
492,492,416,491,492
492,492,473,490,492
493,492,537,490,492
493,492,617,490,491
493,493,636,490,493
494,493,629,490,493
494,494,585,491,493
493,493,483,492,494
494,493,410,492,492
492,492,375,492,495
492,491,368,494,493
492,492,376,495,491
492,492,393,496,494
492,493,439,495,493
493,492,501,494,492
492,493,571,491,492
493,494,629,490,493
494,493,635,485,494
493,492,618,486,492
492,492,542,490,494
493,494,441,492,494
492,493,394,492,494
492,492,370,494,493
493,493,371,492,494
494,491,381,490,492
492,494,412,489,493
492,492,465,488,493
492,493,526,487,493
494,494,607,489,492
492,493,636,495,492
493,491,631,495,492
493,494,592,496,496
493,492,495,495,495
494,493,416,494,495
493,492,380,493,493
494,494,368,490,493
492,492,377,490,494
492,493,385,491,492
492,493,433,491,493
493,493,494,490,493
492,493,562,488,492
491,492,626,487,494
493,492,635,487,493
493,492,624,490,496
493,492,557,490,496
494,493,454,490,495
493,493,400,491,495
492,493,368,490,495
493,492,373,489,493
493,493,379,489,493
493,494,403,489,493
493,493,459,491,494
492,491,519,490,494
494,493,599,491,492
494,492,637,491,495
492,491,632,490,494
492,492,605,491,495
494,494,509,490,495
493,493,420,489,494
494,493,384,491,493
491,492,368,490,493
493,494,373,489,492
493,493,385,489,493
493,492,428,493,494
493,493,486,492,493
492,493,553,492,495
493,492,623,492,495
492,492,637,493,495
492,492,627,489,494
494,495,569,491,496
494,495,464,490,495
493,493,403,491,494
493,494,368,490,493
493,495,370,490,494
492,492,380,492,495
494,494,400,491,494
492,493,453,490,493
492,492,512,490,494
493,492,590,490,495
494,493,633,491,494
493,492,634,492,496
494,495,612,490,496
493,493,524,492,496
494,493,429,491,496
493,493,390,492,495
492,492,373,490,494
492,492,372,491,494
492,492,385,491,495
492,494,419,490,494
492,493,477,490,494
492,494,543,490,494
490,492,617,493,495
492,493,638,491,494
493,494,630,493,495
491,491,581,493,497
493,493,477,492,496
495,493,409,490,495
494,493,371,492,495
495,493,371,491,494
493,494,377,490,494
493,494,393,489,494
494,493,445,490,495
493,493,505,490,495
493,492,578,490,493
491,492,634,491,496
492,492,635,492,496
491,491,621,491,496
493,492,537,492,496
493,493,436,492,496
494,493,393,490,495
494,495,371,492,494
490,493,371,492,494
493,493,380,491,493
491,494,414,490,495
490,493,468,490,495
492,492,534,491,494
493,493,611,489,495
494,492,638,491,496
493,492,631,492,494
493,495,587,493,497
493,494,488,492,496
494,493,413,492,495
492,493,376,493,496
492,494,368,491,495
494,493,378,491,496
492,494,388,488,496
491,492,438,489,494
492,493,498,490,495
492,492,567,491,495
493,493,629,493,496
493,492,635,492,495
493,491,624,492,497
493,495,548,491,497
493,493,447,489,497
493,492,397,489,496
492,492,372,491,495
493,493,372,491,495
492,493,381,490,497
493,494,405,490,495
492,493,461,490,495
492,493,522,489,495
493,492,604,492,495
493,492,637,491,495
493,495,631,491,496
491,491,600,493,498
492,493,502,492,498
493,493,419,491,496
494,494,381,493,496
492,493,370,492,498
493,495,374,491,495
493,494,386,490,495
494,494,430,490,495
493,494,490,491,495
491,492,556,490,496
493,493,624,489,494
492,492,638,492,496
491,492,626,492,498
492,492,566,492,497
493,495,458,491,496
492,492,401,492,496
494,493,370,493,495
492,492,370,492,495
491,493,377,491,495
493,494,400,492,496
492,492,455,490,495
492,492,517,491,495
493,494,597,490,495
492,492,636,490,497
492,492,633,490,497
493,495,608,490,497
491,493,517,492,496
494,493,425,492,496
491,493,387,494,496
491,493,369,493,495
492,494,374,491,494
492,492,386,495,496
493,493,423,492,495
492,492,483,491,495
492,493,548,492,496
493,492,619,491,497
493,492,637,489,494
492,495,628,490,497
492,495,574,488,496
492,494,471,491,496
493,492,406,491,496
493,492,371,492,496
494,493,371,491,495
491,493,376,491,497
492,492,396,490,495
492,494,448,493,495
491,493,508,492,496
491,494,584,492,494
491,492,635,491,497
494,494,633,489,497
493,493,620,492,497
493,493,529,491,498
493,494,435,491,497
492,494,391,491,497
494,493,368,490,496
493,493,373,492,496
493,493,383,490,496
492,493,416,490,496
491,493,473,490,496
490,493,537,490,496
489,492,615,489,495
493,494,637,491,495
491,494,628,491,495
491,494,583,492,496
494,494,486,491,497
493,494,411,490,496
492,493,376,492,495
494,493,371,491,497
493,492,378,491,497
492,491,394,491,494
492,494,439,491,496
492,493,500,490,495
493,493,572,491,494
489,494,630,490,494
492,494,634,490,495
493,494,622,490,495
492,492,544,493,497
493,494,444,492,497
492,493,396,492,498
493,492,372,492,498
492,492,372,493,497
491,492,381,490,496
494,493,408,491,495
492,493,465,490,495
491,493,528,490,495
492,494,607,490,495
493,493,637,490,496
491,494,630,491,497
492,492,591,492,496
492,493,496,491,497
492,493,417,491,496
491,492,381,492,497
492,495,369,489,496
491,493,375,491,497
492,492,389,490,495
493,494,434,490,495
491,492,495,490,495
492,493,562,489,495
493,494,627,491,495
492,492,637,492,497
493,494,624,489,497
492,492,559,492,497
492,493,454,492,497
492,492,399,491,497
493,492,371,492,495
492,494,372,492,497
492,494,379,490,496
494,494,404,490,496
493,493,458,490,497
490,493,518,490,495
492,492,602,491,494
492,493,634,491,495
492,493,631,492,495
492,493,604,493,496
490,493,509,492,497
493,493,421,492,496
492,492,386,493,498
493,495,369,490,496
494,493,376,490,496
494,492,386,489,497
493,491,426,490,495
490,493,485,490,496
490,492,551,489,495
493,492,622,492,495
491,493,636,490,495
492,494,625,489,495
493,492,573,493,498
494,494,464,492,497
493,492,403,490,496
495,493,372,490,497
495,492,372,492,498
493,492,379,490,496
492,495,400,493,495
490,492,451,491,495
491,493,511,492,495
491,494,588,491,495
491,493,633,490,496
491,492,633,491,496
493,493,615,492,496
491,493,523,490,496
494,493,430,490,496
492,492,391,492,498
492,491,372,491,497
491,494,373,490,496
491,492,383,492,497
494,492,420,490,495
492,494,478,491,495
490,492,541,490,494
490,494,614,491,494
490,493,639,490,496
492,493,627,490,495
492,492,582,492,497
492,493,478,492,497
492,492,409,491,496
493,492,373,490,495
491,494,368,492,497
492,492,375,490,495
492,494,394,489,495
492,493,444,490,495
491,492,504,491,495
491,491,580,490,496
490,494,630,490,496
491,492,634,492,495
491,493,620,493,495
491,493,536,492,496
491,492,438,490,496
493,492,394,490,494
491,491,371,490,496
493,494,372,489,495
492,493,382,490,495
493,492,412,489,496
491,492,468,490,495
492,492,532,489,494
491,493,612,491,496
491,492,636,491,494
491,493,628,491,494
490,493,590,491,498
493,494,490,491,496
492,492,413,492,496
493,493,376,490,495
494,493,370,491,497
492,491,377,492,495
492,494,386,492,496
490,492,436,490,495
492,491,496,491,495
491,493,564,490,493
490,493,627,490,494
492,493,634,489,495
490,492,623,491,495
494,494,551,491,496
492,492,447,491,496
493,492,398,491,496
492,491,372,491,496
491,491,370,489,494
493,492,380,491,494
492,492,406,490,494
491,492,461,490,495
491,493,522,490,494
491,493,601,489,496
491,492,636,490,496
492,492,629,491,494
492,491,599,492,498
493,492,504,492,498
493,494,419,492,496
492,493,382,492,496
491,492,368,493,496
490,492,376,490,495
492,493,385,489,494
492,493,430,490,495
491,493,490,489,495
491,492,555,489,493
491,492,626,490,496
492,493,635,489,496
491,493,625,491,496
491,493,565,492,496
492,492,460,491,496
492,493,402,490,494
492,494,372,491,497
491,494,369,490,495
492,493,379,490,495
493,492,402,489,496
492,492,452,491,495
492,492,516,491,494
491,493,593,491,496
491,492,633,491,494
491,493,632,490,494
491,494,608,492,497
492,492,515,491,496
492,493,428,492,496
492,492,386,491,497
494,493,371,491,497
493,492,376,491,496
491,491,384,491,494
492,493,421,490,495
491,492,481,490,495
492,492,545,490,493
491,493,618,490,495
492,494,636,490,495
492,492,627,491,495
493,493,577,491,495
491,493,470,491,496
492,492,407,491,496
492,491,374,492,497
492,491,371,490,496
494,493,376,491,494
491,492,398,490,496
491,493,446,490,495
492,492,507,489,494
492,493,583,489,494
490,491,631,491,496
492,492,634,490,494
492,494,619,492,498
491,492,530,492,496
492,493,436,491,496
490,492,392,492,495
491,493,371,491,497
494,494,372,490,496
493,491,383,489,495
496,493,416,489,495
493,492,474,490,495
490,492,537,490,494
490,494,615,491,496
490,493,637,490,496
489,492,627,491,494
490,493,584,492,495
491,493,484,492,496
492,492,411,491,495
493,494,375,491,496
491,492,369,490,496
493,492,377,490,496
493,491,393,490,496
491,491,438,490,494
491,492,501,490,495
492,493,572,489,494
490,492,628,490,494
492,494,633,489,494
492,494,622,489,495
492,494,544,492,496
492,493,444,491,496
493,493,395,492,495
493,492,371,491,497
491,492,372,491,496
491,493,381,490,495
494,493,408,489,494
491,492,466,490,494
491,492,526,489,494
492,493,606,490,494
492,493,637,490,495
492,492,629,491,494
491,492,594,491,497
492,494,496,491,496
492,492,415,490,496
492,493,380,492,496
491,491,370,492,496
492,491,375,491,494
492,493,390,491,496
491,493,432,490,495
492,492,493,490,494
491,493,561,489,495
492,493,626,491,496
491,493,634,490,496
491,492,625,489,495
493,494,556,492,496
492,493,453,491,496
492,493,400,491,495
491,494,371,491,497
492,495,371,489,496
490,493,379,491,495
493,492,404,490,496
492,492,458,489,495
491,492,519,491,494
491,493,597,491,496
491,493,636,490,496
492,494,630,491,495
492,494,601,490,495
492,495,510,491,495
491,493,422,491,496
492,493,385,490,495
490,492,370,490,496
492,491,375,491,497
491,492,385,491,496
491,492,427,491,495
490,492,484,490,494
492,493,550,490,493
492,492,623,491,494
491,494,635,489,495
493,494,626,489,495
493,495,571,490,495
491,493,464,491,496
492,493,403,491,495
491,492,371,492,498
491,492,369,492,495
492,494,378,491,493
491,491,400,490,496
492,493,450,490,495
491,492,513,490,495
492,493,588,489,495
493,493,634,490,496
492,492,634,490,494
491,494,615,492,497
491,495,523,490,495
490,492,428,492,496
491,492,388,491,495
491,493,369,490,494
492,494,373,490,496
492,491,384,489,494
492,494,420,491,495
491,492,478,490,495
492,492,542,490,495
492,492,618,491,495
490,493,636,490,495
491,493,627,492,496
493,493,581,492,495
492,494,476,492,498
493,494,408,490,495
492,494,373,492,497
491,493,370,490,497
493,494,376,490,494
491,491,396,491,496
490,491,444,490,495
491,493,505,490,495
491,493,577,489,495
490,492,630,491,495
492,492,633,489,494
492,492,619,490,495
493,494,536,491,496
492,494,439,491,494
491,493,393,492,495
493,493,370,489,494
491,494,371,492,496
490,491,381,491,496
491,492,412,491,495
491,492,469,491,495
491,492,530,490,494
491,492,612,491,496
492,493,636,490,496
493,492,630,490,496
493,494,589,490,496
491,493,489,492,496
492,493,413,491,495
493,495,377,493,496
491,492,368,492,495
492,493,375,491,494
491,493,392,490,496
491,494,435,490,495
491,492,498,491,494
491,492,566,489,495
492,492,628,490,496
492,492,636,491,495
491,492,624,490,494
492,495,550,492,496
493,494,447,491,495
492,492,396,491,495
491,493,368,491,494
492,494,371,489,494
491,492,381,492,495
493,494,405,492,494
491,492,462,490,495
491,492,522,490,495
491,491,604,490,496
491,492,636,490,495
492,493,629,491,494
493,492,600,490,494
492,494,502,491,496
492,493,418,490,495
492,494,383,490,496
490,492,369,491,496
491,492,374,491,494
491,492,389,492,496
490,492,430,492,495
491,492,489,490,495
491,493,555,490,493
493,492,624,490,494
492,493,635,491,495
491,491,625,489,494
493,494,564,490,496
493,494,459,491,495
492,493,401,491,494
491,491,371,490,496
492,494,370,489,495
490,492,378,492,495
490,492,400,491,494
491,493,454,490,494
491,492,515,490,494
492,494,596,490,495
491,493,635,490,495
492,492,633,490,496
493,492,610,490,497
493,494,516,491,496
492,493,427,492,495
493,494,387,492,494
491,492,369,491,494
491,494,372,491,495
492,494,383,489,493
492,494,423,491,495
490,493,481,490,494
491,493,547,490,495
491,491,620,491,496
491,492,636,491,495
491,492,628,491,495
493,494,576,493,495
492,493,471,490,495
492,493,406,491,495
491,494,369,490,494
491,494,369,489,494
493,492,378,491,494
492,492,398,489,494
491,493,447,490,495
491,493,508,491,495
490,492,582,491,495
490,492,631,490,495
492,492,632,490,494
492,491,620,491,497
492,495,529,491,495
492,493,435,491,495
492,493,391,490,496
494,494,371,491,494
492,494,371,492,496
491,492,382,489,493
492,492,415,492,494
492,492,473,491,495
491,492,535,490,493
490,491,615,491,495
492,493,636,490,495
490,493,629,491,495
493,493,585,491,496
493,493,483,492,495
492,493,412,491,494
491,494,376,490,497
491,494,367,488,494
490,492,376,491,494
491,492,390,491,493
490,493,439,490,494
492,493,502,490,494
491,493,570,491,494
490,492,631,490,494
492,492,635,491,496
491,491,622,491,496
492,492,544,492,496
492,494,443,491,495
492,493,394,491,496
494,493,370,492,494
492,494,369,490,494
493,494,379,489,495
493,494,408,491,494
491,492,464,490,494
492,493,526,489,493
491,492,609,491,496
490,492,636,491,495
491,492,629,491,493
493,494,594,490,495
491,493,496,490,496
492,493,415,491,494
490,494,379,490,494
491,495,369,490,495
492,493,375,491,493
490,492,389,490,496
492,494,432,490,495
492,492,494,491,494
490,492,561,491,494
491,492,625,490,494
491,494,635,491,495
492,491,623,490,494
492,492,558,492,496
493,494,453,492,495
492,493,399,491,496
493,492,370,490,496
492,495,370,490,496
491,492,378,490,494
493,493,403,491,493
490,492,457,491,494
491,492,517,490,494
492,494,601,491,495
491,493,635,490,495
491,493,630,491,496
492,492,606,491,497
492,492,510,491,496
493,493,421,490,494
492,494,385,492,495
490,491,369,490,495
493,494,373,491,493
491,493,384,490,493
491,494,425,490,494
491,493,485,490,493
491,493,552,491,495
492,492,622,491,494
491,494,638,492,495
490,492,628,492,496
491,492,572,494,496
492,493,466,493,496
492,493,404,492,495
492,492,372,492,493
492,494,370,491,495
493,493,378,490,495
493,493,399,487,493
491,493,450,489,494
491,492,510,489,494
492,492,590,491,494
491,492,633,492,494
491,493,631,491,494
492,491,617,491,496
492,494,523,491,496
493,492,429,491,494
492,493,390,491,495
493,493,370,490,496
492,491,374,490,496
492,491,382,489,493
491,491,419,491,495
492,493,477,490,494
491,492,541,491,493
489,492,615,490,494
492,494,637,489,495
490,492,630,490,495
493,493,581,492,495
492,493,478,491,495
493,493,410,491,496
492,492,375,492,497
492,495,369,491,495
491,493,376,492,496
492,491,395,490,493
491,494,443,490,494
491,492,503,490,494
492,493,576,491,494
490,492,633,491,495
492,494,633,490,494
492,492,623,492,497
492,492,538,492,496
492,492,438,491,495
491,492,393,491,495
493,493,370,492,494
490,493,372,491,495
492,494,380,490,493
492,494,411,490,494
492,493,467,490,494
492,492,531,491,493
492,492,611,490,494
492,494,636,491,495
490,492,630,492,495
490,492,590,493,495
492,493,491,491,496
492,493,414,492,495
492,492,379,492,497
492,493,369,490,495
493,494,377,491,495
492,492,389,490,496
491,493,436,491,495
491,492,497,491,494
491,493,566,492,494
490,492,629,491,494
490,493,634,490,494
492,493,622,489,494
492,492,552,492,496
492,493,448,490,496
491,492,397,490,495
493,493,370,490,495
491,491,372,491,496
491,491,379,490,493
491,494,407,492,494
491,492,460,490,494
494,492,522,491,493
492,492,602,490,494
489,493,634,489,494
490,492,631,491,495
493,493,599,492,495
491,493,503,491,496
492,493,420,491,495
492,492,384,492,497
491,491,368,490,495
493,493,375,491,494
492,492,387,490,493
491,493,428,490,493
490,493,490,491,494
490,493,554,489,494
493,494,623,491,493
490,493,638,492,496
491,493,623,489,493
492,492,567,492,496
491,493,460,492,495
491,492,402,491,494
493,493,371,490,493
491,494,369,491,496
491,491,377,489,494
492,494,401,489,494
492,493,454,490,494
491,493,514,490,493
491,492,596,491,495
491,493,633,489,495
491,492,632,492,494
490,493,610,493,494
491,493,516,491,495
494,493,428,491,494
492,493,388,493,496
491,495,369,490,496
494,493,375,491,495
493,491,385,490,495
492,491,423,490,495
491,493,481,490,494
491,492,546,489,494
492,493,618,491,493
491,494,636,490,493
492,494,626,489,493
492,495,578,493,495
492,493,471,491,495
492,492,406,491,495
493,492,373,490,495
492,491,371,492,495
490,491,377,491,494
493,494,396,492,494
490,492,447,490,494
491,493,506,490,493
491,494,582,489,493
491,494,632,490,494
492,493,633,491,493
492,492,620,490,494
490,494,528,492,496
492,493,435,491,495
492,492,392,492,495
491,491,371,492,494
492,493,374,491,495
492,494,381,490,493
491,491,416,491,493
492,493,473,490,494
492,493,537,490,494
492,492,613,490,493
492,494,636,492,495
491,491,628,490,495
493,492,586,493,495
492,493,485,492,495
492,492,411,491,495
491,492,376,491,496
491,494,368,490,495
491,491,376,489,495
492,493,392,490,495
493,492,441,490,494
492,492,500,491,494
491,494,573,492,495
491,494,630,490,494
491,493,633,491,493
492,494,621,492,493
491,494,543,491,495
492,493,444,491,496
492,493,397,490,495
493,494,369,493,494
491,492,373,491,496
492,492,383,491,495
490,491,410,491,494
490,493,464,490,494
491,492,526,490,495
493,491,608,490,493
493,494,636,490,494
493,494,631,490,495
493,494,594,492,494
492,493,498,491,495
492,492,415,491,494
492,492,382,491,496
492,492,370,492,494
491,492,376,492,494
492,492,388,489,493
491,494,432,490,494
491,492,493,491,493
492,493,560,489,493
492,494,626,490,495
492,492,637,491,495
492,494,622,490,493
492,491,560,492,495
493,493,453,491,495
492,492,399,491,494
491,493,369,492,494
492,494,369,492,496
492,492,379,490,493
493,491,404,492,493
492,493,458,490,494
492,493,519,490,495
491,491,600,491,495
491,493,634,490,493
491,493,631,491,495
492,492,601,491,494
491,494,509,491,494
492,493,422,490,494
492,493,385,492,495
491,494,370,490,494
491,494,373,491,495
491,491,386,491,496
491,492,427,491,494
491,492,485,491,494
490,492,549,489,494
493,493,621,491,493
491,491,637,492,494
492,494,626,489,494
493,494,571,490,495
493,493,465,491,495
491,492,403,491,495
492,492,373,491,494
492,494,369,492,494
491,493,377,492,493
490,493,398,491,493
490,493,452,490,494
491,493,512,490,493
490,492,590,492,494
493,493,635,490,495
492,492,635,491,495
491,491,617,492,493
492,494,522,492,495
493,493,430,491,493
491,492,388,492,493
491,492,369,491,492
491,494,373,491,493
491,493,383,489,493
490,491,420,491,493
492,493,478,490,494
490,492,543,491,495
492,492,617,491,494
491,492,637,492,493
490,492,628,490,495
494,493,580,491,494
492,493,477,491,495
492,493,408,490,494
493,494,373,490,494
493,493,370,491,494
492,493,376,491,495
492,491,393,490,493
491,492,445,491,495
491,492,505,491,494
490,493,576,491,493
490,492,633,491,495
492,494,634,490,494
490,492,621,490,494
494,494,536,491,495
493,493,438,491,494
492,492,395,490,495
493,492,368,492,494
491,492,374,492,494
491,493,381,490,494
489,492,411,491,493
490,492,470,490,493
490,492,531,490,495
491,491,611,489,493
493,493,637,491,494
491,492,631,490,495
494,492,590,490,496
494,493,492,491,496
493,493,411,491,495
492,493,378,493,494
494,493,370,492,494
492,493,373,490,494
492,493,388,489,492
491,493,437,491,494
491,492,497,489,493
492,492,566,491,493
492,492,630,491,495
492,492,636,491,495
491,492,624,492,495
490,492,551,492,494
493,493,448,490,494
491,493,398,491,495
492,493,367,490,493
492,494,371,489,494
492,493,381,490,494
493,492,405,491,493
492,492,462,490,493
491,493,522,491,494
491,491,604,492,495
491,493,636,491,492
491,493,630,491,495
492,491,597,489,493
492,493,505,491,495
492,493,419,490,494
493,493,383,490,495
494,493,371,491,495
492,494,373,490,495
491,492,386,489,493
493,493,430,491,494
491,491,489,490,493
491,493,555,489,492
491,494,623,490,493
492,492,636,491,493
494,492,627,490,493
491,493,563,491,496
493,492,459,491,494
493,492,404,491,495
491,491,372,489,493
493,493,369,491,493
491,492,380,491,494
491,493,398,489,493
492,493,454,490,493
491,492,515,490,493
489,492,593,491,494
493,492,636,490,493
492,494,634,492,495
490,492,611,493,495
491,493,518,491,494
492,493,428,490,495
492,493,386,490,493
492,492,373,492,494
493,493,374,490,495
493,492,384,489,494
493,492,424,490,494
491,492,481,490,493
491,494,547,491,494
490,495,618,490,494
490,493,636,490,493
492,494,626,490,492
492,495,577,490,494
492,492,473,491,495
492,494,406,491,493
491,492,372,490,494
493,491,370,490,495
492,492,379,491,494
491,491,395,489,493
492,492,447,491,494
491,493,508,490,493
491,493,581,490,493
491,494,631,490,493
493,494,634,490,493
490,493,617,489,494
494,492,529,491,494
492,493,435,491,495
492,493,392,492,495
492,492,372,492,494
491,494,373,492,494
492,492,383,491,492
491,494,414,491,494
491,492,472,491,494
492,493,536,490,493
492,493,613,490,494
491,492,635,491,493
492,491,630,493,494
493,494,584,491,495
491,493,483,492,495
492,492,412,490,493
491,493,375,491,495
492,491,370,489,493
493,494,378,491,494
491,493,392,490,494
492,492,440,490,494
492,493,501,489,493
491,493,570,489,492
491,491,632,492,494
493,492,636,491,493
491,493,620,491,493
491,494,543,490,494
492,494,445,491,494
492,493,396,492,494
492,494,369,490,495
492,494,371,491,495
491,491,381,491,495
491,491,410,491,494
491,492,466,491,493
491,493,526,491,493
491,494,609,491,495
491,493,635,490,494
492,493,629,490,494
493,494,594,490,494
493,493,496,492,494
492,492,415,490,493
492,494,379,492,496
491,491,368,492,494
491,493,374,491,493
491,493,386,490,495
492,491,431,491,493
491,492,494,491,494
491,493,560,490,493
492,493,625,491,495
493,492,636,491,495
492,492,625,491,493
492,494,555,491,495
493,493,452,490,495
493,492,398,491,494
492,493,368,491,493
492,495,370,489,493
492,492,380,492,494
493,493,404,490,493
491,492,459,490,493
492,492,519,492,495
492,491,600,492,495
492,492,636,492,494
492,492,630,492,493
491,492,605,492,495
491,494,508,495,494
492,493,420,494,494
492,494,385,491,493
490,491,371,493,494
492,492,375,491,492
492,494,387,490,496
491,491,427,487,494
492,492,485,488,494
491,493,551,490,493
490,493,621,489,495
491,493,635,489,494
491,491,627,490,493
493,494,570,491,495
494,493,465,491,495
493,494,405,490,493
491,493,371,490,496
492,495,370,489,494
491,492,377,491,493
491,492,398,491,492
491,493,450,490,493
491,492,512,490,494
491,493,587,491,494
490,492,635,490,495
493,492,634,491,495
491,491,616,491,496
492,493,523,491,494
492,492,428,491,495
493,493,389,490,493
491,492,369,491,492
492,493,371,490,493
492,494,382,489,492
492,494,419,492,494
491,492,476,490,494
492,493,541,490,492
491,491,618,491,494
491,491,637,491,494
491,492,629,491,493
493,493,582,490,494
492,493,476,491,494
493,493,408,491,494
492,494,372,491,494
494,493,369,490,494
494,493,377,491,493
491,491,396,491,496
492,494,443,490,494
491,492,505,491,494
491,492,576,491,493
491,492,631,490,495
491,492,635,490,493
492,494,621,492,495
491,495,536,491,494
492,493,437,491,494
492,492,394,490,495
493,493,371,490,494
491,494,370,490,495
491,492,381,489,492
493,493,412,492,493
491,491,468,490,494
491,492,531,490,492
490,493,612,491,495
491,493,636,490,494
491,493,629,491,495
493,492,590,491,496
493,492,491,491,495
493,493,414,491,493
492,494,377,493,495
491,493,369,490,495
493,494,375,490,493
491,493,387,490,493
492,493,435,489,493
492,492,498,491,494
492,492,566,490,493
491,493,626,491,494
491,491,636,491,494
490,492,623,492,495
491,492,550,492,494
492,493,448,491,494
492,492,396,490,493
492,491,372,490,493
491,493,370,490,494
493,493,379,490,494
494,492,406,490,493
491,493,460,490,493
492,492,521,489,493
492,491,604,492,494
490,492,635,491,493
491,493,629,490,492
492,492,601,491,496
492,493,502,490,495
492,492,420,490,494
492,493,383,491,494
494,492,369,490,495
492,491,375,489,492
492,494,385,493,494
490,493,429,489,493
490,492,489,491,493
491,493,553,490,492
491,493,621,489,493
492,493,636,490,493
490,492,624,491,494
494,492,562,491,493
492,493,459,492,494
492,491,402,492,495
491,491,371,493,495
492,493,371,491,494
491,493,377,491,494
492,492,403,489,492
491,493,454,490,494
491,493,514,489,493
492,493,593,491,493
490,493,636,490,495
492,494,630,489,493
491,492,611,492,495
491,492,516,491,495
492,493,425,491,494
493,492,389,490,492
490,493,367,491,494
491,492,374,489,493
493,493,384,489,494
493,492,423,490,494
492,493,480,490,494
492,493,546,490,493
490,491,619,492,494
493,492,638,491,492
490,494,625,490,492
491,493,575,490,494
493,494,472,491,494
492,493,406,490,494
493,493,371,492,494
493,492,372,492,495
491,492,378,492,494
491,491,398,491,494
493,493,447,490,494
491,492,507,490,493
492,492,582,490,492
491,494,632,490,493
492,493,633,490,494
493,492,618,492,493
491,492,531,491,495
492,493,433,491,495
492,492,393,492,494
491,491,372,491,494
491,493,371,491,493
492,493,381,490,495
492,491,414,489,493
491,492,474,490,493
492,493,537,490,493
493,493,613,489,494
492,492,637,491,494
493,494,628,490,494
491,491,586,490,494
493,494,483,492,494
493,492,411,492,494
491,493,373,492,493
491,494,371,492,494
491,494,376,490,494
491,492,392,492,494
493,492,442,490,493
491,493,500,489,494
491,492,572,490,492
492,494,629,492,493
490,492,634,491,494
493,494,620,492,492
491,494,542,492,493
491,493,442,491,492
491,493,395,490,493
491,492,372,492,494
493,491,373,490,492
492,493,382,491,494
491,491,410,491,494
491,492,465,491,494
492,492,527,490,493
492,493,605,491,492
492,491,637,491,494
493,494,630,490,494
493,494,593,490,494
493,493,497,491,494
493,493,415,490,494
492,492,378,490,493
492,492,370,492,493
491,493,376,492,493
491,492,386,491,492
491,492,435,490,493
491,492,494,490,494
491,492,561,489,493
493,493,627,491,494
492,492,637,491,494
491,491,625,492,495
491,491,556,491,494
493,493,453,491,494
492,493,399,490,493
491,493,369,492,493
491,493,369,490,493
493,493,378,489,494
491,491,405,490,494
492,492,457,491,493
492,492,520,490,494
491,491,601,492,495
491,491,635,492,494
491,493,632,491,495
491,493,602,493,496
493,492,510,492,494
493,494,421,492,493
492,493,385,490,494
494,494,370,491,493
492,494,376,491,494
491,493,383,489,492
491,492,428,491,494
491,492,486,491,493
490,492,550,491,492
491,493,620,490,494
492,492,638,490,493
493,493,626,492,494
491,494,571,491,495
493,492,466,491,494
493,492,404,492,495
493,494,369,490,492
491,492,370,492,494
493,493,379,491,492
491,493,399,491,492
491,493,451,490,493
491,492,511,490,494
491,492,590,490,493
492,492,633,491,492
493,491,635,491,494
491,491,617,492,496
491,492,524,492,495
493,493,429,491,494
492,493,389,491,495
494,493,368,490,493
493,494,373,489,493
492,494,383,490,493
492,494,419,490,494
492,492,478,490,493
492,492,543,490,492
491,493,615,491,493
490,492,637,492,493
491,492,627,492,493
491,493,580,490,495
493,493,477,492,494
492,492,409,491,494
493,494,373,490,492
493,493,371,491,494
492,492,378,490,494
492,494,392,490,494
491,492,446,490,493
491,492,505,491,493
491,492,577,491,492
490,492,631,490,493
492,493,634,492,494
491,494,620,490,493
491,492,536,492,494
494,493,438,491,494
493,492,395,491,495
492,492,372,491,495
491,492,372,490,494
493,493,381,492,493
490,492,412,490,494
491,493,470,491,493
491,493,531,490,492
491,494,608,490,492
491,493,637,491,494
492,491,631,491,492
491,493,590,492,495
492,493,491,492,494
492,492,414,492,494
491,492,377,490,493
493,493,368,491,492
491,491,377,491,493
492,493,388,490,492
492,493,437,491,492
491,492,497,490,493
491,493,565,491,494
492,491,627,490,492
492,492,635,491,493
490,493,623,492,493
490,493,550,491,494
492,492,449,491,494
493,492,399,491,493
493,494,370,493,494
491,493,372,491,495
493,492,381,491,495
493,491,408,491,494
491,492,460,491,493
492,492,524,491,493
492,492,604,489,493
491,494,634,490,492
492,494,630,489,493
492,495,596,489,495
492,492,504,491,494
493,492,418,492,493
491,492,383,491,495
493,491,370,492,494
491,491,376,493,494
490,492,385,490,493
490,492,430,491,494
492,492,489,491,493
491,493,556,489,492
491,494,623,491,494
493,493,636,491,494
493,491,624,491,493
491,492,565,492,495
492,493,457,492,494
492,492,402,492,494
491,492,371,494,494
491,493,369,491,495
493,491,380,491,493
491,494,403,492,494
491,493,454,490,493
492,493,514,490,493
492,491,595,490,494
493,493,632,490,493
491,492,633,492,494
493,493,608,493,494
491,493,515,492,493
492,493,426,492,493
491,493,387,491,495
492,491,368,490,493
492,492,374,493,493
493,492,384,490,494
493,492,424,490,493
491,492,482,491,494
491,492,547,491,492
492,494,618,492,493
490,492,637,490,494
492,494,625,490,492
492,494,574,490,493
493,493,471,491,494
492,492,407,492,493
493,493,373,490,493
491,493,368,492,495
492,491,379,492,494
491,491,399,492,493
490,492,448,490,493
491,492,509,491,492
489,492,585,492,494
490,494,631,491,493
492,493,634,491,494
492,493,618,491,494
490,493,527,490,494
494,493,433,490,493
491,493,391,492,495
491,491,371,492,494
491,494,372,492,493
491,493,381,491,492
490,491,416,490,494
490,493,473,491,493
491,492,537,490,493
493,493,614,490,493
492,492,638,491,494
491,491,629,489,493
492,495,586,493,494
492,493,482,491,494
492,492,410,491,493
492,494,374,492,492
491,493,369,490,493
491,492,377,492,493
493,493,392,492,492
490,492,441,490,494
492,492,501,490,493
491,492,574,491,493
491,492,629,490,493
493,493,633,491,492
492,491,623,491,493
492,494,539,491,493
492,493,442,491,493
491,493,395,491,493
493,494,369,493,493
491,493,373,491,495
492,493,379,490,493
491,491,410,492,493
492,492,467,491,493
491,492,526,492,492
492,492,607,490,492
492,494,635,492,493
490,491,629,490,494
493,494,592,490,494
493,493,496,490,494
492,492,414,491,493
492,492,381,492,495
493,495,368,490,494
491,493,374,491,493
491,493,386,491,492
491,493,433,490,494
492,492,494,490,493
492,493,563,492,493
490,493,626,491,495
492,492,636,491,494
492,491,626,491,495
491,491,558,492,494
493,493,451,491,493
492,492,400,491,494
493,491,367,491,493
492,493,369,489,493
492,494,379,490,493
493,494,403,492,493
492,492,459,490,493
492,492,519,490,494
492,491,601,491,494
491,492,636,492,493
490,492,631,492,494
493,492,603,492,492
492,494,510,492,495
492,493,419,492,494
493,494,384,490,493
492,495,371,490,494
493,493,373,491,493
493,492,387,490,491
491,494,426,491,494
491,491,485,490,494
491,493,552,491,492
490,493,621,492,492
490,493,637,491,494
491,494,626,489,492
491,492,571,493,494
493,493,463,491,493
493,493,404,491,494
493,492,371,491,492
492,494,368,492,494
491,492,378,490,493
493,492,398,492,492
491,493,450,491,493
492,493,512,491,492
491,491,590,491,494
492,494,634,490,492
491,493,632,492,495
493,491,614,491,495
493,492,523,491,494
493,494,429,491,493
492,493,388,493,494
491,494,370,491,494
492,494,371,491,493
493,494,382,489,492
492,494,420,490,492
492,493,477,491,493
491,492,542,489,493
493,493,616,491,492
491,491,637,492,494
491,492,629,492,493
491,492,582,494,493
492,493,476,492,494
493,493,408,492,494
492,492,375,491,493
491,493,368,489,493
493,494,378,489,493
493,493,396,492,492
491,493,445,490,494
493,493,505,491,492
491,491,579,491,494
491,491,631,491,492
491,493,633,491,492
492,491,621,491,493
492,494,533,492,494
492,493,436,491,493
492,493,392,490,494
493,495,369,490,494
494,492,374,491,495
492,494,379,491,492
492,491,414,491,492
492,493,469,491,493
491,492,532,491,492
490,492,610,492,492
491,494,636,492,494
491,491,629,490,493
493,492,591,494,493
493,493,488,491,494
492,493,413,489,494
493,492,380,490,495
491,494,368,489,494
491,492,376,489,493
492,493,389,491,492
491,493,435,490,492
491,493,498,489,492
492,494,568,491,493
491,493,627,490,494
491,494,635,490,494
491,491,624,491,495
492,491,549,491,494
492,493,447,491,493
492,492,397,490,494
493,493,368,492,493
492,492,372,492,494
492,493,378,489,492
492,494,405,489,492
492,493,462,490,493
491,491,523,491,494
492,492,605,490,491
491,494,637,492,494
490,492,630,492,493
491,492,598,492,493
492,492,503,490,494
492,492,416,491,493
492,492,384,492,492
491,494,368,490,494
493,492,375,490,494
493,492,388,490,491
491,493,429,491,493
492,493,491,490,492
492,492,558,492,493
489,492,623,490,492
491,493,635,490,492
492,494,625,489,492
491,491,564,492,494
493,494,458,491,493
492,492,401,491,495
493,492,370,491,495
493,492,372,492,494
491,492,378,491,493
493,491,401,492,492
493,493,456,490,493
491,492,514,490,492
491,493,593,488,492
492,494,636,489,492
490,493,631,490,494
493,491,607,491,492
491,492,516,492,494
493,493,424,491,494
492,493,388,493,493
491,494,370,491,494
491,493,372,491,495
492,492,386,490,492
491,494,423,490,493
492,493,482,490,493
492,493,549,489,493
492,493,619,491,492
491,491,638,491,494
493,494,628,490,494
490,491,576,492,494
492,493,470,491,493
492,493,407,491,494
492,492,373,491,493
493,494,371,492,493
491,494,379,490,494
492,493,398,489,494
493,492,449,489,493
491,493,508,491,492
490,491,584,491,492
494,494,634,492,492
491,493,631,490,492
491,494,615,490,492
492,495,528,491,494
492,493,433,491,493
492,492,391,492,493
493,493,371,491,494
491,492,373,491,495
492,492,383,492,494
491,492,416,492,493
492,493,472,490,493
491,492,539,490,493
491,493,612,490,492
492,494,636,490,494
493,493,629,490,494
493,493,583,492,493
493,492,482,491,494
492,493,410,491,494
491,492,375,493,495
491,493,368,492,493
491,493,376,491,494
492,491,390,490,492
492,492,442,491,493
491,492,502,490,493
492,493,572,489,494
493,493,630,491,494
492,493,634,490,494
491,492,622,489,493
494,495,541,492,493
491,492,442,491,493
491,493,394,490,494
492,494,369,490,492
492,492,373,493,494
492,493,381,491,492
490,493,409,491,493
491,492,466,492,493
491,492,528,492,494
490,492,608,490,492
492,493,635,490,493
492,492,632,490,494
491,494,590,490,492
493,494,494,491,494
493,493,415,490,493
491,493,380,492,494
493,493,370,489,493
493,494,378,491,494
491,491,389,491,494
490,491,434,490,493
491,493,495,489,493
492,492,561,490,492
492,492,628,491,492
492,493,636,490,494
493,493,625,490,494
494,493,555,490,494
493,493,452,491,493
491,493,399,491,494
491,494,367,490,493
490,492,370,492,492
491,493,378,490,493
491,493,402,489,492
491,492,460,491,493
491,493,518,490,492
490,492,603,490,494
492,491,637,491,494
492,491,632,491,494
491,491,602,489,493
493,492,508,492,494
493,493,420,490,492
492,493,384,491,493
491,494,369,491,493
493,494,375,490,493
491,492,386,489,493
493,492,427,491,492
491,492,488,490,493
491,491,554,491,494
490,491,623,491,493
491,493,636,491,492
493,492,627,491,492
491,494,567,491,495
493,493,462,491,493
492,493,403,490,493
493,494,369,490,493
493,493,369,491,492
491,492,379,491,494
492,494,398,490,494
491,492,452,491,493
491,492,513,491,492
491,492,589,491,494
492,492,635,490,493
492,493,633,491,493
491,494,613,490,493
494,493,522,491,494
493,493,428,490,494
492,493,388,490,492
492,491,372,492,494
493,494,374,492,493
491,493,383,491,492
490,493,419,490,492
491,493,478,490,492
492,493,545,492,493
490,493,616,490,494
491,492,636,491,494
492,491,630,492,495
492,491,582,492,495
492,492,477,492,493
492,493,408,491,494
491,493,373,488,494
494,493,368,490,492
491,494,376,490,494
492,495,394,488,493
493,493,446,491,493
491,492,505,490,492
491,493,578,490,494
492,492,632,491,493
490,492,633,492,493
491,493,619,490,494
494,493,533,491,494
492,492,437,491,494
492,494,393,490,492
492,495,369,491,494
493,493,374,490,494
493,492,383,490,491
491,493,411,491,493
491,492,469,490,493
492,492,534,492,492
490,492,611,492,493
491,493,635,490,492
492,492,631,492,494
492,494,587,490,494
491,493,488,491,493
492,493,413,490,494
492,492,378,491,495
493,491,370,489,492
492,494,377,492,494
491,494,390,489,493
491,493,438,491,492
490,493,498,491,493
491,493,565,490,492
492,491,631,492,493
492,492,636,491,492
491,494,624,490,495
493,491,549,492,495
492,493,446,492,495
492,492,397,491,494
492,494,369,490,494
491,493,370,491,495
493,492,381,490,492
491,494,405,490,493
492,492,462,490,493
490,493,523,491,492
490,493,607,490,494
492,493,635,490,493
491,492,632,492,493
490,491,597,493,494
491,492,501,492,494
493,493,418,491,493
491,493,381,492,495
492,491,369,489,493
493,493,376,490,493
492,491,387,490,494
493,492,429,490,492
491,492,491,491,494
491,492,557,489,493
490,492,625,491,492
490,493,635,490,492
491,493,623,490,492
492,494,561,493,494
492,493,457,492,494
493,492,400,492,493
493,492,372,491,495
492,491,371,492,495
491,492,378,491,494
493,494,402,489,493
490,492,454,490,493
492,493,516,491,492
491,493,595,490,492
491,493,633,489,494
492,493,632,490,492
491,492,609,490,495
491,493,513,491,494
493,493,424,490,494
491,492,387,492,494
491,491,371,491,494
493,492,375,491,492
491,493,384,491,495
491,494,423,489,493
491,493,482,490,492
491,493,548,490,494
493,493,619,490,494
491,494,635,490,494
490,491,627,489,493
494,495,575,492,494
492,493,469,492,494
491,492,405,491,493
492,494,372,491,495
492,494,369,490,494
490,491,377,491,493
493,494,399,490,494
492,492,449,490,494
492,492,508,490,493
491,494,583,492,494
490,491,633,490,494
493,493,631,490,492
491,494,615,491,492
491,494,526,491,494
492,493,432,491,494
492,493,392,490,493
491,492,369,491,494
493,492,375,491,494
491,491,383,492,495
490,491,416,492,494
491,492,473,490,493
491,492,538,491,492
491,491,615,490,492
492,494,637,490,493
492,493,628,490,494
494,493,584,490,493
492,493,481,491,494
492,493,408,491,493
493,492,375,492,495
491,493,370,492,493
491,493,376,491,492
491,491,395,490,495
491,494,441,491,494
491,492,501,490,493
492,493,574,489,493
493,493,632,491,494
491,491,634,489,493
492,494,622,492,495
491,494,539,491,494
492,492,440,491,493
491,493,394,491,492
491,493,368,491,493
492,494,371,489,494
491,492,382,490,493
492,493,409,491,493
491,492,468,490,493
492,492,530,491,494
490,491,609,491,494
491,493,636,490,494
491,493,629,491,494
492,492,592,491,492
492,494,494,492,494
492,493,415,492,494
492,493,379,493,494
491,493,370,492,495
492,494,374,490,493
491,492,390,492,494
491,492,436,491,492
490,492,495,490,493
492,492,564,489,492
491,494,625,491,494
491,492,634,489,493
493,493,625,490,493
493,493,554,490,494
492,492,451,490,494
492,493,397,490,492
492,492,372,492,493
492,493,370,491,492
490,493,378,491,492
490,493,403,490,493
491,493,458,490,493
491,492,520,490,492
492,491,602,491,493
493,492,637,491,494
492,491,633,491,494
491,491,604,492,495
493,494,506,491,494
492,493,422,490,493
492,492,381,491,492
491,493,368,490,493
493,494,374,490,493
493,493,385,492,493
490,493,429,489,493
490,492,487,490,494
491,492,554,491,494
490,492,623,491,493
490,493,635,491,493
490,493,624,491,494
494,493,566,491,492
491,492,461,490,494
491,493,402,490,494
492,494,370,490,492
492,493,371,490,494
491,493,377,491,495
491,491,402,490,492
491,493,453,490,493
491,493,515,491,492
490,492,591,492,492
490,493,635,491,494
491,494,632,489,493
490,492,614,493,493
494,493,520,491,494
493,494,428,491,493
492,492,389,491,493
491,494,368,492,495
491,493,374,490,494
493,492,383,492,492
491,493,420,491,493
491,493,480,491,492
491,493,543,490,492
491,491,619,492,493
492,493,639,492,492
491,494,629,492,494
492,492,581,492,494
492,493,475,492,494
492,492,406,491,493
493,493,372,493,493
493,491,370,491,492
492,493,375,490,493
492,494,395,488,492
491,493,444,490,494
491,492,506,490,493
492,492,579,490,492
490,491,632,491,494
