Sensor0,Sensor1,Sensor2,Sensor3,Sensor4

490,491,490,493,604
492,492,491,493,510
490,492,491,493,424
491,0,491,491,491
635,490,492,492,492
632,490,491,490,493
604,492,492,491,493
510,490,492,491,493
424,491,495,491,492
387,491,494,494,495
368,492,492,492,492
374,492,495,492,492
384,491,496,492,492
426,492,493,491,493
484,491,492,491,492
549,492,492,492,493
621,492,492,491,493
635,490,492,492,493
624,490,492,492,495
571,493,494,491,492
466,491,494,492,492
405,491,492,493,492
372,490,494,491,491
368,491,494,489,491
377,492,493,491,491
399,492,493,491,492
449,491,493,491,492
511,490,493,492,493
584,490,491,491,494
633,490,494,493,493
634,490,494,493,493
615,493,493,494,492
526,491,494,492,493
433,491,494,491,492
391,493,494,491,491
369,491,493,491,493
371,491,493,492,492
380,491,491,490,491
420,490,493,491,493
477,491,493,491,492
540,490,492,492,493
615,489,493,490,493
636,490,494,491,490
628,489,493,491,495
583,493,493,491,493
479,492,494,492,492
410,492,494,492,493
374,492,492,491,492
369,492,495,493,494
374,490,494,492,493
395,490,493,493,492
444,491,493,491,492
503,489,493,491,492
575,489,491,490,494
632,492,493,490,493
634,490,493,490,493
619,492,492,490,493
536,491,493,492,493
440,490,492,492,492
396,492,493,493,493
367,492,493,490,492
372,491,494,492,492
381,491,495,492,491
412,491,494,491,492
468,491,492,491,492
531,492,493,494,493
610,490,492,491,494
637,491,493,492,494
628,490,493,493,495
589,490,493,494,494
493,493,495,492,493
414,490,494,492,493
378,490,492,492,492
368,492,494,491,492
374,492,494,491,492
388,493,493,492,492
437,490,492,491,491
496,490,493,491,492
564,490,491,491,494
627,490,493,492,493
635,490,494,493,492
622,492,492,490,492
553,491,495,492,493
449,490,493,492,492
399,492,494,491,492
370,493,493,491,493
367,491,494,493,492
381,491,493,491,494
406,491,494,491,494
461,491,492,492,494
522,490,493,492,492
601,489,493,493,492
637,491,493,491,494
629,489,494,490,491
601,489,493,493,494
504,491,493,491,492
419,491,493,491,493
382,491,492,491,493
370,491,493,490,493
372,490,493,490,493
385,492,493,493,492
431,490,493,491,492
489,491,493,492,492
555,491,492,492,495
624,493,493,490,493
637,491,494,493,495
624,491,492,491,495
564,492,494,492,494
460,492,494,493,492
404,492,493,493,493
369,490,493,492,494
368,492,494,491,492
379,492,494,490,491
402,492,493,491,492
454,491,492,491,492
515,490,493,492,492
591,492,492,493,492
636,491,492,492,494
631,490,493,492,493
609,490,493,494,493
518,491,493,491,493
428,491,493,492,492
386,491,492,491,492
370,492,494,491,492
373,493,494,491,493
382,493,493,491,493
424,491,493,490,493
481,491,494,492,492
547,489,491,492,494
619,489,493,492,493
637,491,494,492,492
628,490,492,491,494
579,492,495,491,493
469,491,493,492,492
409,491,493,491,492
372,493,493,490,492
366,490,492,492,493
376,490,493,491,491
398,490,492,492,493
449,491,493,492,493
509,491,493,492,492
583,491,495,493,493
634,492,494,492,494
633,490,493,489,493
617,494,494,495,494
531,493,494,492,493
435,492,493,491,493
392,491,492,491,494
367,491,494,490,492
372,491,493,492,492
380,492,492,493,492
418,490,494,491,492
474,490,493,491,491
537,491,494,491,494
612,489,493,490,492
637,491,494,493,492
628,490,492,491,495
585,491,492,492,494
485,491,494,492,493
412,490,493,493,493
378,493,493,493,492
368,491,492,492,494
375,492,494,491,491
394,493,495,490,492
441,492,494,492,493
501,490,493,492,492
570,491,491,490,491
632,491,493,492,494
635,490,493,493,494
622,490,493,493,493
544,490,494,492,493
445,491,493,492,492
396,491,493,492,494
370,492,494,490,493
370,493,493,490,493
379,492,492,490,493
410,490,494,491,493
466,491,492,491,492
528,491,492,492,494
607,490,493,492,493
638,491,494,492,492
631,493,495,492,492
596,491,492,492,494
498,492,495,492,493
416,491,493,492,492
381,492,492,490,490
367,491,492,491,493
372,490,492,491,492
389,492,491,492,493
433,491,493,491,492
494,490,492,491,492
562,491,493,490,492
626,491,493,491,492
635,489,493,493,493
624,492,493,494,493
557,491,493,492,493
454,491,493,491,493
400,491,493,491,494
367,491,495,492,493
370,491,494,493,493
377,492,494,491,492
406,491,494,492,493
461,491,494,491,493
520,493,494,491,492
598,491,493,493,492
637,491,492,491,494
629,492,494,491,491
602,490,492,492,494
510,492,493,491,492
421,491,493,492,493
386,492,492,490,493
369,491,494,491,494
372,490,494,491,492
386,492,494,490,492
427,492,493,491,491
485,491,493,492,493
552,491,491,491,493
623,492,494,491,494
637,490,493,493,493
626,491,493,494,493
571,491,495,494,493
465,492,493,491,492
405,491,492,492,493
368,492,494,491,493
367,491,492,491,493
376,491,492,490,493
397,490,492,491,493
453,491,493,491,492
512,491,493,490,492
586,491,493,493,492
636,491,493,491,491
633,492,494,490,491
615,493,492,494,494
524,492,494,492,493
429,490,494,492,493
389,491,492,491,494
367,490,492,492,494
371,490,493,493,493
383,493,493,493,493
421,491,492,491,492
478,491,493,493,493
544,491,494,490,492
618,492,493,490,492
637,490,494,493,493
627,491,491,490,492
581,491,495,492,493
476,491,493,491,493
409,491,492,492,493
373,490,492,492,493
368,490,492,491,493
376,491,494,491,491
392,490,492,492,492
447,491,493,490,492
505,491,492,490,492
575,492,492,490,492
633,491,494,491,493
633,490,493,489,492
620,490,493,494,495
537,491,494,493,493
441,492,494,493,492
394,491,493,492,495
370,492,495,491,494
370,491,494,492,494
380,493,492,490,493
412,491,492,490,492
470,491,493,492,492
533,491,491,491,494
609,492,494,490,492
638,490,494,493,492
631,491,494,492,492
589,491,495,492,492
489,491,494,492,493
413,491,492,491,492
379,493,493,493,494
366,492,492,492,494
375,491,492,491,493
387,491,492,491,494
436,491,494,492,493
500,491,493,492,492
566,492,493,493,493
631,491,493,491,491
636,492,494,490,491
623,492,495,493,494
549,490,493,491,492
448,491,493,492,491
396,490,492,492,494
368,490,492,491,493
370,490,492,493,493
378,491,493,490,493
408,491,494,490,492
462,491,493,492,492
525,491,493,490,491
604,493,493,490,493
636,492,493,491,493
629,492,495,493,492
597,492,493,492,492
504,492,495,493,493
418,491,493,493,493
384,491,494,494,494
368,491,495,492,494
372,491,494,491,492
387,490,492,493,493
431,491,493,491,492
491,491,493,490,492
555,491,491,490,493
625,490,494,492,494
636,490,493,490,491
624,492,493,494,494
563,491,493,493,493
459,491,493,492,492
403,491,493,491,494
368,491,494,491,492
368,490,494,493,492
377,492,493,491,493
402,492,492,491,493
456,491,493,491,492
515,490,493,491,492
595,492,492,492,493
636,492,493,491,493
633,491,494,492,491
611,492,495,491,492
516,492,495,492,493
425,491,494,493,493
388,493,493,493,493
368,491,492,493,494
371,490,493,492,494
383,490,492,492,494
423,490,493,491,492
482,490,492,492,492
547,491,491,490,491
621,491,494,491,492
638,492,493,491,492
627,493,493,491,494
574,491,494,491,493
471,493,493,492,492
407,492,493,492,494
369,491,492,491,493
367,490,492,491,493
377,490,493,492,493
397,492,492,490,492
451,490,493,490,491
508,491,493,491,491
585,492,493,491,491
634,492,492,490,492
631,491,493,491,491
619,491,491,490,494
530,491,494,492,492
434,491,493,492,493
393,491,493,492,494
368,491,493,493,494
370,490,492,492,492
384,492,491,492,494
415,492,493,491,492
475,491,493,491,493
538,492,492,490,493
613,491,494,492,492
637,490,493,493,492
630,493,494,493,494
583,490,494,493,494
483,492,493,491,492
412,491,494,492,491
377,491,492,491,493
366,492,493,490,491
375,490,493,492,492
392,493,492,490,492
441,491,492,490,492
502,491,492,490,491
572,491,494,491,494
630,490,493,490,492
634,491,494,493,492
622,490,494,493,492
543,492,494,492,492
442,491,493,491,493
395,492,493,491,494
368,490,494,491,493
367,491,492,491,493
379,491,492,491,494
408,491,492,492,492
468,491,493,492,494
529,492,492,490,492
608,490,493,492,491
638,491,493,491,491
630,492,493,489,491
593,493,494,491,493
495,491,493,492,492
416,493,494,491,492
380,491,492,491,494
366,490,493,492,494
374,490,493,492,492
387,493,493,490,492
435,490,492,492,492
494,491,493,491,491
563,491,494,490,492
628,492,492,490,492
634,492,491,492,491
625,491,492,491,494
554,492,494,492,493
451,491,493,492,494
399,490,493,493,494
369,490,493,492,493
368,491,493,491,492
380,491,494,491,494
403,490,494,490,491
460,491,493,491,492
521,491,492,490,492
600,492,492,490,493
635,491,494,491,491
630,489,492,492,491
604,493,494,493,493
507,491,493,492,493
422,491,493,492,492
386,491,495,490,494
366,490,494,490,492
374,490,493,492,493
383,492,492,490,493
427,490,492,491,493
489,491,493,491,494
553,492,494,490,495
622,489,494,490,493
636,492,495,492,492
626,492,495,493,492
571,493,495,492,493
465,491,493,491,493
403,492,493,491,492
370,490,493,492,493
367,491,492,492,493
376,490,493,492,495
399,490,492,492,493
453,490,492,491,492
514,491,493,492,492
590,492,491,489,493
635,491,494,491,492
633,492,493,490,492
615,493,494,490,492
522,491,494,493,493
429,492,493,492,492
391,492,493,492,494
366,490,493,493,494
373,490,493,493,493
384,491,493,490,492
418,490,493,491,492
479,491,492,491,491
544,491,493,490,491
617,492,492,491,492
637,491,492,491,491
628,492,495,492,495
577,490,494,491,492
477,491,494,492,493
408,491,494,493,492
374,490,493,492,491
369,492,494,491,491
374,491,493,492,491
395,492,492,492,492
446,491,493,491,493
505,492,492,492,493
577,491,492,491,493
632,491,494,491,492
634,490,493,493,494
620,494,494,491,494
534,491,494,492,493
437,491,493,493,492
395,491,494,492,492
366,491,492,492,491
372,491,492,492,493
381,492,493,489,492
412,491,492,491,493
471,490,492,491,492
533,491,494,490,491
610,489,491,492,492
638,491,492,492,491
629,491,495,493,492
588,491,496,492,492
488,491,493,491,491
413,491,492,492,493
375,493,494,491,493
367,491,495,492,494
372,490,492,492,494
387,490,492,493,494
439,490,493,491,492
499,492,494,493,493
568,490,491,490,493
628,491,494,491,492
634,491,493,490,492
622,493,494,491,492
548,491,495,493,493
445,491,493,491,492
398,491,495,492,494
366,491,493,492,494
369,490,493,492,494
380,491,493,490,492
406,492,494,493,492
464,491,493,491,493
526,491,494,491,491
605,492,495,492,492
637,492,493,491,493
630,492,492,491,492
597,491,495,492,494
500,492,494,492,492
419,492,493,492,494
381,490,492,492,495
367,489,493,492,492
375,492,492,491,492
387,490,494,492,494
431,490,492,491,492
492,491,494,491,492
557,491,492,490,492
624,491,491,491,491
636,491,492,492,494
623,492,494,490,492
560,490,493,492,493
456,491,494,493,493
402,490,494,493,491
368,491,492,491,491
369,492,494,493,494
379,490,493,490,492
402,492,493,491,493
456,491,493,492,494
517,490,492,491,494
594,492,494,491,492
636,490,493,492,493
631,491,491,492,491
608,491,495,493,491
515,491,494,493,493
425,491,494,491,493
386,490,493,491,491
369,490,494,492,492
370,491,492,492,493
382,490,492,492,494
424,490,492,491,493
484,491,493,491,492
548,490,493,490,493
619,491,494,491,492
637,492,494,491,492
626,493,494,491,492
575,493,494,493,493
469,492,494,492,492
406,491,494,492,494
370,490,492,492,494
368,489,493,492,493
377,490,493,492,493
399,490,493,490,492
449,490,494,491,492
510,491,492,491,494
586,492,493,490,491
633,491,492,491,494
632,491,492,490,494
619,491,496,492,495
525,491,493,492,493
433,492,493,492,493
392,491,494,493,493
368,491,494,493,492
373,492,493,492,494
381,492,496,491,492
417,490,493,492,492
477,491,493,491,492
538,491,492,491,494
614,491,492,492,492
639,492,493,492,493
627,489,492,490,492
583,490,494,493,493
481,491,494,491,492
411,490,493,492,491
377,491,495,491,492
367,490,493,493,492
374,491,492,492,492
394,490,492,491,493
441,490,493,491,492
502,490,493,491,493
573,489,492,490,491
631,490,494,492,492
633,491,492,492,492
622,492,495,492,492
540,492,495,493,493
442,492,494,492,493
396,491,495,492,494
367,491,495,493,492
372,490,493,492,493
381,491,493,493,494
410,490,493,492,493
468,491,493,490,492
531,491,494,491,494
607,490,491,491,492
638,492,493,491,492
629,492,492,491,492
590,492,492,491,493
495,492,494,492,492
416,490,493,492,494
381,493,495,491,495
367,490,494,493,493
375,490,494,493,492
390,490,495,492,494
435,491,492,492,493
496,491,492,492,493
564,492,492,489,491
627,491,492,491,493
634,490,492,492,494
622,492,495,491,491
551,490,493,492,492
452,491,493,492,492
400,491,494,492,491
369,490,494,491,491
369,492,493,491,494
378,490,493,490,491
404,490,494,492,492
462,491,492,491,492
520,490,492,491,494
599,490,492,492,494
637,491,494,493,493
630,492,492,493,492
602,491,492,492,495
506,492,495,492,493
421,492,494,491,492
384,492,493,490,492
367,491,494,492,491
372,490,493,492,492
386,492,495,492,494
428,490,493,491,493
487,490,493,492,492
553,490,493,489,492
622,491,494,492,492
636,490,493,493,494
626,492,494,490,492
567,492,494,492,493
462,491,493,491,493
405,491,495,491,495
368,491,492,491,492
369,492,494,493,493
379,491,494,493,492
402,490,495,492,492
454,490,494,492,493
515,490,492,491,494
591,492,493,490,493
636,490,494,490,493
630,490,492,491,494
609,490,493,492,494
519,490,494,492,493
429,492,493,492,493
389,492,493,491,492
370,491,495,491,491
373,492,495,491,492
382,492,494,491,492
422,490,493,491,491
480,491,493,492,492
546,490,492,491,494
617,491,493,492,494
637,490,494,493,494
627,490,493,490,493
578,491,495,493,492
473,492,494,492,493
409,491,494,492,491
374,491,495,491,491
367,491,493,490,492
376,491,492,492,492
396,489,492,491,493
445,490,493,491,492
507,491,492,491,493
579,489,492,492,494
632,490,493,492,492
633,490,491,491,491
619,492,495,492,495
531,491,494,492,492
437,491,494,492,493
391,492,493,491,493
367,492,494,492,492
372,490,493,492,494
380,492,494,491,494
415,490,493,491,493
472,491,493,492,493
535,490,494,491,493
611,490,492,490,491
637,492,493,493,493
629,491,492,490,493
585,492,492,491,493
485,493,494,492,493
412,491,493,492,495
379,493,495,491,494
367,490,494,491,493
374,491,494,493,492
392,491,495,491,491
440,491,494,493,493
499,491,492,492,494
569,492,493,490,491
630,490,494,493,494
634,491,492,492,494
621,491,492,492,495
544,491,494,493,493
447,491,494,492,493
397,491,493,490,492
367,489,494,492,491
372,492,494,491,491
379,492,494,490,491
408,489,493,492,493
466,491,493,490,492
526,490,494,491,494
604,490,491,491,493
636,490,493,492,492
629,490,494,493,493
595,490,492,491,494
498,491,495,491,493
416,491,493,492,492
382,493,494,490,491
366,493,493,491,493
372,491,492,492,492
389,491,495,491,494
431,491,494,492,493
493,490,493,492,493
561,490,494,493,492
626,491,494,492,491
636,489,492,492,494
624,492,495,490,494
558,490,494,492,492
456,491,493,491,492
400,491,493,492,494
368,491,492,491,492
370,492,493,492,493
379,492,493,491,492
405,490,494,492,492
459,490,493,491,492
519,491,494,491,491
597,491,494,491,493
637,491,494,491,493
630,492,495,492,492
607,491,492,492,495
512,492,494,492,493
423,491,494,492,493
387,492,493,490,492
369,490,494,492,493
371,490,492,491,492
386,491,494,490,492
427,491,493,491,491
484,490,493,492,493
552,490,491,489,493
619,491,494,492,492
637,489,493,492,494
628,491,494,493,495
571,491,495,493,494
467,492,494,492,493
406,492,495,492,494
368,490,495,492,493
370,492,493,491,493
378,492,493,490,492
398,491,492,491,493
451,490,493,491,493
511,490,492,492,491
588,492,494,492,494
635,490,493,492,492
634,492,495,492,492
616,491,495,492,495
523,491,494,492,492
430,490,493,492,493
391,492,493,490,492
369,491,492,491,493
370,490,492,491,494
383,492,495,491,495
419,490,493,491,492
478,491,493,492,493
543,490,494,492,492
618,491,495,491,492
637,492,494,493,494
628,492,492,490,492
581,490,495,493,493
478,492,494,492,494
410,491,493,492,495
373,490,492,492,494
367,490,494,490,493
377,492,494,492,492
395,491,492,491,494
447,490,494,491,493
506,491,493,490,492
575,493,493,491,492
633,490,494,493,494
634,491,493,492,491
622,492,492,493,496
537,491,494,492,494
439,491,493,492,493
395,490,493,491,492
368,489,493,492,491
368,490,492,492,491
382,491,494,490,491
412,492,492,490,491
469,491,493,491,493
532,489,493,490,493
609,490,495,491,491
638,489,493,493,494
630,490,494,493,494
589,490,495,493,492
490,490,494,492,493
413,490,492,491,491
380,492,495,492,493
366,490,493,491,494
374,491,492,491,493
387,490,493,492,495
436,490,494,491,493
499,491,493,492,493
566,492,492,490,493
630,492,494,492,492
636,492,494,490,491
623,492,494,491,494
550,490,493,492,492
450,492,493,492,493
398,491,492,491,494
368,491,492,492,494
369,490,493,492,493
379,492,494,491,492
408,490,493,492,492
463,491,493,491,492
525,490,493,491,492
605,491,494,491,492
636,492,492,491,493
630,492,495,494,494
601,493,493,492,494
503,492,495,493,494
419,491,493,492,494
384,490,493,492,494
367,490,494,493,494
373,491,492,491,491
387,492,492,491,494
430,492,493,492,492
490,491,492,490,492
556,492,492,490,492
623,491,494,492,492
636,491,492,492,492
625,492,495,493,494
564,490,494,492,494
460,492,493,493,493
403,491,495,492,495
368,491,496,492,492
371,491,494,493,494
377,492,493,492,493
402,492,492,491,493
456,491,493,491,493
515,490,493,492,491
595,491,494,492,492
636,490,493,490,493
629,491,494,492,492
612,491,495,492,492
517,491,495,492,492
426,491,493,492,494
389,492,493,489,494
367,490,494,491,494
371,491,492,492,494
383,490,492,491,494
423,490,493,492,492
484,491,493,492,493
548,492,492,490,493
621,490,494,492,492
639,492,493,490,492
626,492,493,490,492
575,489,494,493,493
472,491,494,492,492
407,491,492,492,494
371,489,491,489,494
369,490,494,493,494
377,491,494,492,492
397,491,492,491,493
450,490,494,491,493
508,490,493,491,492
584,492,493,490,493
633,492,492,492,494
632,491,492,493,492
620,492,493,493,495
530,493,495,493,493
434,491,493,493,494
394,491,494,494,493
370,492,495,492,492
370,490,492,492,492
383,492,494,493,494
416,490,493,491,492
475,490,492,490,492
538,490,491,490,493
613,491,495,491,491
639,489,493,492,494
629,493,492,490,494
585,490,494,493,493
484,491,493,492,492
413,491,493,491,491
377,491,495,491,494
367,489,492,490,492
375,490,494,492,492
390,491,492,492,494
442,491,492,491,493
502,491,493,492,493
572,492,493,491,494
632,491,494,491,494
633,490,494,491,491
623,492,495,491,492
543,493,494,492,492
444,491,493,493,493
396,492,492,491,493
370,491,495,492,494
369,489,493,493,494
380,490,493,493,494
409,490,493,491,492
467,491,493,492,493
529,491,492,491,493
606,492,495,491,492
638,491,493,491,493
630,492,492,491,492
593,493,493,492,493
496,491,494,493,493
416,491,493,491,492
381,492,493,492,495
367,489,493,493,493
376,490,494,492,492
387,490,492,491,494
433,491,493,491,492
495,490,492,491,492
561,491,492,490,492
627,491,492,490,493
634,491,492,491,491
624,492,495,493,495
556,490,494,491,492
453,491,494,493,493
401,490,494,493,492
371,490,495,491,491
369,490,493,492,493
379,492,493,490,494
405,491,494,491,492
459,491,493,492,493
521,490,492,491,495
599,490,492,491,494
637,490,493,492,495
631,492,495,492,492
601,491,492,492,492
509,491,495,492,494
423,491,494,491,492
386,493,494,490,495
368,490,494,491,494
373,491,495,492,491
386,490,493,492,495
428,490,493,491,494
487,490,493,491,493
552,491,494,490,492
623,489,494,492,494
636,490,492,490,491
626,492,494,491,492
571,493,493,492,493
466,492,494,493,494
404,490,493,492,493
370,491,495,492,492
367,490,493,493,494
377,489,493,493,494
401,489,493,492,492
453,490,493,491,493
512,490,492,491,491
591,491,492,491,493
634,492,492,491,493
632,491,492,491,494
612,491,493,491,494
521,491,495,493,493
431,491,493,492,493
390,492,494,494,493
369,490,496,492,491
374,492,495,491,492
383,493,496,492,494
420,489,495,492,492
480,490,495,491,492
543,490,495,491,494
617,490,494,492,495
637,490,494,492,493
627,492,496,490,494
580,490,496,491,493
475,492,491,492,492
408,491,490,492,492
375,492,492,492,492
368,492,492,490,492
375,490,493,492,492
394,491,490,490,492
447,491,493,491,492
505,490,491,492,494
578,489,492,492,494
633,490,494,491,494
632,490,496,492,492
622,491,495,492,495
535,492,499,493,493
439,491,498,493,493
394,491,496,491,493
369,490,495,492,494
370,489,491,491,492
382,492,492,493,494
414,490,493,492,493
471,491,490,492,493
534,491,491,491,494
610,491,494,491,492
638,491,494,492,494
627,491,492,491,493
585,491,493,492,493
488,492,493,492,493
413,491,494,491,492
378,492,495,493,494
368,492,496,491,493
376,491,492,491,491
391,491,489,490,492
439,492,492,491,492
498,490,492,492,492
567,491,491,492,493
630,491,492,491,493
634,489,495,493,494
622,490,495,493,494
548,490,495,491,492
447,491,494,492,492
396,490,492,491,491
370,491,494,491,492
369,492,491,491,493
379,491,489,490,492
408,490,494,491,493
463,490,494,491,492
526,489,495,492,493
604,489,495,493,493
638,491,497,492,492
631,491,496,491,492
593,490,490,492,493
500,492,489,491,493
417,490,492,491,492
380,491,493,491,494
367,489,495,492,495
374,490,500,491,493
386,489,504,495,494
433,491,505,491,492
492,490,506,493,493
560,490,506,492,493
629,492,504,491,494
636,490,497,491,494
623,490,493,493,493
562,491,487,491,493
456,491,483,491,494
402,490,484,492,494
369,493,482,490,492
369,490,490,492,493
378,490,492,491,491
405,491,494,490,492
458,490,494,491,492
519,490,495,490,492
595,491,494,492,491
636,490,495,492,494
633,492,500,490,494
606,489,501,495,495
514,491,504,494,494
428,490,502,492,493
386,490,496,492,492
370,491,492,493,493
374,492,483,490,492
382,492,485,490,494
424,491,489,490,493
485,490,494,490,492
549,489,493,492,492
622,493,495,492,492
638,491,496,492,492
627,491,495,492,492
576,492,493,492,493
467,491,489,492,493
406,490,493,494,493
370,492,494,492,493
367,490,494,492,495
377,490,495,492,496
399,489,500,492,492
451,491,503,491,493
512,490,500,490,494
585,490,495,491,492
635,491,497,491,493
634,492,495,490,494
616,490,496,494,492
525,491,491,492,493
433,491,488,491,494
389,490,482,492,495
368,489,487,492,493
374,490,496,490,494
381,491,500,492,493
421,489,498,492,494
479,491,502,492,493
541,491,505,493,494
616,491,506,493,495
639,492,502,493,495
628,489,490,491,493
584,493,481,492,492
479,491,485,491,494
411,490,495,492,493
377,491,495,491,492
369,490,488,493,495
376,492,492,491,493
395,490,498,490,492
442,490,492,490,492
502,490,496,491,493
573,489,488,490,491
631,491,494,493,493
636,491,497,491,495
623,491,507,494,493
540,492,510,495,496
442,491,513,494,496
396,491,519,496,495
371,493,514,495,494
373,491,503,493,495
379,491,496,492,495
410,490,480,492,494
469,491,481,489,491
530,490,472,491,490
608,491,475,490,490
639,492,485,490,492
629,492,487,490,492
591,492,492,491,494
493,491,496,492,493
416,491,499,492,495
379,492,507,492,492
367,491,502,494,493
376,492,514,494,495
391,491,519,494,495
437,491,513,494,496
499,490,525,496,497
567,490,522,492,494
629,491,504,494,496
636,490,497,494,496
623,493,474,490,491
554,494,480,492,494
451,493,481,490,493
399,490,480,491,493
369,490,482,491,492
371,495,496,491,493
380,492,506,490,493
407,494,515,492,495
464,492,501,494,494
522,490,492,495,495
601,494,502,494,497
638,494,515,496,498
633,497,529,496,500
606,495,540,496,499
508,491,530,494,496
422,487,516,492,495
387,491,492,490,494
369,492,461,491,492
373,490,470,492,493
388,492,498,491,494
430,493,492,490,493
488,494,476,489,494
555,489,477,492,495
623,490,490,494,496
640,493,497,493,498
627,493,476,492,492
565,494,464,493,492
462,493,484,494,493
404,490,493,489,491
368,489,491,493,491
369,494,496,494,492
379,494,497,495,491
402,492,506,495,493
455,489,505,493,494
516,491,505,491,495
590,491,497,489,494
636,490,493,492,494
630,491,491,491,495
609,492,493,493,496
520,492,502,494,496
430,493,503,498,495
390,492,514,493,495
371,491,527,494,495
375,491,509,492,494
384,492,485,491,494
423,490,490,494,496
482,491,498,493,497
549,491,495,491,496
618,490,468,492,492
636,489,471,493,494
629,490,490,489,495
578,493,488,492,493
474,491,498,492,492
410,491,497,492,491
374,492,508,491,492
368,492,496,492,492
376,493,483,491,490
398,492,486,490,493
447,490,485,490,493
508,489,474,494,494
582,490,498,496,497
636,492,509,493,496
637,492,515,493,499
622,494,516,493,499
533,492,503,493,495
436,497,488,493,493
393,501,488,492,492
369,504,487,493,492
374,503,500,494,495
383,497,496,490,493
417,491,491,493,491
474,495,486,492,492
537,494,499,492,491
613,495,491,495,491
637,496,493,495,492
630,487,497,493,494
584,491,487,496,493
484,492,491,496,494
413,489,505,495,494
378,492,497,491,494
367,490,482,489,496
375,492,477,489,493
394,491,500,489,496
443,490,511,492,502
506,491,517,491,501
575,490,529,494,500
634,491,543,498,498
640,491,522,497,493
623,493,455,496,493
546,494,471,491,493
445,489,471,490,492
397,492,487,492,495
368,492,486,492,494
371,495,486,493,497
381,493,493,493,495
410,492,502,495,491
468,491,496,493,493
531,489,515,493,494
610,487,508,494,494
640,488,507,493,494
632,486,504,494,498
598,493,482,495,500
499,501,488,494,497
419,504,477,491,497
383,508,495,489,490
368,503,488,486,491
373,487,494,493,493
391,496,502,495,493
434,503,497,496,493
497,508,489,494,493
562,500,485,491,495
628,494,505,491,497
638,492,505,493,500
626,490,512,492,499
561,488,535,499,498
457,487,512,496,494
402,492,514,494,495
371,495,504,496,493
371,498,480,497,490
378,484,463,491,488
401,487,468,492,488
460,494,478,495,493
520,494,484,493,493
599,494,496,491,493
637,491,494,491,494
629,485,483,492,492
607,492,498,499,496
510,490,511,497,499
424,488,511,491,498
389,492,494,489,497
368,495,489,491,499
376,502,484,490,496
389,510,493,486,493
429,502,506,491,494
488,492,506,495,494
553,482,510,492,493
621,490,518,491,494
640,496,502,491,493
626,490,477,496,492
571,490,498,497,496
467,494,508,494,497
407,491,506,494,498
371,486,505,495,495
369,493,475,493,494
376,493,468,489,494
397,489,472,488,491
452,489,479,489,489
514,488,503,498,493
589,493,505,495,496
639,497,511,496,497
636,501,500,496,497
619,502,498,497,497
526,503,487,491,492
430,498,466,495,489
392,498,494,492,493
368,492,513,496,494
373,494,521,494,497
386,493,532,493,499
423,485,517,495,501
481,489,501,495,500
547,494,486,490,497
621,497,497,493,494
639,491,502,496,492
632,487,513,495,494
581,492,519,504,497
480,492,516,500,500
413,490,518,495,498
375,487,461,487,493
368,491,467,487,494
377,495,459,489,491
398,494,478,496,496
447,492,493,496,490
507,489,508,493,493
578,491,500,493,494
632,495,500,491,495
636,495,518,495,495
621,491,492,495,497
537,491,502,493,494
440,496,479,493,495
395,492,469,488,494
367,488,465,488,491
371,485,492,496,495
382,490,509,495,492
414,490,513,496,491
472,491,518,491,494
536,493,527,494,498
614,492,534,496,499
639,488,490,490,494
631,492,461,485,492
590,494,481,490,495
492,495,504,498,494
417,498,494,495,497
379,495,486,494,497
370,491,496,499,493
376,489,492,497,496
390,496,512,498,501
443,503,530,495,499
504,498,520,491,494
568,480,486,486,492
632,481,471,486,488
635,492,472,492,488
622,495,486,492,492
552,493,496,495,495
449,494,509,497,496
401,497,523,499,500
372,490,519,500,499
374,489,533,499,497
384,493,543,491,494
408,494,503,491,492
462,492,448,489,492
524,494,442,489,489
604,505,467,498,491
637,498,485,490,492
629,489,487,491,495
602,495,497,495,500
504,493,502,493,497
422,494,517,498,494
387,487,515,493,493
370,484,522,496,498
377,488,508,496,495
386,491,459,490,491
431,488,469,490,490
492,490,482,492,488
556,488,488,492,494
624,490,512,496,497
640,494,528,496,495
625,495,519,491,492
566,492,515,494,493
460,493,489,497,493
404,499,511,498,497
371,497,485,496,492
368,494,479,492,492
379,490,458,490,494
401,486,469,485,496
457,484,500,493,502
521,489,521,502,503
600,492,527,492,500
642,488,524,496,502
637,487,520,494,492
613,493,501,495,484
515,492,456,489,485
424,492,462,489,489
388,492,470,493,492
370,498,495,496,496
376,496,515,497,495
386,486,511,498,491
425,486,495,490,490
482,489,479,494,492
549,491,517,494,496
622,492,524,487,497
636,489,482,488,499
626,489,484,488,497
574,491,485,491,491
470,492,486,493,489
407,491,477,494,490
371,487,479,494,491
370,491,492,493,492
379,491,504,494,493
400,490,495,494,494
449,491,459,491,492
508,490,485,496,493
584,490,499,491,494
633,488,506,490,492
633,490,504,493,494
617,494,508,494,496
530,491,509,490,493
433,491,488,494,495
393,490,479,491,493
370,489,496,490,493
373,489,513,496,496
384,491,518,495,492
419,494,489,497,492
475,495,449,492,494
540,499,497,494,495
615,499,517,490,497
638,492,516,485,493
630,484,476,485,494
583,487,458,487,490
481,492,481,500,490
412,491,509,498,494
376,493,525,498,497
372,491,534,498,499
377,488,491,492,495
394,496,477,492,493
444,503,473,492,495
505,506,497,491,497
575,488,528,489,497
634,484,540,492,493
637,491,530,499,496
620,494,476,492,488
538,490,459,489,487
439,483,477,488,489
396,487,510,491,497
369,491,471,489,495
370,494,475,498,499
385,494,512,499,497
415,491,522,499,493
468,483,497,493,492
530,488,475,494,488
607,491,458,493,491
634,490,463,490,494
629,489,503,493,497
591,489,504,485,494
495,491,503,492,492
417,491,498,496,495
379,495,505,501,498
371,494,475,486,497
376,490,470,488,493
389,491,501,491,492
439,486,527,492,487
496,492,489,491,488
563,492,501,493,497
628,495,501,499,497
638,496,501,503,495
623,494,486,501,490
555,491,465,487,492
450,492,477,491,492
399,495,503,487,492
370,493,509,489,493
367,485,469,489,488
378,489,472,492,493
406,492,499,489,493
461,484,512,491,497
523,486,530,494,497
604,488,507,494,495
636,489,482,492,496
630,488,470,491,491
602,490,477,494,490
504,493,478,493,493
421,492,487,493,496
385,491,503,497,500
371,492,525,491,495
378,495,515,490,493
384,505,484,493,490
431,494,484,490,490
487,480,481,487,492
552,487,476,493,490
621,490,473,496,493
637,488,503,495,495
625,492,525,495,497
569,496,519,493,496
463,490,474,488,492
402,491,475,493,494
372,490,492,494,500
369,490,507,493,497
380,490,510,488,493
401,489,493,487,489
453,491,479,490,485
512,492,462,490,491
588,491,478,489,492
633,488,490,491,493
633,490,491,492,491
613,494,488,497,493
521,494,496,496,496
429,495,496,493,494
389,495,490,489,490
368,490,473,490,491
371,488,472,492,490
381,488,476,490,488
421,489,483,491,491
480,489,494,489,492
544,487,517,493,495
619,488,527,491,495
640,495,519,491,492
627,491,490,492,495
577,496,479,490,494
473,499,500,492,493
407,489,503,489,497
372,480,500,491,498
370,493,508,496,496
379,494,495,494,496
398,491,498,494,495
447,486,480,492,493
508,484,473,491,491
582,488,494,491,490
634,490,510,494,491
635,490,506,490,493
617,488,483,489,491
532,488,469,491,497
437,489,497,492,501
397,489,509,493,501
373,486,532,494,503
378,486,527,498,490
383,489,497,500,484
415,496,468,494,485
471,496,439,485,486
533,496,472,489,489
611,491,486,497,493
635,489,464,488,489
626,484,503,487,496
586,489,518,492,498
488,490,490,494,496
414,492,503,498,497
376,490,508,491,494
370,491,518,491,487
374,491,488,487,487
387,491,454,482,487
436,493,468,487,490
499,494,486,489,493
570,490,508,494,498
632,499,508,499,499
639,504,524,502,500
627,496,476,493,495
547,487,463,488,491
444,480,482,490,487
396,483,493,491,483
364,490,490,493,491
369,495,496,498,494
381,498,492,495,496
408,495,511,493,498
466,483,501,490,498
528,479,526,495,497
609,486,501,490,491
638,491,498,485,491
630,489,500,485,491
595,493,490,490,492
499,501,481,496,492
420,501,512,496,496
383,499,499,495,495
366,481,470,482,491
374,482,493,491,492
384,491,493,492,488
434,490,482,493,489
491,491,470,491,492
558,491,474,489,493
625,493,485,489,496
637,489,509,491,496
625,489,500,493,491
560,496,485,493,497
454,489,474,492,496
403,486,482,491,489
371,491,481,491,490
367,495,488,492,488
380,493,518,497,491
401,491,504,493,493
458,486,514,493,498
520,484,506,492,500
597,485,497,488,494
636,487,515,495,495
637,488,530,495,494
608,491,510,499,491
514,491,496,491,489
422,491,453,485,489
384,488,489,492,493
368,488,478,487,495
374,490,472,487,499
384,488,481,490,499
428,491,473,492,495
487,498,493,492,488
551,501,501,496,492
622,496,490,488,490
636,483,481,488,488
623,480,467,492,486
571,493,480,496,489
466,498,488,499,494
406,498,517,496,496
375,493,543,491,497
371,486,547,491,497
379,483,483,490,490
397,485,446,492,486
447,490,467,488,490
511,487,474,485,492
585,485,499,489,495
633,490,512,493,500
634,487,517,492,502
617,487,524,491,498
528,488,505,495,496
435,495,494,491,489
391,491,472,500,492
371,489,497,497,493
375,488,496,492,494
383,492,485,491,491
418,492,484,489,490
478,492,502,490,494
541,492,503,495,495
615,489,488,493,494
637,486,489,486,493
628,486,477,490,488
578,490,483,492,491
478,491,491,493,494
412,492,500,489,495
376,489,486,483,495
369,490,481,487,493
378,491,504,493,498
400,494,518,491,492
445,489,500,486,485
501,483,476,491,490
575,483,472,494,491
629,491,479,491,491
634,499,497,495,494
620,501,515,495,492
537,495,508,492,492
440,486,491,488,492
393,486,485,493,491
365,487,492,492,494
371,491,500,491,494
382,490,486,490,493
413,489,490,491,491
471,495,485,494,490
531,502,482,493,491
610,497,492,493,492
636,487,482,488,491
625,476,485,496,495
588,489,495,504,496
494,493,499,494,493
415,489,501,492,495
381,489,490,491,493
366,487,489,485,491
376,488,491,485,495
392,491,480,488,494
438,487,501,488,493
498,488,508,490,490
567,489,504,493,494
627,490,497,497,495
635,488,501,495,495
624,488,496,492,492
550,491,489,496,493
449,491,497,491,494
400,493,507,483,489
369,494,471,485,490
369,496,481,488,493
380,491,499,491,489
403,491,486,491,490
462,490,483,487,490
520,486,473,492,492
600,480,481,495,492
636,489,490,497,492
632,494,501,496,492
599,492,502,479,495
502,491,499,489,498
421,490,517,494,498
384,491,505,495,498
370,492,497,494,491
375,489,469,490,490
384,490,482,491,488
432,490,502,491,491
489,487,494,487,491
555,486,474,489,492
621,487,485,489,495
635,491,494,490,494
626,492,488,488,492
562,493,485,491,491
458,487,481,493,490
402,488,500,494,489
370,491,489,495,489
369,496,511,496,491
379,495,518,497,494
404,490,522,494,496
456,484,495,494,493
516,487,486,490,494
592,486,497,484,499
635,488,496,488,497
632,488,480,489,497
607,488,450,491,497
517,490,476,490,484
425,490,479,490,482
386,489,493,489,487
365,488,503,488,490
371,489,493,489,494
382,491,508,492,494
424,490,498,492,494
482,492,493,495,495
549,493,505,493,493
618,487,491,486,489
635,482,478,482,489
625,486,488,495,493
573,495,504,496,493
472,498,496,491,494
406,500,490,488,494
371,497,513,484,499
367,486,484,483,500
377,491,458,489,499
400,492,483,494,492
449,484,480,497,490
511,489,492,497,488
583,487,498,491,487
633,489,492,492,490
632,489,483,491,491
614,487,483,486,492
528,487,489,491,493
432,494,489,490,492
389,491,489,491,495
367,492,496,492,493
373,495,505,495,492
383,488,508,489,494
417,489,521,494,492
475,495,514,498,493
539,493,501,490,493
614,483,480,486,493
634,483,468,488,489
628,489,472,491,493
581,490,478,493,494
482,495,487,492,493
411,493,479,490,490
376,485,480,482,489
365,493,500,491,490
375,493,515,492,491
394,493,506,488,492
440,488,467,491,493
502,494,491,491,491
573,495,503,491,496
630,493,497,493,496
635,490,489,500,497
623,490,488,498,491
542,491,481,492,490
442,493,473,490,491
394,491,497,484,496
367,488,515,480,495
370,492,516,490,493
379,492,495,492,495
407,492,480,491,493
467,490,473,491,490
525,493,478,493,490
607,491,484,499,489
635,493,487,497,490
628,491,503,493,493
592,492,508,498,497
493,492,498,494,493
413,491,491,491,493
378,491,489,488,492
361,490,483,491,494
370,489,494,490,496
383,492,492,487,494
432,490,508,488,497
493,492,511,487,494
560,492,515,490,491
624,493,487,490,489
629,492,480,493,489
620,492,505,491,493
550,492,507,490,493
447,492,481,487,493
395,490,502,489,494
364,489,482,491,492
364,490,476,492,492
376,493,473,491,496
400,491,476,485,491
458,492,485,488,489
517,492,491,489,487
595,491,496,489,489
632,491,508,487,489
627,488,489,490,490
600,492,493,492,492
507,492,498,492,491
418,491,470,494,491
384,492,475,490,494
366,494,481,491,492
371,497,491,494,493
384,496,490,491,494
426,489,491,491,496
486,486,497,490,498
554,491,505,491,497
624,492,521,493,496
638,492,517,492,489
627,493,503,488,489
570,492,496,491,492
465,489,496,494,493
404,492,486,487,490
368,490,455,486,494
367,493,490,494,495
378,495,489,494,495
399,493,484,489,492
452,488,487,485,489
510,486,485,487,487
588,489,496,492,494
634,496,501,490,492
631,495,496,490,493
611,492,489,490,494
522,488,479,495,490
427,488,478,492,491
389,490,485,491,494
369,491,507,492,495
375,494,521,494,495
385,492,510,490,495
421,490,498,488,492
478,486,484,490,494
545,489,488,490,492
616,490,476,491,491
634,491,476,494,490
627,496,489,497,496
580,493,495,493,497
476,491,491,491,497
412,495,484,488,494
375,497,491,488,491
369,493,501,487,490
378,486,512,497,490
393,485,512,491,488
446,486,473,487,489
503,490,475,488,491
576,488,492,491,494
632,487,488,489,494
632,492,486,488,492
617,492,490,490,494
536,496,495,493,495
439,502,501,495,492
394,504,493,493,492
370,491,497,497,494
370,482,505,490,494
383,490,504,491,495
415,489,492,489,489
469,486,464,486,489
532,489,480,485,493
612,492,480,487,494
636,488,483,490,493
628,489,485,496,493
587,492,503,491,494
489,490,509,491,495
414,489,494,491,495
381,487,500,491,497
369,492,493,492,494
379,498,504,496,495
394,498,513,492,492
440,491,500,484,491
498,478,466,484,489
565,488,467,491,485
627,489,477,489,488
631,488,483,487,491
619,488,486,490,493
546,493,492,489,492
447,493,493,490,494
397,494,492,492,493
371,492,493,494,492
370,487,490,491,491
378,486,489,491,492
407,488,488,488,492
463,489,495,490,492
525,492,502,492,494
604,492,500,493,494
636,492,495,492,493
630,490,494,492,495
595,491,486,490,492
502,492,487,491,496
418,492,503,489,497
384,493,498,490,494
368,490,494,491,493
373,489,485,490,487
385,487,476,487,486
431,488,480,490,490
492,490,489,489,491
558,490,495,490,491
624,491,497,491,494
635,489,494,488,491
623,489,483,493,492
559,492,487,492,492
457,492,495,490,492
400,490,489,489,493
370,493,488,490,492
370,491,490,490,492
376,491,494,491,492
404,486,494,487,493
457,488,491,487,493
516,489,488,489,490
593,490,486,493,489
633,493,492,492,490
631,494,496,492,493
605,490,491,493,493
512,489,492,492,493
423,487,488,494,493
386,491,496,496,492
370,489,496,495,495
375,492,493,488,493
384,494,484,487,490
423,490,475,487,490
484,491,487,486,492
547,487,482,484,490
620,485,493,489,493
637,488,495,491,493
628,490,499,492,493
574,491,493,490,494
468,490,492,495,490
405,490,492,495,491
370,492,496,491,493
367,490,492,490,493
376,488,494,488,492
395,486,494,488,491
451,489,489,491,491
509,490,499,491,493
587,489,514,493,493
635,490,502,494,494
633,491,496,492,495
616,489,491,490,492
525,492,468,489,491
431,487,479,484,491
390,488,487,489,494
367,487,484,491,492
371,487,481,490,491
381,488,489,493,491
416,488,493,493,494
477,489,495,492,493
541,489,495,489,492
614,491,484,491,491
638,490,492,494,496
628,488,493,488,493
583,489,492,489,495
481,489,491,488,493
411,489,484,492,491
377,488,502,495,491
368,488,512,499,490
377,491,511,496,492
393,488,509,493,492
443,489,484,488,490
501,489,476,486,492
570,486,489,487,491
631,488,487,489,492
632,489,485,488,492
622,491,495,494,492
541,495,501,494,494
442,495,496,490,494
395,488,489,491,491
368,490,475,492,491
370,487,480,488,493
379,484,485,489,493
410,485,491,492,491
467,488,499,491,493
532,488,503,490,494
608,488,486,489,492
638,489,489,491,493
631,491,483,490,489
590,491,486,491,491
492,490,493,492,492
416,489,491,490,493
379,491,491,491,496
367,488,489,491,494
376,489,500,492,493
389,488,511,493,495
436,489,512,492,494
496,490,480,489,493
562,490,480,487,492
628,489,486,487,493
634,492,490,491,492
622,494,496,494,491
553,494,499,492,494
451,488,496,492,494
399,485,493,493,493
370,487,479,489,490
370,491,490,488,492
377,488,491,487,491
406,485,490,485,491
460,483,479,490,491
521,489,485,489,493
600,490,489,491,493
634,488,487,492,492
630,490,487,493,494
601,488,488,491,495
505,489,489,491,493
421,489,485,490,491
385,491,491,490,490
368,488,497,493,491
374,489,496,490,490
386,489,498,490,494
428,488,497,491,492
489,489,487,489,493
553,488,490,488,493
622,490,489,491,492
638,488,494,490,495
625,489,494,488,492
568,491,490,490,492
462,491,487,491,491
403,492,487,494,493
369,490,489,491,491
369,491,499,494,493
378,487,500,493,493
401,486,491,490,491
453,488,487,491,492
513,489,489,491,494
594,489,494,491,492
634,488,497,490,492
631,491,493,490,494
610,491,495,489,494
517,488,494,490,493
428,489,488,492,494
389,491,493,491,493
368,489,480,491,493
374,489,487,489,494
385,489,498,488,491
422,487,492,489,489
481,489,490,490,490
545,488,491,490,492
617,489,489,490,492
636,488,486,491,492
626,488,487,489,491
575,489,489,492,492
472,491,500,491,492
407,489,505,491,492
374,490,505,491,491
369,490,493,489,490
374,490,481,491,493
396,488,485,488,494
447,488,485,489,492
506,489,484,490,493
580,487,483,491,492
632,489,490,492,490
631,489,492,491,491
620,490,496,491,494
528,490,491,493,492
435,490,493,491,492
392,490,496,490,492
367,490,493,493,491
372,488,488,493,493
381,491,489,492,492
413,488,490,494,491
472,490,493,493,490
536,490,493,491,492
609,490,489,489,491
637,492,489,490,492
627,491,487,491,494
584,492,489,493,494
485,491,492,490,493
412,490,494,491,495
378,491,497,489,496
369,489,495,489,494
374,489,493,491,491
393,490,488,488,492
442,488,497,486,492
500,488,495,487,493
569,488,495,488,493
631,489,496,489,494
633,488,489,490,494
621,489,481,492,493
544,491,488,493,490
445,492,492,494,491
397,491,489,492,493
367,492,491,492,491
370,493,490,491,493
380,492,488,490,492
407,490,492,490,492
466,489,494,490,492
528,490,492,490,494
605,488,500,491,494
639,489,507,491,493
632,491,507,490,493
596,491,498,492,494
496,491,476,490,491
414,488,478,489,491
378,488,488,489,491
367,488,493,492,493
374,488,497,494,490
388,491,498,496,493
434,488,491,492,491
492,489,485,492,491
561,490,489,493,490
627,492,491,492,490
634,491,492,495,491
622,494,492,494,491
558,495,493,497,492
453,495,492,496,491
399,492,490,496,489
367,490,491,494,490
366,490,494,497,492
378,488,493,496,492
404,488,500,499,489
457,487,495,488,490
519,489,491,487,492
596,491,494,487,491
635,491,497,488,494
630,491,496,488,491
605,492,492,493,499
511,496,487,496,496
424,494,492,494,494
387,494,495,490,494
371,492,498,492,495
374,490,491,492,493
385,494,500,490,493
428,493,501,489,493
487,492,492,487,491
551,492,481,488,494
621,493,483,490,493
637,491,489,496,492
627,490,493,504,492
573,489,493,501,493
464,488,492,497,492
405,487,489,491,493
370,488,490,491,493
366,490,491,495,493
377,491,493,496,494
399,494,495,495,492
452,498,496,494,492
512,497,498,495,491
586,497,495,497,489
635,499,497,496,492
632,498,495,484,492
615,497,493,491,491
522,491,492,483,496
430,485,492,483,493
388,483,497,486,496
367,483,500,489,495
374,484,494,489,493
381,484,494,490,492
420,483,484,490,492
478,486,491,490,492
543,488,493,491,492
617,489,487,491,493
637,488,491,490,492
628,488,491,491,495
584,491,494,493,494
477,489,493,496,493
410,489,493,499,493
376,489,494,501,492
369,491,494,492,493
374,490,493,494,491
395,489,493,495,491
444,491,493,491,491
504,491,492,491,493
575,490,491,492,494
631,490,493,490,493
634,488,493,481,494
618,489,494,481,492
536,489,494,487,493
440,490,494,494,492
395,492,492,499,494
367,492,491,496,494
372,491,493,500,493
379,491,492,499,495
411,490,494,485,494
470,490,493,499,492
533,491,494,512,493
612,490,492,504,494
637,491,495,504,491
630,491,495,498,492
590,492,495,490,493
491,491,495,490,492
413,490,494,490,493
377,491,491,489,491
368,492,492,485,494
373,488,492,485,494
388,488,491,490,492
438,490,492,491,492
497,489,493,493,492
566,488,490,486,491
630,490,493,490,492
634,490,492,492,493
623,490,493,490,492
552,492,496,497,493
450,493,495,500,493
401,494,495,505,495
369,492,495,498,494
372,493,491,503,491
381,493,490,483,494
408,491,492,488,493
463,488,493,475,492
523,488,493,484,491
602,489,492,485,493
636,490,492,489,494
629,490,496,494,491
601,491,493,496,495
505,494,496,503,493
418,493,493,510,493
384,490,492,505,494
368,488,492,487,492
372,490,490,480,490
387,489,490,483,493
430,491,494,489,490
489,490,495,491,492
557,490,494,490,491
625,489,496,489,492
634,489,493,490,491
626,490,493,485,494
560,489,488,491,493
458,489,491,495,493
403,489,492,491,491
369,490,493,492,491
369,488,492,492,493
379,490,495,491,491
402,491,494,494,492
456,490,493,494,491
517,490,492,494,491
595,490,495,496,493
635,489,493,494,492
630,489,495,486,492
608,489,494,482,492
516,491,495,490,493
426,491,494,493,493
387,491,494,496,495
367,489,493,491,492
372,491,495,495,492
384,491,495,502,491
425,490,494,502,493
480,490,495,502,492
548,490,493,488,492
620,493,493,484,493
635,494,494,486,494
626,493,493,478,495
577,495,496,489,494
470,492,494,492,492
408,491,495,492,492
372,489,495,500,491
368,489,494,499,491
377,490,494,492,490
399,488,494,492,492
448,490,494,498,492
510,489,495,502,492
582,489,494,505,493
633,489,494,498,494
633,488,493,466,492
615,492,495,483,492
529,492,493,486,492
434,491,495,489,491
391,492,495,492,491
369,492,492,495,492
372,490,495,492,493
379,488,493,485,491
418,488,493,482,492
473,489,494,488,493
537,488,493,491,493
614,490,492,489,492
635,492,496,490,492
627,491,493,491,491
585,494,496,491,492
482,493,496,494,492
411,491,494,491,492
375,490,494,493,491
367,488,493,494,493
375,491,494,495,491
390,488,494,493,492
442,489,492,492,492
503,489,494,492,491
571,489,492,491,492
631,490,495,493,493
635,489,494,492,492
619,493,495,491,492
540,490,494,491,493
444,491,496,492,491
396,491,495,492,495
370,493,494,489,491
370,490,495,492,491
379,490,495,493,491
411,490,495,493,492
465,490,493,492,491
527,491,493,494,493
608,492,492,494,493
635,491,493,491,494
627,491,494,492,495
591,493,495,489,493
495,497,497,491,493
415,493,495,495,493
380,494,495,497,491
367,494,496,493,491
375,493,495,491,492
389,493,495,492,492
434,492,495,492,492
496,488,495,493,492
561,484,494,494,494
625,485,496,495,493
636,485,495,493,493
622,490,493,492,492
556,490,494,490,493
453,491,496,490,492
399,491,496,488,492
369,493,494,489,492
368,491,495,492,491
376,492,494,492,491
407,492,495,491,493
459,490,495,493,492
519,488,494,495,492
600,489,495,493,491
636,492,493,493,493
628,492,495,492,492
601,490,494,492,492
506,492,495,489,492
420,491,495,489,493
384,492,494,490,491
369,494,496,493,493
373,491,495,492,492
385,491,495,495,492
429,495,495,493,492
487,496,495,492,492
554,495,493,492,493
623,497,494,490,493
637,493,495,491,494
623,487,494,492,494
565,483,495,492,494
463,485,496,493,493
405,487,496,495,493
370,489,495,493,493
370,488,496,492,492
378,489,497,491,492
401,490,496,491,492
454,490,495,491,492
512,489,495,490,492
588,489,495,492,492
636,489,495,492,493
631,489,496,494,494
612,487,495,494,494
523,490,496,492,493
428,489,496,492,494
390,488,494,492,491
370,490,495,492,492
372,491,495,492,493
383,490,494,492,492
423,490,494,491,492
480,489,496,491,493
545,489,494,492,494
616,488,496,493,493
638,490,496,492,492
626,489,494,491,492
579,491,497,494,494
475,490,496,492,493
409,491,495,491,493
372,492,495,491,494
367,490,494,492,495
378,492,496,490,491
396,490,495,492,493
448,491,494,491,492
507,490,495,492,492
580,491,496,492,493
633,491,495,492,493
633,489,495,491,493
617,487,496,494,493
531,490,496,491,493
436,489,495,491,493
392,488,494,491,495
372,491,495,489,493
371,489,495,492,494
381,489,496,493,492
416,490,496,490,492
472,490,495,491,492
534,490,494,491,493
611,490,494,490,493
638,490,496,494,494
627,488,494,493,495
584,488,495,493,494
487,489,495,493,494
414,489,495,492,493
376,491,497,494,492
369,488,495,493,494
376,491,495,491,493
390,492,494,491,493
439,490,494,491,493
500,489,495,491,493
567,488,493,491,492
631,490,494,492,493
635,490,496,492,492
623,489,498,493,492
548,491,496,492,494
446,490,497,492,493
397,489,496,494,492
369,492,494,491,494
368,489,494,492,494
379,489,494,492,492
411,491,495,492,493
464,489,495,491,492
526,489,495,492,492
606,489,496,492,491
637,490,496,491,492
630,491,495,490,492
596,489,496,494,493
499,491,496,490,494
418,490,495,492,494
381,489,494,491,495
367,488,495,493,493
376,489,494,489,493
386,489,496,491,492
432,489,494,490,492
494,490,495,491,492
559,491,494,491,492
626,490,494,491,492
638,490,496,491,494
622,489,497,492,492
563,490,496,493,494
456,491,496,493,493
402,490,496,493,493
372,491,494,491,495
370,491,496,491,494
379,489,495,490,492
405,492,494,491,493
458,491,494,491,492
518,489,494,491,494
595,489,495,490,492
636,488,495,492,493
632,490,494,490,492
608,490,496,492,493
513,490,496,493,493
425,490,496,492,494
388,489,495,490,491
369,491,495,493,493
375,491,494,492,494
384,490,493,492,494
425,489,494,492,493
485,490,495,491,492
550,489,495,493,492
621,491,494,492,492
638,491,495,491,492
627,491,497,492,492
574,492,496,494,494
468,490,496,492,492
405,490,495,492,492
370,490,493,492,494
368,489,495,492,494
377,490,495,493,495
399,488,495,492,493
451,490,495,492,493
511,490,494,492,494
586,491,495,490,491
633,491,495,491,493
632,491,494,491,494
615,490,497,492,492
523,490,495,493,493
433,491,496,493,493
392,490,495,493,494
368,490,495,493,491
373,491,496,492,494
382,489,497,491,492
419,489,495,493,494
479,489,494,491,492
541,490,494,490,493
614,490,493,492,494
639,490,495,490,494
628,489,496,490,493
583,492,496,493,493
480,490,495,492,493
412,490,496,492,492
377,491,497,492,493
369,490,494,493,493
374,491,494,492,492
395,490,496,491,493
443,490,494,491,492
503,490,494,493,494
574,488,494,491,492
632,490,495,492,492
635,489,493,492,495
623,491,497,491,492
539,492,496,492,492
441,491,495,491,493
396,490,496,492,493
367,491,494,494,492
372,491,494,494,494
381,490,494,494,494
411,489,495,494,493
469,489,494,491,492
531,490,495,492,491
608,489,493,493,493
639,491,494,490,493
629,491,494,490,492
589,491,494,493,494
493,491,495,492,493
416,490,495,492,493
378,492,495,492,492
369,489,495,493,492
376,490,495,492,492
390,490,496,491,492
436,490,493,490,492
497,491,495,492,493
565,489,492,491,492
628,490,493,493,494
634,489,493,493,494
622,489,496,491,492
554,491,495,493,494
450,490,495,492,493
400,490,496,492,492
370,490,496,491,492
369,491,495,491,494
379,490,494,490,492
405,491,495,492,493
462,490,494,491,494
523,489,493,492,494
601,489,494,493,493
637,489,495,492,492
630,490,492,491,491
601,491,497,493,495
504,491,496,492,493
421,491,495,491,493
383,492,494,491,493
367,490,496,492,492
376,490,494,492,494
386,492,495,491,494
431,490,494,491,493
489,490,494,490,492
555,489,495,491,494
623,490,494,491,492
636,491,495,494,493
626,491,494,492,493
565,492,495,493,493
461,491,495,492,493
404,491,495,491,492
369,489,494,492,493
368,491,494,493,493
380,490,495,492,491
403,490,495,492,492
455,490,494,491,493
515,490,493,492,494
592,492,494,491,493
636,490,495,492,494
631,489,493,492,495
608,489,494,493,494
518,490,495,493,494
429,492,494,492,492
389,490,494,491,494
367,491,495,491,493
374,492,495,491,493
383,492,495,491,493
422,490,494,492,493
482,490,493,491,492
547,490,495,492,495
617,489,494,493,493
637,490,495,493,492
627,490,495,491,494
576,491,496,493,493
473,491,494,492,494
409,491,494,491,492
374,492,494,490,493
367,491,493,491,493
375,490,493,492,492
400,492,495,492,493
447,490,494,492,493
509,489,493,492,493
582,490,494,493,492
633,491,495,492,492
634,489,493,493,494
618,493,495,490,495
530,490,495,492,493
437,491,494,491,493
391,490,494,491,494
367,490,494,490,493
372,491,495,493,493
382,492,493,491,494
418,490,494,492,493
475,490,494,491,492
537,491,495,490,492
613,489,493,492,493
637,491,493,491,492
629,491,493,492,495
584,490,493,493,494
485,491,495,491,494
412,490,494,493,493
379,492,493,491,493
369,491,495,492,495
375,490,494,491,493
393,493,494,491,492
441,491,494,491,492
500,491,493,492,492
573,490,492,491,494
629,491,495,491,493
636,490,494,493,493
623,490,495,494,493
545,491,496,493,493
445,491,494,491,492
397,491,495,493,495
367,489,493,490,493
370,491,493,490,494
380,490,493,490,494
408,490,495,492,493
469,491,494,491,494
528,491,493,491,493
609,489,494,493,492
640,491,495,491,492
631,492,495,491,492
596,493,495,494,494
499,491,495,492,493
416,490,495,493,492
381,490,493,491,495
367,490,494,493,494
374,490,495,493,494
388,492,493,491,493
435,491,494,492,493
494,491,494,492,493
564,491,495,490,491
628,491,494,490,493
636,491,495,493,493
626,491,493,490,494
559,491,496,493,494
455,491,494,491,494
401,490,494,493,494
369,489,493,493,493
369,492,493,493,492
380,491,494,491,494
402,492,495,491,492
461,491,493,491,492
521,491,493,490,492
597,491,493,490,494
638,491,495,491,494
631,490,493,490,492
606,492,493,493,494
511,491,494,492,493
422,491,494,493,492
386,491,493,491,494
367,491,495,491,491
372,490,494,493,493
385,492,493,490,492
427,491,493,490,492
485,490,494,491,492
553,491,495,491,495
621,490,494,491,493
637,490,494,493,492
628,491,495,492,492
572,492,496,492,493
466,491,494,492,494
406,492,494,491,494
369,490,494,491,494
367,490,493,491,494
376,490,493,491,494
398,490,493,492,493
452,490,494,491,493
514,490,494,492,492
587,491,492,490,492
637,491,494,491,492
634,492,494,490,492
616,492,494,491,494
524,491,494,491,493
430,491,494,492,492
391,490,493,492,495
368,490,493,492,493
373,490,494,492,493
383,491,492,490,494
422,490,494,491,493
478,490,493,491,493
543,491,493,490,492
618,492,493,491,493
636,490,493,492,491
629,492,493,491,495
579,492,495,491,493
476,491,494,492,494
410,491,494,492,492
374,490,495,494,492
368,491,495,492,495
376,490,494,490,493
394,493,494,493,493
445,491,493,491,493
506,491,493,490,493
575,490,492,490,494
632,492,494,490,493
636,490,495,493,494
618,492,493,494,493
538,491,495,493,493
439,491,495,492,492
395,491,495,493,495
368,489,493,490,493
370,491,495,493,492
380,490,492,491,494
412,490,493,491,493
470,491,493,491,494
534,491,493,490,493
612,490,494,491,493
636,490,495,491,492
631,492,494,491,492
591,493,495,491,493
490,492,495,491,492
414,490,493,492,492
377,491,493,491,492
368,492,495,492,494
375,490,493,493,494
389,490,494,493,493
437,490,494,491,493
498,491,494,491,491
568,489,493,492,495
630,491,493,491,493
635,491,492,491,494
621,491,493,491,495
551,492,495,493,494
450,491,493,491,492
398,492,494,493,494
369,490,495,493,492
371,492,495,493,492
379,491,493,491,495
405,492,494,491,492
462,490,493,491,492
523,491,493,490,493
602,490,492,490,494
635,490,493,492,494
630,490,494,491,492
601,494,494,494,494
503,492,494,493,493
420,491,494,492,492
385,492,495,492,491
368,493,494,490,492
374,490,494,493,493
385,492,492,493,492
431,490,493,491,493
491,490,493,491,493
557,490,493,492,494
624,490,493,491,494
635,492,495,491,492
624,490,493,493,492
564,493,495,492,493
460,492,494,491,492
402,492,494,491,492
370,490,495,491,494
368,490,495,491,492
378,490,494,494,495
402,490,494,492,493
457,490,493,491,492
516,491,494,491,492
593,490,492,492,492
637,491,493,492,493
632,490,492,491,494
609,492,493,491,494
516,491,495,492,493
426,491,495,492,492
390,490,493,492,495
369,492,493,491,492
374,490,495,492,491
385,491,495,491,491
424,492,494,491,493
483,490,493,491,492
548,492,494,492,492
619,491,492,492,494
637,490,493,492,494
627,490,494,492,495
575,493,494,492,493
471,491,494,492,493
406,491,493,492,492
373,492,496,491,492
369,492,494,490,493
377,492,493,491,492
396,492,495,493,492
451,491,493,491,493
510,491,494,491,494
584,489,493,492,494
635,490,494,492,492
634,491,495,491,495
615,490,492,491,492
530,492,494,492,493
433,492,495,492,493
393,492,494,491,492
369,492,493,491,494
370,492,496,492,493
382,489,492,492,492
418,492,494,493,493
475,490,493,492,493
540,490,494,492,492
615,490,495,492,494
637,490,494,491,492
629,490,495,494,494
582,492,493,492,494
483,492,494,492,493
412,491,493,491,493
375,490,493,492,493
368,491,493,493,493
377,491,493,491,493
390,490,495,492,492
444,490,494,491,493
503,491,494,491,493
572,489,494,493,493
631,491,492,491,492
635,491,495,493,494
621,489,493,493,494
542,491,494,493,494
443,492,494,492,493
395,491,495,493,492
370,491,493,492,494
370,492,495,492,493
380,492,493,490,493
410,492,493,490,492
467,489,493,492,494
529,490,492,491,492
610,492,493,493,493
638,490,494,492,493
631,491,495,492,492
594,491,496,493,492
495,491,494,492,493
417,491,494,491,494
379,489,493,491,492
366,491,492,491,494
374,490,493,491,493
385,490,492,491,492
436,491,493,492,493
497,491,493,490,492
563,490,494,493,492
629,491,495,491,492
636,492,494,490,492
623,489,493,494,493
556,491,494,492,493
452,491,494,491,493
398,490,493,491,495
368,489,493,492,494
370,490,493,491,493
378,491,494,494,492
403,490,492,491,492
461,490,494,492,492
522,491,494,490,492
601,492,493,490,493
635,491,493,492,493
633,491,492,493,495
601,493,496,491,492
507,491,494,493,494
421,491,494,492,493
386,491,495,492,493
366,490,493,491,492
375,493,495,492,494
385,490,494,492,493
429,491,494,493,492
488,491,493,491,492
552,490,495,492,491
624,490,492,492,494
638,492,493,490,493
627,490,494,494,494
569,491,495,493,493
464,491,494,492,493
403,490,493,491,492
372,492,492,492,493
368,492,493,489,493
376,491,492,492,493
400,490,492,491,493
453,490,493,492,493
514,491,493,490,493
592,489,493,490,493
634,491,495,492,492
634,492,494,491,492
615,493,495,490,492
522,492,494,494,493
430,492,494,492,493
390,492,495,493,494
365,490,493,493,494
373,490,494,493,493
384,491,494,494,493
420,491,493,493,493
481,490,493,491,493
543,492,494,490,491
619,492,493,490,493
637,491,492,490,493
626,491,495,494,492
577,491,493,492,493
476,491,494,492,493
408,490,493,493,494
373,490,493,493,493
369,491,494,492,493
377,491,492,492,495
393,492,495,491,492
446,490,493,492,492
507,491,493,490,493
578,491,492,490,493
632,491,493,492,492
634,492,494,493,494
620,489,494,490,492
533,491,495,493,493
439,491,494,493,493
395,491,495,491,492
370,490,494,493,493
370,493,493,491,492
383,491,495,491,494
412,491,493,492,493
472,491,493,491,493
535,490,493,490,492
611,492,493,493,493
640,490,492,491,494
630,492,495,491,492
588,492,495,492,493
489,492,494,492,493
413,492,493,491,492
377,490,494,491,493
366,490,494,491,492
375,490,492,493,494
389,489,493,492,494
440,490,493,492,493
499,491,493,492,493
570,490,494,491,494
628,490,493,491,493
635,491,493,491,494
622,492,493,491,494
548,492,493,493,493
448,491,494,491,493
398,493,494,490,491
368,490,494,493,492
371,491,494,492,492
381,491,495,491,491
406,489,493,492,492
465,491,493,491,494
526,491,493,491,493
604,491,492,492,494
636,490,492,493,494
631,490,493,493,495
596,493,494,491,493
501,491,493,493,493
418,492,493,492,492
383,491,495,493,492
368,492,494,490,493
375,492,494,494,493
386,490,492,492,494
432,491,493,492,493
491,491,493,492,494
558,489,492,493,495
625,490,494,492,493
635,491,492,492,492
626,492,495,491,495
559,491,495,492,493
457,491,494,493,492
403,492,493,491,492
370,493,494,492,492
369,490,492,492,494
379,492,494,490,494
401,489,493,493,493
457,490,493,492,493
519,490,493,492,492
597,491,495,491,493
635,489,493,491,493
632,490,494,493,492
606,492,492,491,493
513,492,494,491,494
425,492,493,492,494
388,492,495,491,494
368,490,493,491,493
372,492,494,493,491
385,491,495,493,491
427,491,494,492,492
484,491,492,492,493
548,491,493,490,493
622,490,494,493,493
636,490,493,493,494
626,489,493,493,495
573,490,494,493,493
469,492,495,493,493
406,491,493,492,494
370,491,496,492,491
369,492,494,492,492
377,492,493,491,491
399,492,493,491,493
450,490,493,492,493
511,490,492,491,491
587,492,492,492,494
634,490,493,493,492
634,491,494,493,491
617,491,493,491,494
524,492,494,493,493
432,491,493,491,491
390,492,493,491,492
368,492,492,491,494
371,491,492,492,491
383,492,495,492,495
417,490,492,491,492
477,491,493,493,493
542,490,493,493,492
617,491,494,492,492
638,490,493,493,494
627,492,493,491,494
583,490,494,491,493
479,492,494,492,493
410,491,493,492,495
375,490,492,491,494
368,490,493,491,493
375,491,494,493,492
393,492,492,491,492
445,491,494,492,492
504,491,493,490,492
576,492,493,490,494
632,490,494,491,493
633,490,494,491,491
623,490,492,493,495
539,491,494,493,494
442,491,493,492,492
397,492,493,491,492
370,490,494,493,494
371,490,493,491,491
380,492,494,490,491
410,492,493,491,492
469,491,493,492,492
530,490,492,491,494
608,491,495,491,492
637,490,494,493,493
629,490,495,493,493
591,490,495,493,493
493,491,494,492,493
414,491,493,492,492
380,493,492,492,494
367,492,492,491,494
373,491,492,493,494
387,491,492,491,494
435,491,493,492,492
496,489,492,492,492
565,492,492,493,492
628,491,494,493,492
636,491,494,491,491
624,492,495,492,494
551,491,494,491,492
452,491,493,490,493
398,492,493,489,492
368,493,493,489,493
368,491,492,491,493
380,491,494,494,494
403,489,492,491,492
462,490,492,492,493
521,490,493,493,493
600,489,493,493,492
637,491,494,492,491
632,490,492,492,494
602,492,495,492,494
506,491,493,493,492
419,492,493,491,492
383,492,492,491,493
367,491,492,493,491
374,491,492,492,494
384,493,493,490,491
429,491,493,492,492
487,491,492,493,492
555,492,494,492,492
621,492,492,492,492
637,492,493,493,493
626,492,493,490,492
564,494,493,492,493
462,493,494,492,493
404,493,495,492,492
370,492,492,492,494
369,493,494,491,494
377,491,494,493,493
400,491,494,493,493
454,491,492,491,493
514,492,493,491,492
589,492,494,493,492
636,492,492,492,494
632,493,494,490,492
613,494,494,491,493
520,494,494,492,492
427,492,493,492,493
388,492,492,493,492
370,492,492,492,493
371,491,493,492,494
383,491,492,492,494
422,491,493,491,491
480,492,493,492,492
545,492,491,490,491
620,492,494,491,491
636,493,493,490,492
627,494,493,490,493
578,492,494,492,493
473,493,494,492,493
409,493,493,492,494
370,492,492,491,494
366,491,493,493,494
377,492,494,493,494
396,494,492,491,493
448,492,493,491,492
508,492,494,492,491
581,492,494,492,492
633,493,494,491,492
633,494,494,493,492
617,494,493,490,492
531,493,494,492,492
434,493,493,491,492
392,492,492,491,493
367,492,492,491,491
372,493,494,493,494
381,490,493,490,491
415,491,493,492,493
472,491,492,493,493
536,491,493,492,491
613,491,492,492,493
637,492,493,490,493
629,491,494,490,492
584,494,493,492,493
485,493,494,492,493
412,493,492,491,494
376,492,496,491,491
368,490,494,492,493
375,493,492,490,491
391,491,494,492,492
440,491,493,492,493
501,492,494,490,493
568,490,492,491,492
630,492,493,492,492
635,493,492,491,493
620,493,492,492,494
544,492,493,492,493
446,492,494,491,492
396,492,493,493,492
371,494,493,493,493
371,492,495,493,492
380,493,495,494,492
410,492,494,490,493
464,492,493,492,492
526,491,492,493,493
606,493,493,490,493
635,493,492,492,493
629,491,492,492,494
594,492,492,492,491
499,493,495,492,493
417,492,493,491,493
381,492,494,493,492
368,492,494,492,492
375,493,494,491,492
387,491,492,493,492
432,492,493,491,493
494,492,493,491,492
558,491,492,491,494
624,491,493,492,493
636,491,493,490,493
623,493,494,494,492
560,493,494,492,493
456,493,493,492,492
401,493,495,491,492
370,494,494,491,493
370,493,495,493,493
376,492,493,493,491
405,493,492,492,493
458,491,493,491,493
517,490,493,492,493
597,491,493,493,492
637,491,493,492,493
632,493,494,491,494
604,491,493,491,492
511,492,495,492,492
423,493,493,492,493
387,493,492,493,492
368,492,492,492,494
372,492,494,491,492
385,490,493,493,493
425,491,493,492,493
486,491,493,492,492
550,491,491,491,491
622,493,493,493,493
638,491,492,491,493
625,492,492,491,494
570,492,493,492,493
468,492,494,492,492
407,491,494,493,493
371,493,493,491,492
370,492,495,492,491
378,492,495,492,491
400,492,494,491,492
451,492,494,491,492
510,491,493,492,493
585,491,494,493,491
633,491,493,492,494
633,491,493,493,493
614,491,493,494,494
524,493,495,492,493
431,492,494,492,494
390,492,495,492,492
370,493,495,491,492
372,493,494,492,493
382,493,494,494,492
419,492,493,492,492
478,491,493,492,493
541,491,492,492,493
614,490,493,493,494
638,491,494,494,493
628,492,492,493,492
582,492,493,492,494
479,492,494,492,492
411,492,494,490,492
374,493,494,491,492
367,492,492,491,493
377,491,494,492,493
391,490,491,492,491
445,491,492,491,492
503,490,493,492,493
575,490,493,493,493
633,492,492,490,494
632,492,494,491,491
620,490,493,493,492
537,493,494,492,492
440,492,494,492,493
394,491,492,492,492
370,491,495,493,494
369,490,494,491,493
381,491,494,493,493
412,491,494,492,492
468,490,493,492,492
531,490,492,491,494
611,492,494,491,493
638,491,494,491,494
627,490,492,491,493
588,491,493,492,493
491,491,493,492,493
415,491,494,491,491
380,490,493,493,494
367,492,492,490,492
376,491,494,491,492
390,490,495,491,492
437,490,493,491,492
498,490,492,491,492
564,491,493,492,493
629,490,492,493,493
634,490,493,493,494
622,489,492,493,495
552,492,493,492,492
449,490,493,493,492
398,490,492,492,492
371,491,494,491,491
369,491,493,491,492
378,491,493,494,492
407,490,492,491,493
460,489,493,492,493
523,490,493,492,493
601,489,492,493,492
636,490,494,493,493
632,491,494,493,494
598,491,493,492,492
505,491,493,492,493
419,491,494,491,492
383,493,494,491,492
367,492,493,492,494
372,492,494,492,491
383,490,492,493,492
432,491,493,491,493
489,490,492,491,492
555,489,493,493,492
624,490,494,492,493
635,490,494,491,492
625,489,492,494,494
565,493,494,493,492
460,491,493,491,492
402,491,492,491,494
372,490,495,491,493
368,489,493,491,492
376,492,493,493,493
402,490,494,491,492
455,490,493,492,492
515,491,493,491,491
593,489,493,493,493
634,491,493,492,492
633,492,494,492,494
608,491,492,493,494
516,490,493,493,493
428,490,493,491,492
389,493,495,494,492
369,491,492,492,494
374,492,494,491,492
383,493,494,490,492
422,491,493,491,492
482,490,493,492,492
545,490,492,492,492
620,491,493,493,494
637,490,493,493,492
627,490,494,494,493
577,490,493,492,492
472,490,493,492,492
406,490,493,492,491
373,492,495,491,492
367,492,492,491,492
375,491,492,491,493
395,491,491,492,491
449,491,493,491,492
507,491,493,490,492
582,489,493,493,493
633,491,494,492,491
633,491,494,491,491
616,490,492,493,492
531,491,494,493,493
436,491,493,491,492
392,490,492,491,493
367,490,493,492,494
371,489,493,490,492
382,489,493,493,493
414,491,492,491,492
475,490,492,492,491
538,491,494,491,491
613,492,493,491,493
639,490,494,491,493
626,490,495,493,491
586,490,492,493,493
484,491,494,492,493
412,491,493,494,493
377,490,493,494,493
367,490,493,491,492
376,491,495,493,495
390,490,494,490,491
441,491,493,491,492
501,491,493,492,492
570,490,494,492,492
631,490,492,492,493
635,491,493,491,493
623,489,493,493,493
543,490,494,493,492
444,490,493,493,493
396,490,492,492,490
370,491,493,493,493
370,492,492,490,492
379,491,492,490,492
407,490,492,490,493
465,490,493,490,492
527,489,492,491,491
607,491,492,494,492
638,491,494,493,491
631,491,494,491,491
595,492,495,491,493
498,492,493,492,493
416,492,494,492,494
381,491,494,494,493
366,490,493,492,494
373,490,494,494,493
386,489,493,494,493
433,491,493,492,492
493,490,493,492,493
559,491,494,491,491
628,492,493,491,492
635,491,492,491,493
623,491,494,494,492
556,491,493,492,493
454,491,494,492,493
401,490,493,491,493
368,490,492,493,493
369,489,493,491,493
378,491,494,493,491
405,490,492,492,493
461,490,493,492,492
521,491,493,490,491
598,492,493,490,493
635,491,492,491,492
633,492,495,492,494
603,490,495,492,492
511,491,493,491,492
424,490,493,492,492
387,490,495,494,492
369,490,492,491,493
374,492,494,491,493
384,488,492,490,492
427,491,492,491,492
486,491,493,491,493
549,489,491,491,491
623,492,493,492,492
637,491,492,491,493
627,491,494,493,492
571,491,495,492,492
465,491,494,492,492
404,490,493,493,492
371,492,494,493,493
367,490,492,491,493
376,491,492,491,494
397,490,493,492,493
451,490,493,492,493
512,491,493,490,492
589,489,493,493,492
633,491,492,491,491
634,492,494,490,491
615,492,495,491,492
524,491,494,492,492
430,490,493,491,492
389,490,495,494,492
367,490,492,492,493
371,489,493,492,493
382,489,492,493,493
419,491,492,491,492
478,491,493,491,492
541,489,493,491,491
619,492,492,490,492
636,491,492,491,493
626,490,494,494,492
583,491,493,492,493
477,491,494,492,494
410,490,494,493,493
374,490,493,494,492
368,491,495,493,491
376,491,495,492,494
393,490,495,491,491
445,490,493,491,492
506,491,492,490,493
576,490,491,490,493
630,490,492,492,494
635,492,493,491,493
620,489,493,491,492
536,491,494,493,493
438,491,493,493,492
395,491,495,492,491
369,490,492,492,494
370,492,493,490,492
379,490,493,493,493
410,490,492,491,493
470,490,493,491,493
531,489,492,492,491
612,491,493,492,493
639,490,493,492,493
627,491,494,492,492
591,491,495,491,492
490,491,495,492,492
414,491,493,491,492
379,490,494,494,492
365,490,492,491,491
375,491,493,492,494
388,489,492,492,492
437,490,492,492,492
497,489,492,491,494
565,491,494,491,491
626,489,492,492,493
635,491,492,490,493
621,492,493,491,493
549,492,494,493,492
449,491,494,491,493
397,490,494,491,492
370,489,493,492,493
371,490,494,492,492
380,491,495,493,491
407,490,492,491,494
464,491,493,491,493
523,490,493,490,492
603,492,493,491,493
636,491,492,492,493
629,489,492,492,494
597,490,494,491,492
505,491,494,492,492
418,491,493,491,493
384,490,494,493,491
368,491,494,491,491
374,491,494,491,493
385,489,493,490,492
430,491,494,493,492
490,490,493,491,492
556,490,491,491,494
623,490,493,492,493
636,491,492,491,493
627,491,494,493,493
561,491,493,492,493
461,491,493,492,492
404,493,494,491,492
370,493,494,493,492
369,491,492,491,494
376,492,495,491,491
400,490,492,493,493
456,490,492,491,493
516,490,493,492,492
594,490,494,494,493
635,491,492,491,491
632,492,493,493,493
608,493,494,491,493
516,492,494,492,491
426,492,493,491,492
387,491,495,493,491
367,490,492,492,491
372,492,493,493,493
384,489,493,493,492
424,490,493,492,492
482,490,494,491,493
546,490,493,490,491
620,489,494,493,493
636,491,492,490,494
626,490,492,491,494
574,491,493,492,493
472,491,494,492,493
407,490,493,491,492
371,492,494,493,492
369,491,494,492,491
378,492,494,491,490
397,492,493,491,492
448,489,492,492,493
509,492,492,491,491
583,491,494,491,494
632,489,493,493,493
633,490,494,493,492
617,490,494,491,493
528,491,494,492,493
432,491,493,492,493
392,492,495,491,491
370,492,494,490,492
370,492,493,491,493
382,490,495,493,494
414,491,492,491,492
475,491,493,492,493
538,490,493,493,494
614,490,493,492,492
638,491,492,491,494
627,492,494,491,491
582,490,493,493,492
483,492,494,492,492
412,491,492,491,493
375,492,492,490,493
366,490,493,491,491
377,492,493,492,493
391,492,493,491,492
443,490,493,492,492
503,491,493,490,491
572,491,494,491,491
629,489,492,493,492
634,492,492,493,491
622,490,492,491,494
540,491,494,493,493
444,491,493,491,493
395,490,493,491,492
369,490,494,493,491
368,490,493,492,492
380,492,494,491,492
411,492,493,489,492
466,490,493,491,493
528,490,493,490,492
606,491,494,491,491
638,490,493,493,493
630,489,494,494,494
593,490,494,493,492
495,491,493,493,492
416,491,493,492,491
381,492,495,491,494
365,489,492,490,492
374,492,492,490,492
386,492,492,491,492
433,491,493,492,492
495,490,492,492,493
562,492,493,491,493
626,490,494,492,492
636,491,494,492,491
623,491,495,493,495
554,490,494,492,492
453,491,493,492,493
399,490,493,491,493
368,492,492,491,493
368,490,493,492,493
378,492,494,491,491
404,490,493,492,492
460,491,493,492,492
521,491,494,492,492
601,491,495,492,492
636,491,493,491,492
630,492,494,493,493
605,492,493,491,493
508,491,495,493,492
421,491,493,492,493
385,490,493,492,494
368,490,493,493,493
373,492,493,492,491
387,491,492,491,493
425,491,494,492,492
487,491,494,492,492
553,492,492,490,491
620,489,494,493,492
636,490,492,492,491
626,492,496,493,495
567,490,493,493,493
464,491,494,492,493
404,490,494,492,493
369,491,495,492,491
370,490,493,493,493
377,491,493,490,491
400,492,492,490,492
452,491,493,491,492
511,490,492,491,491
590,491,494,492,494
634,490,492,490,492
631,491,495,493,491
614,491,495,493,491
523,492,495,492,492
429,491,494,493,494
390,493,494,491,493
367,491,495,492,493
370,490,493,492,494
382,490,492,492,495
419,490,493,491,492
479,491,493,492,492
544,492,492,491,493
619,491,495,492,492
639,492,494,491,492
628,493,494,490,492
579,490,495,494,493
477,493,494,494,492
409,491,493,492,494
371,491,492,490,494
368,490,493,492,494
376,490,494,492,493
395,493,493,490,492
447,491,494,493,492
505,491,494,493,491
580,491,494,491,492
633,492,493,491,493
633,492,493,494,491
621,490,493,493,494
534,492,495,494,492
438,490,492,493,493
394,491,494,493,493
368,490,494,493,491
369,490,492,493,492
382,492,495,492,494
411,490,494,492,492
471,491,493,491,493
534,492,492,491,493
610,492,495,492,492
639,490,493,493,495
630,493,493,490,493
588,490,494,494,493
489,491,494,492,493
414,491,494,492,492
379,492,496,492,494
366,490,494,490,492
376,490,495,493,493
389,492,493,492,493
439,491,493,491,492
500,491,493,491,493
567,491,493,491,494
629,490,494,491,492
634,491,495,492,491
624,491,495,493,492
550,492,495,492,492
447,491,493,492,493
397,492,493,491,492
370,490,494,493,493
367,490,493,493,494
379,491,493,493,495
407,490,493,492,492
463,492,494,493,493
526,491,492,491,493
603,492,495,493,492
638,492,494,492,493
631,492,493,490,492
598,493,493,490,492
501,491,494,493,493
418,492,493,492,491
384,493,493,492,495
367,490,494,493,494
375,491,494,493,492
387,490,492,491,493
430,491,493,492,492
491,490,492,492,492
558,492,493,490,491
625,491,492,491,493
635,491,492,492,492
625,492,496,493,495
561,491,495,492,492
458,492,494,493,494
402,491,494,494,493
371,490,494,493,492
370,490,492,492,493
378,492,494,491,494
402,490,493,491,491
456,491,493,492,492
517,491,492,491,493
593,490,492,491,494
635,490,494,491,492
632,490,494,493,493
609,493,493,491,492
515,491,494,493,493
426,491,494,492,491
389,492,494,491,494
366,490,493,492,493
373,492,494,492,491
384,491,492,491,494
423,490,492,492,493
484,491,492,492,493
548,492,492,490,492
621,490,494,492,493
637,491,493,490,491
626,492,494,491,492
575,493,494,492,493
470,492,494,493,493
406,491,493,492,494
370,491,495,491,492
366,490,494,494,494
377,490,494,494,494
398,490,494,493,492
450,490,493,492,493
508,491,493,492,492
586,491,492,492,494
633,492,494,491,493
632,492,492,491,494
616,492,493,491,493
527,491,495,493,492
433,491,492,491,492
393,492,495,493,494
367,490,493,493,492
372,490,493,492,492
383,491,494,490,493
414,490,494,492,492
476,490,493,491,493
539,491,493,490,492
614,492,493,492,494
637,491,492,492,494
629,493,495,491,495
581,489,493,492,493
482,493,494,492,494
410,491,495,494,492
376,490,495,493,492
369,492,495,491,492
376,491,494,493,494
392,493,494,491,493
443,491,494,491,492
502,491,493,492,494
572,490,491,491,495
631,490,493,491,492
635,492,495,494,492
623,492,492,490,493
541,491,494,493,492
441,491,494,492,493
397,492,494,491,491
367,490,493,493,492
369,492,493,493,493
381,491,492,490,493
408,490,492,491,493
467,490,493,492,494
531,490,493,490,492
609,490,493,493,493
638,491,492,492,492
632,493,495,492,491
593,493,496,492,493
495,493,495,492,492
417,492,493,492,492
379,490,492,491,492
366,492,494,491,491
372,490,493,493,493
385,489,492,493,493
435,490,493,492,492
495,492,493,491,492
564,490,494,491,494
626,490,494,490,492
635,492,493,491,493
623,492,493,490,493
554,492,494,492,492
452,492,494,492,493
401,492,494,490,494
367,491,493,492,493
369,491,494,493,493
379,491,494,495,493
403,491,492,493,492
461,490,493,491,493
521,491,493,490,491
601,492,494,491,492
636,491,493,491,494
630,491,491,491,493
603,491,495,493,494
505,491,493,492,492
421,491,493,492,492
383,490,493,493,494
367,490,494,493,492
374,491,492,491,493
381,491,495,491,492
427,490,492,492,492
488,491,493,491,492
552,491,491,491,493
622,491,492,491,491
637,492,494,492,493
625,489,494,491,492
568,491,494,493,493
462,492,494,493,493
404,491,494,492,492
372,490,492,491,493
366,492,493,491,493
378,491,494,491,492
398,491,492,491,493
452,491,492,491,492
513,489,491,491,494
589,489,494,490,492
634,490,494,493,492
631,490,492,492,491
614,492,496,492,491
520,491,494,493,492
428,491,493,491,493
388,490,493,491,491
367,491,494,492,491
373,490,492,491,493
380,489,492,492,494
419,489,492,492,493
479,491,493,490,492
545,490,493,493,493
617,491,491,491,492
638,492,494,490,491
627,492,493,491,492
579,493,493,492,493
475,491,494,491,491
408,490,493,493,492
371,491,491,490,493
365,490,493,492,494
375,489,493,492,494
395,489,492,492,492
447,491,493,492,492
506,489,492,491,492
580,490,494,492,492
633,491,494,491,492
634,492,494,491,492
619,490,493,493,493
532,492,493,492,493
436,490,493,491,492
392,491,492,490,492
366,491,492,492,494
370,489,492,491,492
381,492,493,493,493
413,491,492,491,492
472,490,492,492,493
535,490,494,492,491
612,489,493,491,491
637,490,492,492,491
629,492,493,494,494
586,489,493,491,493
486,492,494,492,492
412,491,493,492,493
375,491,492,490,493
367,492,494,490,491
373,489,493,492,491
391,492,493,493,492
439,490,493,492,492
499,490,493,492,492
569,490,493,490,493
628,490,494,491,491
635,490,493,492,493
