Sensor0,Sensor1,Sensor2,Sensor3,Sensor4

493,494,495,493,594
494,494,491,490,753
495,494,493,493,817
496,494,496,491,788
493,494,496,491,668
494,493,494,492,480
494,493,495,496,332
495,494,496,495,253
492,494,493,492,223
495,494,496,492,245
491,494,494,493,297
494,494,496,491,393
493,494,495,493,515
491,494,493,492,672
494,494,493,493,796
497,494,494,492,808
496,494,492,494,750
493,493,497,493,587
495,493,497,495,414
494,493,494,495,285
493,493,495,495,233
494,493,493,495,229
493,494,493,492,255
492,494,495,493,336
495,494,495,494,445
495,494,493,491,575
494,494,493,490,738
496,494,494,491,817
494,494,493,494,796
494,494,494,493,691
496,493,494,495,504
495,493,495,492,356
493,493,496,493,258
495,493,496,491,221
492,494,494,491,238
492,494,492,491,286
495,494,493,493,377
495,494,495,492,500
494,494,492,490,646
494,494,494,491,787
494,494,493,491,810
495,494,495,494,767
497,494,494,492,615
496,493,495,494,434
495,493,495,495,297
494,493,495,492,238
493,493,495,492,224
493,494,494,493,252
495,494,494,492,322
493,494,494,491,429
494,494,492,492,561
493,494,493,491,717
493,494,494,490,814
494,494,494,492,799
494,494,494,493,711
495,493,495,495,532
495,493,495,492,382
494,493,495,494,263
495,493,494,493,224
495,493,494,493,234
494,494,494,493,275
494,494,495,492,367
493,494,493,491,497
495,494,494,493,627
494,494,493,492,769
495,494,493,493,811
495,494,495,493,779
494,493,495,494,636
494,493,495,493,471
494,493,496,494,328
496,493,494,493,238
494,493,495,493,219
493,494,495,493,244
495,494,494,493,306
492,494,493,493,418
493,494,492,491,548
494,494,492,491,688
495,494,494,493,802
494,494,496,493,801
495,494,495,494,726
493,494,496,493,554
494,493,494,494,394
493,493,495,494,272
496,494,495,491,226
495,493,492,490,228
494,494,493,493,263
493,494,496,493,351
492,494,495,490,459
493,494,494,491,594
495,494,491,491,757
495,494,493,493,817
496,494,492,490,788
493,494,494,491,660
494,493,495,492,474
494,493,496,492,327
496,494,495,494,250
493,493,495,494,223
495,494,494,492,243
493,494,494,491,298
494,494,492,492,397
493,494,492,493,519
493,494,495,490,673
493,494,491,494,799
495,494,495,490,806
495,494,495,494,748
493,494,495,495,583
494,493,495,493,414
493,493,496,494,283
493,493,495,492,230
494,494,492,494,226
494,494,495,494,257
495,494,495,494,337
495,494,493,492,449
494,494,495,493,583
494,494,491,492,739
493,494,493,493,816
493,494,494,494,794
493,494,492,495,687
497,494,495,495,499
496,493,493,492,350
495,493,493,491,255
495,493,494,491,222
492,494,495,495,240
492,494,493,494,286
492,494,496,495,380
493,494,492,493,499
493,494,495,492,651
495,494,492,490,787
493,494,493,495,810
494,494,493,493,766
494,493,496,493,607
495,493,496,493,427
494,494,497,492,294
496,494,497,492,239
492,494,497,493,225
493,494,493,494,255
492,494,495,492,326
494,494,494,494,430
493,494,494,491,560
493,494,494,493,720
493,494,492,491,814
494,494,495,493,799
493,494,493,494,708
494,493,495,496,524
494,493,494,492,373
493,493,496,492,262
494,493,495,494,222
493,494,494,492,233
493,494,492,492,275
495,494,494,494,367
494,494,494,492,487
493,494,495,493,625
493,494,493,491,777
495,494,495,491,812
493,494,492,492,778
495,493,496,494,632
494,493,495,494,453
494,493,494,495,312
494,493,494,495,241
495,494,493,495,222
492,494,493,493,246
494,494,493,494,310
494,494,494,491,412
495,494,492,493,543
495,494,495,490,699
492,494,494,491,810
494,494,496,491,802
495,494,495,494,729
496,493,495,492,551
496,494,494,494,390
496,493,494,495,275
494,493,495,492,229
495,494,496,494,231
495,494,493,491,270
495,494,492,494,354
492,494,495,490,469
492,494,495,491,600
494,494,491,491,759
495,494,493,491,815
495,494,495,494,786
495,494,495,494,656
494,493,495,493,473
496,494,495,494,333
494,493,493,492,248
493,493,495,491,223
494,494,493,492,244
494,494,496,494,300
495,494,495,492,398
494,494,492,491,525
493,494,492,490,677
494,494,493,491,799
493,493,493,491,806
494,494,493,493,746
495,493,495,494,579
494,493,497,494,410
494,493,494,495,278
491,494,494,491,229
492,494,497,492,226
495,494,495,491,257
496,494,492,492,340
492,494,493,494,448
492,494,494,491,582
495,494,495,490,745
495,494,496,491,816
493,494,495,491,794
495,494,496,494,682
495,493,495,494,496
497,493,495,492,344
494,493,497,492,254
496,494,497,492,221
493,494,492,491,242
493,494,493,492,289
495,494,494,492,384
492,494,496,492,505
492,494,492,491,657
493,494,492,494,791
493,494,495,492,810
496,494,493,491,763
493,494,497,495,603
494,494,496,493,426
493,493,496,493,293
492,493,493,495,236
494,494,496,495,225
492,494,492,495,253
494,494,494,493,326
493,494,494,493,435
492,494,494,493,564
494,494,491,490,723
495,494,491,492,813
494,494,496,494,799
494,494,494,495,703
496,493,495,494,522
494,494,495,494,371
495,493,494,493,263
494,493,494,491,224
495,493,495,491,236
494,494,493,492,278
494,494,493,493,369
493,494,492,491,491
493,494,493,491,631
492,494,495,493,780
492,494,493,492,815
494,494,495,491,778
497,494,493,494,629
495,493,493,495,450
497,493,496,495,310
494,494,495,495,240
494,493,495,491,224
491,494,495,491,248
492,494,495,493,315
491,494,491,492,415
494,494,493,492,546
494,494,492,493,704
495,494,495,492,811
494,494,495,493,803
496,494,496,494,725
494,494,496,496,549
495,493,495,494,386
494,493,497,495,272
495,494,496,492,227
495,493,494,495,233
493,494,492,491,271
493,494,491,494,356
495,494,494,491,469
493,494,494,491,607
492,494,493,490,764
495,494,492,492,814
495,494,496,493,787
496,493,496,496,655
496,493,496,495,468
494,493,495,492,328
495,493,493,493,249
496,494,493,495,222
493,494,492,495,245
494,494,495,492,304
494,494,493,493,402
493,494,495,493,528
495,494,494,490,680
493,494,492,492,800
494,494,494,492,807
493,494,494,493,743
496,494,496,493,573
495,494,494,495,406
494,493,495,494,279
494,494,494,493,229
495,493,494,493,229
494,494,495,492,261
493,494,494,492,343
493,494,492,492,458
494,494,492,492,591
494,494,492,491,745
493,494,493,493,817
493,494,495,493,793
494,494,494,493,678
494,493,495,494,505
496,493,495,494,359
496,494,494,493,250
495,493,493,493,218
494,494,494,493,236
493,494,494,492,288
494,494,494,493,396
493,494,493,493,527
493,494,494,492,654
493,494,493,492,785
495,494,494,492,806
495,494,495,493,754
495,493,494,493,601
495,493,495,494,440
495,493,495,493,298
495,493,494,492,229
494,493,494,493,222
492,494,495,492,250
494,494,494,493,326
493,494,493,492,444
494,494,493,493,574
494,494,493,492,723
494,494,494,492,810
493,494,494,493,793
495,494,494,493,697
495,493,496,494,517
495,493,494,494,368
495,493,494,493,258
494,494,494,493,220
495,494,495,493,233
494,494,494,492,279
493,494,493,493,371
494,494,494,492,497
495,494,493,492,632
494,494,493,492,778
494,494,494,492,811
494,494,494,492,773
495,493,494,493,623
495,493,495,493,453
495,493,495,493,314
494,493,495,492,238
494,494,494,493,222
493,494,492,493,248
494,494,494,492,315
493,494,494,492,431
494,494,493,493,560
494,494,493,492,702
494,494,492,492,808
494,494,495,493,798
494,494,494,492,720
496,493,494,494,549
495,493,495,494,397
494,493,496,494,264
494,493,494,494,222
495,493,495,493,230
493,493,494,493,269
494,494,493,493,358
494,494,494,492,487
495,494,493,492,616
495,494,494,491,762
495,494,494,492,812
495,494,494,493,781
495,494,495,494,649
495,493,495,494,474
494,493,494,494,331
495,493,495,493,240
494,493,494,492,218
495,494,492,492,242
494,493,494,493,301
494,494,493,492,408
494,494,494,492,538
494,494,493,492,682
494,494,494,491,800
495,494,494,492,802
495,494,495,493,737
495,493,495,493,566
494,493,495,493,409
495,494,494,493,275
495,493,495,492,226
493,493,494,493,227
493,494,494,492,260
494,494,494,492,343
494,494,494,492,467
494,494,495,493,597
494,494,493,492,746
494,494,494,491,813
495,494,495,492,789
495,494,493,492,672
495,493,495,493,496
495,493,494,494,352
494,493,494,493,249
494,493,495,493,216
494,493,495,494,239
494,494,494,494,290
493,494,493,493,393
494,494,492,492,520
494,494,493,492,656
494,494,493,492,788
493,494,494,493,805
495,493,493,493,752
496,493,495,493,593
495,493,494,494,431
495,493,494,494,292
495,493,495,494,229
495,493,494,493,224
494,494,494,494,252
493,494,494,494,328
492,494,494,492,448
493,494,493,493,577
495,494,493,492,727
494,494,492,492,812
495,494,493,492,794
496,494,495,493,694
496,493,495,494,516
495,493,495,493,368
495,493,495,494,256
495,493,495,492,219
493,494,495,494,234
493,494,494,492,279
495,494,494,492,374
494,494,493,492,500
494,494,493,492,636
494,494,494,492,780
495,494,494,492,810
494,494,494,493,771
495,493,494,494,620
495,493,493,493,444
495,493,494,492,306
494,493,494,493,237
493,494,494,494,224
493,494,494,493,250
494,494,493,492,317
494,494,494,493,426
494,494,493,493,558
494,494,494,492,708
495,494,493,492,809
495,494,494,492,799
493,494,495,493,718
495,494,496,493,538
493,494,495,494,389
495,493,495,493,267
496,493,494,495,225
495,494,494,493,232
496,494,495,493,271
493,494,494,492,361
492,494,493,492,486
492,494,493,492,618
493,494,493,492,766
494,494,493,492,813
495,494,495,494,782
495,493,495,493,644
495,493,495,494,476
495,494,495,494,333
494,493,495,493,240
493,494,494,492,218
493,494,494,493,243
495,494,494,492,304
494,494,494,492,415
494,494,493,492,545
493,494,493,492,683
494,494,493,491,803
495,494,494,491,801
495,494,495,493,733
495,493,495,493,566
496,493,495,492,409
495,493,495,494,272
493,493,494,494,224
494,494,494,494,227
494,494,496,492,260
494,494,493,493,345
494,494,493,491,467
494,494,493,493,599
494,494,492,492,748
495,494,494,491,814
495,494,494,492,787
494,494,494,494,668
494,493,495,493,488
495,493,495,494,345
495,493,494,494,248
493,493,494,493,219
493,494,495,494,238
494,494,494,493,292
493,494,495,492,395
494,494,494,491,523
492,494,494,492,661
493,494,493,492,788
495,494,493,493,806
494,494,494,494,749
495,493,496,494,589
494,493,495,493,429
494,493,495,494,292
494,493,495,493,229
494,493,494,493,225
494,494,495,493,255
494,494,495,493,333
494,494,493,492,454
493,494,493,493,584
494,494,493,492,729
494,494,494,492,813
493,494,494,493,793
495,494,494,494,690
495,494,495,494,518
496,493,495,494,369
495,493,494,494,254
493,494,494,493,218
493,494,495,494,234
493,494,494,494,281
494,494,493,493,378
494,494,493,491,505
494,494,494,493,638
494,494,492,491,781
494,494,494,494,810
494,494,495,492,768
495,494,495,494,615
494,493,495,494,442
494,494,495,493,303
495,493,494,495,235
495,493,494,493,223
494,494,495,492,250
493,494,494,493,318
492,494,493,492,429
493,494,494,492,561
494,494,493,491,712
494,494,493,492,810
494,494,494,493,798
496,494,494,493,714
495,493,495,493,536
494,493,494,493,386
494,493,495,494,263
494,493,495,493,223
494,494,495,493,232
493,494,495,492,273
495,494,494,492,364
493,494,493,491,492
494,494,493,491,623
493,494,494,492,766
494,494,494,493,812
495,494,494,493,780
495,494,494,492,637
496,493,494,493,471
495,493,495,493,328
494,493,494,493,239
493,493,494,493,219
493,494,494,494,243
494,494,495,493,305
493,494,494,492,417
493,494,494,493,546
494,494,492,492,686
494,494,492,491,803
494,494,494,492,800
494,494,495,492,731
494,493,495,493,560
495,494,495,494,406
497,493,494,494,271
495,493,495,493,223
494,494,495,493,227
493,494,495,493,262
493,494,494,492,346
493,494,493,492,472
494,494,493,492,603
494,494,493,493,751
493,494,493,492,812
494,494,494,493,787
494,493,494,494,663
495,494,495,494,488
495,493,494,494,344
495,493,494,494,246
494,493,493,493,218
494,494,495,492,240
493,494,494,492,293
494,494,493,492,399
495,494,493,492,525
494,494,493,491,667
495,494,493,493,791
494,494,493,492,804
495,494,495,493,747
495,493,494,494,585
494,493,494,493,424
494,493,495,494,285
493,493,495,492,229
495,494,494,492,224
493,494,494,493,255
494,494,493,493,335
494,494,494,492,454
492,494,494,491,585
493,494,494,491,735
494,494,494,492,812
494,494,494,493,792
495,494,494,494,687
495,494,495,494,507
494,493,494,494,361
494,493,495,493,253
494,493,495,492,218
493,494,494,492,236
494,494,494,493,283
494,494,494,493,381
494,494,494,491,510
495,494,492,492,642
494,494,493,492,782
495,494,494,492,810
494,494,494,492,766
494,493,494,493,610
495,493,495,496,445
494,493,495,494,306
495,493,494,493,233
494,494,494,495,222
493,494,494,493,250
493,494,494,492,321
494,494,493,492,438
493,494,493,492,567
493,494,493,493,713
494,494,493,492,811
494,494,494,492,796
495,494,494,493,709
494,494,495,493,535
495,493,494,494,385
495,493,495,494,260
493,494,495,494,221
494,494,494,492,231
494,494,494,493,273
495,494,494,493,366
493,494,493,492,492
494,494,494,492,623
494,494,493,491,769
494,494,494,493,812
495,494,494,492,778
494,493,494,493,634
495,493,495,495,461
494,493,495,492,320
494,493,494,492,238
493,494,494,493,218
493,494,493,493,245
493,494,494,493,308
492,494,492,493,418
493,494,493,493,550
492,494,493,492,692
494,494,492,492,804
494,494,494,493,800
495,494,494,493,729
496,493,495,495,557
497,493,495,494,402
496,493,495,493,270
493,493,494,492,222
493,494,494,493,228
494,493,493,493,264
494,494,495,493,350
493,494,494,493,476
494,494,493,493,606
493,494,492,493,753
495,494,494,493,813
495,494,494,493,785
495,493,495,493,658
494,493,495,494,486
494,494,495,494,343
494,493,495,493,244
493,493,494,493,218
494,494,495,493,241
493,494,495,492,296
494,494,495,492,400
494,494,493,492,527
494,494,493,492,669
494,494,493,492,793
494,494,494,493,804
494,494,495,493,744
495,494,495,494,581
495,493,496,493,421
494,493,494,493,282
494,494,494,494,227
494,493,494,492,225
494,494,493,493,255
493,494,494,493,336
493,494,494,493,457
494,494,493,492,589
494,494,493,492,738
494,494,493,493,813
495,494,495,492,791
495,494,495,493,684
495,493,494,494,505
494,494,495,493,359
494,494,495,493,250
493,494,495,494,219
494,494,494,492,236
495,494,496,493,283
493,494,494,493,385
493,494,493,492,512
493,494,494,492,646
493,494,493,493,784
495,494,494,493,808
495,494,495,493,763
496,493,495,494,605
496,493,495,493,440
494,494,495,494,301
494,493,494,494,233
493,494,494,494,220
494,494,494,493,250
495,494,494,491,323
494,494,493,491,440
494,494,493,492,569
494,494,493,491,715
494,494,493,492,810
494,494,493,493,796
494,494,494,493,703
495,493,495,494,528
495,494,494,493,380
494,493,495,493,259
493,493,494,493,220
494,494,494,492,233
494,494,494,493,275
494,494,493,492,367
494,494,494,492,495
493,494,493,492,626
494,494,493,491,773
494,494,494,493,811
495,494,495,492,775
495,494,496,494,630
495,493,495,493,460
494,493,495,494,317
495,493,494,492,236
493,494,496,493,219
493,494,494,492,246
494,494,494,492,310
492,494,494,493,418
495,494,494,492,548
495,494,493,492,697
493,494,492,492,807
496,494,493,492,799
496,494,495,492,727
495,493,496,494,550
493,494,494,494,389
494,494,495,492,271
493,494,493,494,225
495,494,495,494,230
494,494,494,492,268
493,494,493,494,353
494,494,493,493,469
493,494,493,493,601
492,494,492,493,760
495,494,495,492,815
494,494,496,494,787
496,494,494,492,657
494,493,495,494,472
495,493,496,493,331
494,493,496,494,246
495,493,496,492,222
495,494,495,492,243
495,494,494,492,301
494,494,495,492,401
494,494,495,492,530
495,494,492,490,676
493,494,492,491,800
495,494,494,493,805
493,494,494,493,742
494,494,496,494,576
495,493,494,493,413
494,493,495,494,279
494,494,493,495,229
493,493,493,492,228
495,494,494,495,260
494,494,492,494,341
494,494,495,491,452
492,494,492,490,582
493,494,491,492,741
492,494,494,491,816
494,494,492,492,793
495,494,495,495,681
495,494,498,495,492
494,493,494,494,342
495,493,492,494,257
496,493,497,492,220
496,494,495,491,241
493,494,492,494,289
493,494,496,494,384
495,494,495,493,497
493,494,492,493,656
494,494,493,491,792
495,494,495,492,809
496,494,493,490,762
496,494,497,493,606
494,494,495,494,421
495,493,496,495,292
494,494,493,493,235
496,494,494,493,227
492,494,494,492,253
492,494,492,492,327
495,494,493,494,435
494,494,493,491,567
495,494,492,493,727
493,494,495,493,816
496,494,492,490,798
493,494,496,495,705
493,493,497,494,521
496,493,495,495,368
493,493,496,494,260
496,494,493,492,223
493,494,492,495,233
493,494,493,492,280
492,494,492,492,371
495,494,494,494,487
492,494,494,493,631
492,494,492,491,778
495,494,495,491,816
497,494,494,494,775
493,494,493,496,628
493,494,496,495,440
492,494,493,492,304
493,493,493,491,240
494,493,496,492,225
495,494,492,494,249
492,494,493,492,316
491,494,494,493,416
492,494,493,492,543
495,494,492,494,703
494,494,494,492,812
495,494,493,492,804
494,494,494,492,726
494,494,495,495,547
495,494,495,493,391
495,493,495,493,272
493,493,494,494,226
494,493,496,492,233
494,494,493,492,271
494,494,494,492,357
493,494,493,492,485
494,494,493,492,616
494,494,493,491,762
494,494,493,492,813
496,494,495,492,784
496,494,494,492,654
495,493,494,492,485
495,493,495,493,339
495,493,495,494,241
493,493,494,493,218
493,494,494,493,242
494,494,494,493,300
493,494,493,492,408
494,494,495,491,535
494,494,494,491,678
493,494,494,492,798
495,494,494,493,803
495,494,496,492,738
495,493,494,493,570
495,493,495,493,407
494,493,494,494,278
493,493,495,493,228
493,493,493,492,226
494,494,494,492,261
494,494,493,492,342
494,494,494,492,455
495,494,493,491,588
494,494,493,492,745
494,494,495,492,816
495,494,494,492,792
495,493,494,494,675
494,493,495,494,493
495,493,495,494,349
495,493,495,492,253
495,493,495,492,220
494,494,493,493,239
494,494,494,492,290
494,494,494,492,391
494,494,495,493,520
493,494,493,492,655
494,494,493,492,786
495,494,494,493,808
494,494,495,493,756
495,493,494,494,600
495,493,495,493,441
495,493,496,494,299
494,494,495,495,229
493,493,494,494,221
495,494,494,493,251
494,494,494,493,327
494,494,494,493,451
493,494,496,494,577
492,494,495,491,725
492,494,493,491,810
494,494,494,494,793
495,494,495,492,697
496,493,495,493,516
496,493,495,493,368
494,493,495,493,256
494,493,495,492,219
495,494,495,493,233
495,494,495,493,278
494,494,493,492,371
493,494,494,490,495
494,494,494,492,633
493,494,493,492,778
494,494,494,492,812
496,494,494,493,774
495,493,495,495,624
495,493,496,494,446
495,494,495,494,308
495,493,493,493,239
494,493,494,493,221
493,494,495,493,250
494,494,494,493,317
494,494,494,492,427
495,494,492,492,557
496,494,493,492,704
495,494,494,492,808
495,494,494,493,799
494,494,494,493,719
494,493,495,492,547
495,493,496,494,396
495,493,496,493,265
493,493,495,492,222
493,494,494,493,229
493,494,495,492,270
494,494,494,492,359
493,494,493,491,486
493,494,494,492,616
493,494,493,493,762
494,494,493,492,812
495,494,495,493,782
496,494,495,492,645
495,493,495,493,471
495,493,495,493,330
494,493,495,493,240
494,493,495,493,220
493,494,493,492,244
493,494,494,492,302
494,494,493,492,407
493,494,494,492,538
494,494,493,493,682
494,494,493,492,802
494,494,493,493,803
495,494,494,494,738
495,493,495,493,567
495,494,494,493,408
494,493,495,493,274
494,493,494,493,227
494,494,494,492,227
493,494,493,494,260
494,494,495,493,344
494,494,493,492,466
494,494,494,492,597
492,494,493,492,747
494,494,493,492,815
495,494,495,493,789
494,494,494,493,670
496,493,495,494,495
495,493,495,493,351
494,493,495,493,249
494,493,495,494,217
493,494,494,493,239
494,494,494,493,291
494,494,493,492,395
494,494,494,491,523
494,494,493,491,657
495,494,493,491,787
494,494,493,492,805
494,494,494,492,751
495,493,494,494,592
495,494,494,495,430
495,493,494,493,291
495,493,493,495,230
495,494,495,493,223
493,493,495,495,254
495,494,495,493,329
494,494,494,492,441
494,494,493,492,574
493,494,492,492,729
493,494,492,491,813
495,494,493,494,795
495,494,495,492,694
494,493,495,493,511
494,493,495,493,361
494,493,495,494,259
493,494,494,492,220
495,494,494,493,235
494,494,493,493,282
493,494,494,493,373
492,494,492,494,496
494,494,493,493,639
495,494,492,492,784
494,494,494,493,813
496,494,494,492,772
495,494,494,494,621
495,493,495,494,447
494,493,495,493,307
495,493,494,492,238
493,494,494,494,224
493,494,494,493,250
494,494,494,492,319
494,494,493,493,433
494,494,494,492,563
494,494,494,492,707
494,494,493,493,808
494,494,493,491,797
494,494,494,492,716
496,493,495,493,543
495,493,495,495,391
493,493,494,493,263
493,493,494,493,222
496,494,493,493,230
495,493,494,494,271
494,494,495,493,361
494,494,495,491,487
494,494,494,493,618
494,494,494,492,765
494,494,494,492,812
495,494,494,492,782
494,494,495,494,641
495,494,496,493,467
493,493,494,494,326
495,493,494,493,240
495,493,494,492,220
494,494,494,493,245
494,494,493,492,305
493,494,493,493,410
494,494,493,491,541
494,494,493,492,687
494,494,492,493,802
494,494,493,492,802
494,494,495,493,734
494,493,495,494,562
496,493,495,493,408
494,493,495,494,273
494,493,494,492,224
494,494,494,492,227
493,493,495,492,260
493,494,495,491,346
494,494,493,492,473
494,494,494,492,603
494,494,493,492,748
493,494,493,492,813
495,494,493,493,786
496,494,495,493,666
496,493,495,494,495
497,493,495,494,348
495,493,495,494,244
494,493,494,493,217
494,494,494,493,239
494,494,494,493,291
492,494,493,493,397
494,494,494,494,525
493,494,493,492,663
493,494,493,491,789
494,494,494,492,804
495,494,495,492,748
495,493,494,494,587
494,493,496,493,424
494,493,496,495,287
493,493,496,493,228
493,493,494,492,224
493,494,494,493,254
494,494,494,492,333
493,494,494,492,451
492,494,493,493,582
493,494,493,492,731
494,494,493,491,812
494,494,494,492,793
495,494,494,493,689
494,493,495,493,510
494,493,495,493,364
495,493,496,493,254
494,493,495,492,218
494,494,493,492,232
494,494,494,493,281
494,494,494,492,379
494,494,494,494,507
494,494,494,492,638
494,494,493,491,781
494,494,494,494,809
494,494,495,493,768
495,493,494,493,613
495,493,495,493,448
494,493,494,493,308
494,493,495,493,232
494,493,494,491,221
493,494,493,493,249
494,494,493,493,318
494,494,495,492,434
492,494,493,492,565
493,494,494,492,711
493,494,493,493,808
495,494,493,491,796
496,494,494,492,710
496,493,495,495,536
495,494,494,493,387
493,493,495,494,262
494,493,494,493,222
494,493,494,496,231
495,494,494,492,272
494,494,494,492,362
493,494,494,492,489
494,494,495,493,620
493,494,493,491,768
493,494,495,492,810
495,494,494,493,779
494,493,495,493,638
495,493,495,493,464
494,493,495,493,322
496,493,494,494,239
496,493,494,492,219
495,494,494,492,245
494,494,494,493,306
492,494,494,492,416
493,494,494,493,547
494,494,494,491,690
494,494,494,492,804
494,494,495,492,802
494,494,494,492,732
495,493,495,494,557
494,494,495,494,403
494,493,495,493,272
495,494,494,492,224
494,494,495,493,227
494,494,494,493,263
494,494,494,492,348
493,494,494,493,472
494,494,493,492,604
494,494,492,492,752
494,494,494,492,813
495,494,494,493,787
494,493,495,493,662
495,493,496,493,488
495,493,495,494,345
494,493,493,493,246
494,494,493,492,218
494,494,494,492,240
494,494,494,493,293
493,494,494,492,397
494,494,494,491,525
495,494,492,491,667
495,494,493,493,793
495,494,495,492,806
494,494,496,494,748
493,493,494,495,583
493,493,494,494,419
494,493,495,494,282
495,494,495,494,227
494,493,495,494,225
494,494,493,492,255
492,494,493,492,336
494,494,493,493,450
493,494,494,492,583
494,494,494,491,737
495,494,493,492,815
496,494,495,493,793
496,494,494,493,687
496,493,495,493,503
494,493,494,493,356
494,493,494,494,255
493,493,494,494,219
493,494,494,491,235
493,494,495,492,285
492,494,494,492,380
494,494,494,492,508
493,494,494,492,646
494,494,493,492,785
494,494,495,491,809
495,494,494,493,767
495,493,495,494,610
495,493,495,494,441
494,493,495,493,304
495,493,495,492,234
495,494,495,493,222
493,493,494,494,250
493,494,495,492,323
495,494,494,493,441
494,494,493,491,569
494,494,494,491,713
493,494,494,493,810
495,494,494,493,796
495,493,495,493,708
495,493,496,493,534
495,493,495,494,386
495,493,496,493,260
494,493,494,493,220
494,493,495,493,232
493,494,494,494,275
494,494,493,493,367
494,494,494,492,494
493,494,495,492,625
494,494,494,492,771
494,494,494,491,811
496,494,494,492,778
495,493,495,493,634
496,493,495,493,462
495,493,494,494,320
494,493,494,493,239
493,493,495,493,220
494,493,493,493,246
494,494,494,492,308
493,494,494,491,418
494,494,494,492,548
494,494,494,492,694
494,494,494,492,806
495,494,494,492,799
495,494,494,492,728
494,493,496,494,554
495,493,496,493,398
494,494,495,494,270
493,493,495,493,224
493,493,494,492,229
493,494,494,492,265
494,494,494,492,351
494,494,493,491,475
493,494,493,492,607
494,494,493,491,756
494,494,493,492,813
494,494,494,493,786
494,494,494,493,658
494,493,495,494,482
495,493,496,493,342
494,493,495,494,245
495,493,494,493,217
495,494,497,493,241
494,494,494,493,298
494,494,495,493,405
494,494,494,493,532
493,494,493,492,670
494,494,493,492,793
494,494,493,493,804
494,493,494,493,744
494,493,495,494,579
495,493,495,494,421
495,494,495,494,284
494,493,494,494,226
492,494,494,492,225
492,493,494,492,256
493,494,494,492,337
494,494,494,492,456
494,494,494,491,587
494,494,494,491,739
495,494,494,493,814
494,494,494,492,792
495,493,495,493,681
495,493,496,493,503
494,493,494,493,357
494,494,495,493,252
494,494,495,493,219
492,493,494,492,236
495,493,494,492,285
495,494,494,492,383
494,494,494,492,513
492,494,493,492,648
494,494,494,492,786
494,494,494,492,808
494,494,494,493,762
495,493,495,493,605
496,494,495,494,440
495,493,495,494,300
495,493,494,493,234
495,493,495,494,221
494,494,495,493,251
494,493,495,492,324
494,494,493,493,442
494,494,493,491,572
494,494,493,492,718
493,494,494,493,809
494,494,494,492,795
494,494,494,493,703
494,493,494,493,528
495,493,495,494,380
495,493,496,493,259
494,493,496,493,221
493,494,495,491,232
494,494,494,493,276
494,494,494,494,369
493,494,494,492,497
494,494,493,491,627
493,494,492,492,772
494,494,494,492,811
493,494,493,493,776
493,493,495,494,629
494,493,495,494,461
494,493,495,494,320
494,494,494,494,238
496,493,494,493,220
493,494,493,493,247
493,494,495,494,310
493,494,493,493,421
492,494,493,493,551
494,494,492,492,698
496,494,494,492,807
494,494,495,492,801
494,494,494,495,724
496,494,494,493,548
495,493,495,494,392
495,493,494,494,270
493,494,493,495,225
494,493,495,494,230
493,494,493,494,266
495,494,495,492,353
492,494,494,492,469
493,494,493,492,604
493,494,492,491,760
496,494,494,492,815
494,494,493,493,785
496,494,496,492,655
496,493,496,494,472
494,493,496,493,329
495,493,495,494,248
492,494,494,495,222
494,494,495,493,244
493,494,493,493,300
494,494,495,492,400
493,494,493,492,529
494,494,495,492,678
495,494,494,493,798
493,494,496,492,804
494,494,494,493,744
496,493,495,493,576
495,493,494,493,413
494,493,494,495,281
495,493,495,492,228
493,494,493,492,227
493,494,495,492,259
492,494,494,492,340
493,494,493,492,459
493,494,493,491,588
494,493,492,494,741
494,494,496,491,814
495,494,494,493,793
496,494,493,492,680
495,494,497,493,497
495,493,496,493,351
493,493,495,492,252
493,494,494,494,221
493,494,496,494,240
495,494,494,493,289
493,494,495,492,386
495,494,494,492,510
494,494,493,491,654
493,494,495,493,789
495,494,493,493,809
495,494,496,491,761
495,493,496,493,600
495,494,495,495,428
495,493,494,494,291
493,494,493,495,233
492,493,496,492,226
493,494,494,493,254
492,494,496,494,326
492,494,493,492,435
494,494,493,494,568
494,494,492,493,725
493,494,495,493,813
494,494,494,492,797
494,494,495,493,701
495,493,495,495,519
495,493,494,493,369
496,493,495,494,262
494,493,494,492,224
495,494,494,494,235
493,494,494,492,280
493,494,494,493,371
493,494,494,493,493
495,494,494,492,632
492,494,493,491,779
494,494,493,494,813
496,494,494,492,775
495,493,496,493,628
495,494,495,494,449
496,494,494,494,311
493,494,494,495,239
494,493,496,495,224
495,494,496,493,250
492,494,493,495,316
493,494,495,492,421
493,494,495,492,552
495,494,492,492,703
495,494,494,493,810
495,494,495,494,802
495,494,496,492,724
495,494,495,495,547
495,493,496,495,391
493,493,496,494,270
493,494,496,495,225
493,494,494,493,230
496,494,493,492,272
495,494,494,492,355
493,494,495,492,474
494,494,494,493,607
494,494,492,491,764
494,494,494,492,816
496,494,493,492,785
496,494,494,495,652
495,493,495,493,469
495,493,496,495,327
496,493,496,492,243
495,494,495,495,220
495,494,495,492,243
493,494,494,493,302
494,494,495,493,402
495,494,494,492,532
494,494,495,493,682
495,494,495,492,803
495,494,495,492,806
495,494,495,491,740
496,493,496,493,571
495,493,496,493,406
493,493,496,494,278
494,494,496,492,227
492,494,496,494,228
493,494,493,494,259
495,494,496,493,341
494,494,492,492,458
494,494,493,493,589
496,494,493,493,747
496,494,494,492,816
496,494,495,494,791
496,494,494,493,675
495,493,494,495,490
493,494,496,492,345
495,493,496,492,253
495,494,493,494,223
494,493,495,494,241
495,494,494,494,290
492,494,494,492,388
494,494,493,491,513
494,494,493,494,658
492,494,493,490,790
496,494,493,491,810
494,494,493,492,756
496,494,495,493,595
495,494,496,495,426
494,493,496,495,289
492,494,495,494,233
494,493,493,492,225
495,493,494,493,253
493,494,493,493,330
493,494,493,491,438
493,494,494,491,570
495,494,494,492,728
493,494,493,493,814
496,494,495,492,795
496,494,493,492,698
496,493,495,495,514
494,494,494,493,364
495,493,495,492,258
494,493,496,494,221
493,494,493,495,237
495,494,496,491,281
494,494,493,492,373
494,494,494,492,494
494,494,494,492,634
493,494,495,491,781
493,494,493,492,813
496,494,495,492,774
493,494,495,495,623
496,493,496,493,445
495,493,494,494,305
495,494,494,492,237
495,493,495,492,222
494,494,493,494,249
493,494,492,492,319
495,494,495,492,424
493,494,494,493,555
493,494,494,493,709
494,494,492,491,810
494,494,495,491,802
496,494,494,491,719
496,493,496,492,539
495,494,495,494,385
496,493,495,493,268
493,494,496,493,227
494,494,493,492,234
492,494,494,492,271
494,494,494,491,361
494,494,493,493,478
493,494,494,492,611
493,494,494,490,766
496,494,495,491,814
496,494,496,494,785
496,494,494,494,646
498,494,497,495,465
496,493,496,494,326
495,493,494,493,244
493,493,493,493,221
491,494,495,493,246
491,494,495,491,304
494,494,494,493,404
494,494,494,493,535
493,494,492,493,686
494,494,495,491,804
494,494,493,493,805
495,494,495,492,739
496,493,495,493,568
495,494,495,493,405
495,493,495,494,276
494,493,495,493,225
493,494,495,492,230
493,494,494,492,261
493,494,494,492,344
492,494,494,491,460
494,494,493,492,593
495,494,492,491,750
493,494,494,492,816
494,494,493,492,790
493,494,494,494,673
494,493,495,493,489
495,493,494,493,342
496,493,494,492,251
494,493,495,492,221
496,494,493,492,243
494,494,493,493,294
494,494,493,492,392
492,494,493,491,516
493,494,494,491,664
493,494,493,494,792
493,494,494,492,808
495,494,494,493,755
495,493,497,492,594
496,493,494,493,420
495,493,494,493,286
495,493,496,493,232
493,494,494,492,226
493,493,494,494,257
493,494,494,493,332
493,493,493,492,442
493,494,492,493,575
493,494,492,491,731
495,494,492,491,814
495,494,493,492,795
494,494,493,492,696
494,493,494,495,509
495,493,495,493,361
494,493,496,492,260
494,493,494,495,223
496,493,493,491,236
494,494,494,492,283
493,494,492,493,376
493,494,492,494,498
493,494,492,491,639
495,494,494,493,781
496,494,494,494,812
496,494,495,492,772
494,494,494,492,620
496,493,496,495,444
494,493,496,494,303
494,493,496,495,237
496,493,494,493,226
495,493,493,492,252
495,494,495,491,321
494,494,493,493,424
493,494,492,491,556
494,494,492,490,711
495,494,494,491,813
496,494,495,492,800
495,494,496,494,716
494,494,496,494,536
496,493,495,494,384
496,493,494,494,266
496,493,494,492,226
494,493,496,492,233
492,494,495,491,273
492,494,493,493,362
494,494,493,493,482
492,494,492,493,614
493,494,492,491,768
495,494,493,492,815
495,494,495,492,782
495,494,495,494,645
495,493,496,494,461
494,493,496,493,321
495,493,496,495,245
494,493,493,495,221
495,494,495,493,247
493,494,495,494,308
492,494,492,491,410
493,494,495,493,540
492,494,492,491,688
493,494,495,491,805
495,494,493,494,804
496,494,496,494,734
495,493,495,492,561
495,493,494,493,401
494,494,496,493,276
494,493,493,494,226
495,494,493,494,228
494,494,494,492,263
493,494,495,494,348
493,494,494,492,462
493,494,493,492,595
493,494,493,490,751
493,494,495,493,815
495,494,493,492,788
494,494,493,495,668
496,493,495,493,483
496,493,494,495,342
494,493,493,495,250
494,494,493,494,220
493,494,495,493,243
492,494,493,494,295
495,494,493,492,393
493,494,495,491,519
494,494,495,490,667
493,494,495,491,794
494,494,492,492,808
496,494,493,492,750
493,494,495,494,587
495,493,496,493,418
494,493,495,495,283
494,493,496,493,229
496,493,493,492,226
494,493,496,493,256
494,494,495,492,335
495,494,493,493,445
495,494,494,491,577
493,494,492,491,735
493,494,493,491,816
494,494,494,492,795
495,494,494,493,690
496,493,496,495,505
494,493,496,492,357
493,493,495,494,255
495,494,495,494,222
494,493,496,492,236
493,494,493,494,283
495,494,493,492,379
496,494,495,492,501
495,494,494,493,642
495,494,495,491,784
494,494,493,492,811
495,494,496,494,769
493,494,496,495,615
494,493,497,495,437
493,493,496,494,300
493,493,496,492,236
495,494,495,494,225
494,493,493,494,251
493,494,495,491,321
495,494,493,492,427
493,494,494,491,558
494,494,493,491,715
494,494,495,492,811
496,494,493,491,800
494,494,493,493,713
496,493,496,495,531
495,493,494,492,379
494,493,495,494,265
494,494,494,492,222
495,493,493,494,235
496,494,494,493,275
493,494,494,494,363
495,494,495,491,485
495,494,493,491,617
494,494,493,490,771
495,494,494,494,814
496,494,493,493,781
494,494,493,493,640
495,494,496,493,459
494,493,496,494,318
493,493,496,492,241
494,493,496,494,223
494,494,493,494,247
494,494,494,493,309
493,494,495,491,411
493,494,494,492,543
494,494,492,490,693
494,494,494,494,807
495,494,494,493,801
494,494,496,492,731
495,493,494,493,558
496,493,496,491,395
493,493,493,492,274
496,493,495,495,228
492,493,496,494,230
492,494,495,491,266
493,494,492,493,351
494,494,493,492,465
493,494,493,492,597
494,494,493,491,756
493,494,495,493,815
494,494,493,491,788
495,493,494,492,665
495,493,496,493,479
496,493,495,494,338
493,493,494,492,251
493,493,494,493,222
494,493,493,494,243
493,494,495,493,298
494,494,492,493,396
494,494,494,491,522
493,494,493,490,669
493,494,492,490,796
495,494,496,493,806
496,494,496,492,749
495,493,494,494,583
495,493,496,494,416
495,493,494,493,282
495,493,496,494,231
494,493,493,493,226
495,494,495,494,259
494,494,493,491,335
493,494,493,491,447
494,494,494,491,580
495,494,494,491,737
496,494,493,493,816
494,494,493,493,794
494,494,495,492,686
496,493,496,493,504
495,493,495,492,354
495,493,497,495,254
495,493,495,494,222
495,494,495,493,238
495,494,492,492,286
495,494,495,493,381
494,494,494,491,504
493,494,494,491,648
493,494,494,493,786
493,494,492,491,809
496,494,495,493,767
493,494,493,492,609
496,494,497,493,432
493,493,497,493,294
494,494,495,491,236
494,494,494,492,225
495,494,493,492,253
495,494,494,492,324
495,494,493,492,429
494,494,492,492,561
493,494,494,491,719
494,494,494,491,813
494,494,494,492,799
495,494,494,494,710
495,493,494,494,526
495,493,495,492,379
494,493,496,495,263
492,493,494,495,223
494,494,494,493,235
492,494,494,493,278
495,494,493,492,365
494,494,493,492,491
494,494,493,491,624
492,494,493,491,772
495,494,493,492,814
494,494,495,492,779
497,494,496,494,635
497,493,494,493,460
494,493,496,493,321
495,493,494,493,241
494,494,493,491,221
493,494,495,492,249
495,494,493,492,310
493,494,495,493,416
494,494,493,492,546
494,494,493,491,698
494,494,494,491,808
493,494,494,494,802
495,494,495,492,730
495,493,494,493,554
496,494,496,495,394
496,493,495,494,272
494,493,495,493,226
495,493,496,494,230
493,494,493,492,266
493,494,493,492,351
495,494,493,491,469
493,494,494,492,603
493,494,493,492,758
493,494,494,492,815
495,494,495,492,787
495,493,494,494,661
496,493,494,493,480
495,493,495,493,337
494,493,495,493,246
494,493,494,495,220
493,494,495,492,242
494,494,495,493,297
494,494,494,494,403
494,494,494,491,532
494,494,494,491,672
493,494,493,493,796
495,494,494,492,804
495,494,494,493,746
494,493,496,493,578
496,494,495,494,419
494,493,495,495,282
494,493,495,493,227
493,493,494,494,226
494,494,493,494,257
493,494,495,491,338
494,494,493,492,459
494,494,494,491,589
493,494,493,493,738
494,494,493,493,814
493,494,495,493,793
494,493,494,493,695
495,493,495,493,543
495,493,495,495,400
494,493,495,494,270
494,493,494,494,203
494,494,494,493,224
494,494,494,492,281
495,494,494,491,409
494,494,494,492,545
493,494,493,492,672
493,494,493,492,763
495,494,494,492,791
494,494,495,491,747
494,493,495,494,619
495,493,495,493,469
495,493,495,493,329
494,493,495,494,219
494,493,493,494,201
494,493,494,493,233
494,494,493,492,326
493,494,493,492,465
492,494,494,491,597
492,494,493,492,715
494,494,493,492,789
495,494,494,493,776
496,494,495,493,698
496,494,495,493,551
495,493,494,494,406
494,493,495,494,274
494,493,495,494,196
494,494,495,493,212
494,493,494,492,261
494,494,493,492,386
495,494,493,491,523
493,494,494,491,652
493,494,494,492,748
494,494,494,492,790
494,494,494,492,759
495,493,495,493,636
495,494,495,494,485
496,493,495,494,346
495,493,495,494,230
494,493,495,493,195
494,494,494,493,226
493,494,494,493,308
493,494,493,491,446
494,494,493,492,580
493,494,494,492,699
494,494,494,492,781
494,494,495,492,779
495,494,495,493,714
495,493,495,493,570
496,493,496,493,426
495,493,495,493,290
494,493,496,493,196
494,493,494,491,207
494,493,494,493,249
494,494,494,492,364
494,494,494,492,503
493,494,494,492,634
494,494,494,493,735
494,494,494,493,790
494,494,494,493,766
494,493,494,493,655
495,493,496,493,505
494,493,495,494,365
494,493,494,493,241
494,493,494,494,193
494,493,494,494,221
493,494,494,492,291
493,494,494,492,427
494,494,494,492,560
495,494,493,492,685
495,494,493,492,772
495,494,494,492,783
495,494,494,493,727
495,493,496,492,590
495,493,495,493,442
495,493,495,493,304
494,493,495,492,204
493,493,494,493,203
493,493,494,493,238
493,494,495,493,344
492,494,494,493,486
493,494,494,491,618
495,493,494,492,727
494,494,494,491,790
495,494,494,492,771
495,493,494,493,675
495,493,495,494,526
496,493,494,493,382
495,493,494,494,255
495,493,495,492,192
493,493,494,493,216
493,494,494,492,276
494,494,494,492,407
494,494,493,492,542
494,494,494,492,669
493,494,494,492,761
495,494,494,493,784
496,494,495,491,740
495,493,495,492,612
495,493,495,493,461
495,493,494,494,323
494,493,495,493,216
492,493,495,493,199
493,493,494,493,232
494,494,494,492,327
493,494,494,493,467
493,494,494,492,597
494,494,494,491,714
494,494,493,492,786
494,494,494,493,775
494,494,494,492,691
494,493,495,492,545
495,493,496,493,403
495,493,495,494,270
494,493,495,494,193
493,494,493,493,212
494,494,494,492,262
495,494,493,492,386
493,494,493,491,526
493,494,494,491,654
494,494,493,492,751
494,494,494,492,789
495,494,494,494,757
494,494,495,493,633
495,493,495,494,482
494,493,495,494,342
493,493,494,493,226
493,493,495,492,196
494,494,494,492,227
493,494,494,492,310
493,494,494,493,450
494,494,493,492,581
493,494,494,493,676
494,494,492,492,786
494,494,494,493,778
495,494,493,493,704
495,493,495,493,527
495,493,495,493,348
494,493,494,492,261
494,493,494,492,219
493,494,494,493,226
494,494,494,492,265
494,494,494,492,351
493,494,494,492,453
493,494,494,492,605
493,494,493,491,760
494,494,494,493,813
496,494,495,492,784
495,494,495,494,649
496,493,495,493,460
496,493,495,493,309
494,493,494,493,248
493,493,493,492,221
494,494,494,493,245
495,494,493,492,303
493,494,495,492,402
493,494,494,492,537
493,494,493,492,681
494,494,494,491,801
493,494,494,493,805
493,494,494,494,744
495,493,496,493,605
494,493,495,495,390
496,493,496,493,273
494,493,494,493,224
494,493,495,493,225
493,493,495,492,259
494,494,493,492,351
493,494,493,492,463
493,494,493,492,600
494,494,493,492,741
493,494,494,491,812
495,494,494,492,787
494,494,495,492,687
496,494,495,494,489
494,494,497,494,353
494,493,495,493,247
494,493,493,492,216
493,494,493,493,237
493,494,495,493,288
493,494,493,492,403
494,494,494,492,534
493,494,494,492,662
494,494,493,492,782
494,494,495,493,802
495,494,494,492,754
494,493,494,493,621
494,493,494,493,470
496,493,495,493,330
494,493,495,493,222
494,494,495,494,208
494,493,494,492,239
494,494,494,492,337
493,494,493,492,477
493,494,495,493,606
493,494,494,492,720
494,494,493,491,792
494,494,495,493,777
495,493,494,492,687
495,493,494,493,532
494,494,496,494,383
494,493,495,493,249
494,493,495,492,204
493,494,493,493,221
493,494,494,492,269
493,494,495,492,372
494,494,494,492,502
493,494,494,492,630
494,494,493,492,770
495,494,494,492,803
494,493,494,492,765
495,493,495,493,616
496,494,495,493,445
495,493,495,494,306
494,493,495,494,232
494,494,494,493,218
493,494,493,492,245
494,494,494,491,313
495,494,494,491,423
495,494,494,491,554
495,494,493,491,704
495,494,494,492,808
494,494,495,492,797
494,494,494,492,717
494,493,495,494,540
494,493,496,492,392
494,493,494,495,262
496,493,495,494,222
493,494,493,492,230
492,494,494,492,269
493,494,494,492,361
493,494,494,492,490
494,494,494,491,621
494,494,494,491,760
493,494,493,492,811
494,494,494,492,780
495,494,495,493,646
495,493,495,493,481
494,493,495,493,338
495,493,495,492,236
494,493,494,492,214
495,494,494,492,240
493,493,494,493,300
494,494,494,492,421
494,494,494,492,550
494,494,494,491,677
493,494,493,492,795
495,494,494,492,797
494,494,494,492,731
496,494,495,494,569
494,494,495,494,416
495,493,495,494,278
494,493,494,492,220
494,493,494,492,224
492,494,494,493,256
494,494,494,492,341
494,494,494,492,467
494,494,493,492,598
494,494,493,491,743
495,494,494,492,811
496,494,493,492,787
495,494,494,494,667
495,493,495,494,492
495,493,495,493,348
495,494,494,493,245
495,493,494,492,218
493,494,495,493,239
494,494,494,492,290
493,494,495,492,392
494,494,494,492,521
494,494,494,492,660
495,494,493,492,789
495,494,494,492,806
495,494,495,492,750
495,494,496,494,591
495,494,495,493,430
495,494,494,494,292
495,494,495,494,229
493,494,495,492,224
494,493,495,492,252
494,494,494,492,330
493,494,495,492,454
494,494,495,491,582
492,494,493,493,726
493,494,493,491,810
494,494,495,493,792
496,494,494,491,692
494,494,496,494,517
493,494,494,494,367
494,493,495,494,254
494,493,494,494,218
492,494,493,492,232
494,494,495,493,279
494,494,495,493,374
494,494,494,493,499
492,494,494,492,637
494,494,493,491,780
496,494,493,492,809
493,494,494,493,770
494,493,495,493,615
495,494,495,494,441
495,494,495,494,302
497,494,494,492,238
495,493,494,494,221
494,494,494,493,250
492,494,493,492,319
493,494,494,493,425
494,494,492,493,556
494,494,492,493,709
493,494,494,492,811
494,494,494,493,798
495,494,495,492,715
495,493,495,494,535
495,494,496,493,385
494,494,495,494,265
493,494,494,494,224
492,494,495,494,232
492,494,494,493,273
492,494,493,493,361
495,494,493,492,488
495,494,493,491,619
494,494,493,491,768
495,494,493,492,813
496,494,494,493,781
496,494,496,492,641
495,494,496,494,472
495,493,495,493,329
494,493,494,493,240
494,494,495,493,220
494,494,494,492,243
494,494,494,492,304
494,494,494,492,416
494,494,495,493,546
494,494,494,492,687
494,494,493,492,801
495,494,494,491,800
495,494,495,491,732
494,494,495,494,562
495,493,495,494,405
494,493,496,493,271
494,494,495,493,224
494,493,495,495,227
493,494,494,493,260
494,494,494,492,347
493,494,494,492,470
494,494,494,491,600
494,494,494,491,749
494,494,494,491,813
495,494,494,493,786
495,493,496,493,664
495,493,495,494,488
494,493,496,493,346
495,493,495,493,246
494,493,494,493,218
493,494,494,493,239
494,494,494,493,293
494,494,495,492,397
494,494,494,491,523
494,494,494,492,663
493,494,494,493,789
494,494,494,493,803
494,494,494,492,747
495,493,496,493,586
495,493,495,493,426
496,494,496,494,289
495,493,494,493,227
494,494,495,493,224
494,494,494,492,254
494,494,495,493,333
494,494,494,492,454
494,494,493,491,585
495,494,494,491,731
494,494,494,492,813
494,494,496,493,792
495,494,496,493,688
495,493,495,494,512
495,493,496,493,364
493,493,496,494,251
494,494,495,493,216
494,494,494,492,235
494,493,493,493,281
494,494,494,492,380
494,494,493,492,508
494,494,494,492,640
494,494,495,492,782
494,494,494,492,807
494,494,494,493,767
495,493,495,494,611
495,494,496,493,443
495,493,496,493,305
494,493,495,493,235
493,493,496,492,223
494,494,496,493,250
494,494,494,492,320
494,494,494,491,435
494,494,495,492,565
494,494,494,491,712
495,494,494,492,809
495,494,494,492,797
494,494,495,493,709
495,493,496,493,533
495,493,495,493,385
494,493,496,493,262
494,494,495,494,222
492,494,494,493,231
494,493,495,493,273
494,494,494,492,364
494,494,494,492,491
494,494,494,492,622
494,494,494,491,768
495,494,495,492,811
495,494,494,492,779
495,493,496,492,637
495,494,496,494,467
494,493,496,493,326
494,493,495,492,239
494,494,495,493,217
494,494,495,493,244
494,494,496,493,305
494,494,495,493,416
494,494,493,493,546
492,494,493,490,691
492,494,493,493,804
495,494,495,491,799
494,494,496,494,730
495,494,495,492,553
495,494,497,492,392
495,494,497,495,270
496,494,493,494,224
495,493,494,493,228
494,493,496,492,263
492,494,496,493,347
493,494,495,493,458
493,494,495,490,595
494,494,492,490,755
494,494,493,491,816
493,494,493,494,787
495,494,494,492,664
496,494,497,495,475
494,493,495,493,332
495,494,497,493,251
493,493,493,492,221
494,494,494,494,243
492,494,496,493,297
494,494,494,491,398
493,494,494,493,525
493,494,493,491,672
494,494,495,491,795
495,494,494,491,808
496,494,493,494,746
495,494,495,493,582
493,494,495,494,423
494,493,495,492,288
494,493,494,492,229
493,494,494,492,227
493,494,496,491,258
493,494,494,493,337
493,494,494,492,460
493,494,495,492,589
493,494,494,491,735
495,494,494,493,813
495,494,495,492,792
495,494,495,492,683
494,494,495,494,507
495,493,495,493,360
495,493,495,493,253
494,494,494,493,218
494,494,494,493,236
495,494,494,492,283
495,494,494,492,380
494,494,494,492,509
494,494,494,492,645
494,494,493,493,784
494,494,495,493,809
495,494,494,493,764
496,494,495,494,608
496,494,495,493,437
494,493,495,494,298
494,493,494,493,234
493,493,496,492,222
494,494,495,492,252
494,494,494,494,323
494,494,494,492,435
493,494,494,492,567
493,494,493,491,719
493,494,493,493,811
495,494,494,494,797
494,494,494,492,707
496,494,495,494,529
495,493,496,493,379
494,493,495,493,261
493,493,495,493,222
494,494,495,493,234
494,494,493,493,274
494,494,494,492,368
494,494,494,493,496
494,494,494,491,626
493,494,493,492,774
494,494,495,491,812
495,494,494,492,777
494,493,495,493,631
494,493,495,494,464
496,493,495,494,322
495,494,493,493,239
495,493,494,492,221
495,494,494,493,245
494,494,495,493,310
492,494,494,492,422
493,494,495,494,551
494,494,494,491,695
494,494,494,493,804
495,494,494,493,800
495,494,494,491,726
495,494,495,494,552
494,493,494,494,399
495,493,495,493,269
494,493,495,492,223
495,494,494,493,228
493,494,494,492,266
494,494,493,492,351
494,494,495,492,474
495,494,493,492,607
494,494,493,490,756
495,494,493,492,814
495,494,494,491,784
496,494,494,493,657
495,494,496,493,482
493,494,494,494,339
495,493,495,494,244
495,494,494,493,218
494,494,494,493,242
494,494,494,492,297
494,494,493,492,403
493,494,493,493,530
495,494,494,492,674
494,494,494,491,796
495,494,494,493,805
495,494,494,493,744
495,494,496,492,577
495,493,496,493,418
494,493,495,494,280
494,494,495,492,227
494,494,495,493,225
494,494,494,492,256
493,494,494,493,338
494,494,494,492,461
493,494,494,492,591
495,494,493,492,739
494,494,493,491,812
495,494,495,494,790
494,494,495,493,681
496,493,495,493,503
495,494,496,493,356
494,493,495,493,250
494,494,495,493,216
495,494,493,493,235
494,494,494,492,285
494,494,493,492,386
494,494,495,493,513
494,494,494,492,647
494,494,494,490,785
494,494,495,492,807
494,494,496,494,760
494,493,495,493,603
496,494,494,495,434
494,493,496,494,297
493,493,496,493,234
494,494,496,492,224
494,494,495,491,251
494,494,494,494,327
496,494,494,493,436
494,494,495,492,564
495,494,493,490,723
496,494,492,494,813
493,494,494,494,797
494,494,494,493,703
495,493,493,493,519
494,493,496,494,366
494,493,496,491,263
494,494,493,491,223
495,494,494,491,235
493,494,495,490,277
493,494,492,491,369
494,494,494,492,484
493,494,494,491,631
495,494,494,492,780
495,494,494,493,814
495,494,494,492,779
495,493,495,493,630
494,493,495,494,451
494,493,495,493,311
495,494,495,493,241
494,493,494,492,222
495,493,494,493,249
495,493,494,492,314
493,494,494,492,432
494,494,495,493,564
495,494,493,492,698
494,494,494,492,806
494,494,494,493,798
494,494,494,493,723
495,493,495,493,563
495,493,496,493,411
495,493,495,493,275
495,493,494,493,218
495,493,494,492,225
494,493,495,494,265
495,494,495,492,362
494,494,494,493,493
492,494,493,492,619
494,494,493,492,752
494,494,494,491,806
495,494,494,492,779
494,493,495,494,647
495,493,495,494,480
495,493,494,495,337
495,493,496,492,239
493,493,495,494,215
493,494,494,492,239
494,493,494,492,298
493,494,495,492,399
494,494,494,492,526
493,494,493,492,676
494,494,493,492,797
494,494,494,494,803
495,494,494,493,739
496,494,495,492,571
496,493,495,492,406
495,493,495,493,277
495,493,495,492,225
493,493,494,493,227
494,493,494,492,259
494,494,494,493,341
493,494,494,492,458
494,494,493,492,591
494,494,494,491,745
494,494,494,492,815
494,494,495,492,791
496,493,495,493,677
496,493,496,493,501
495,493,494,493,356
495,493,495,493,249
494,493,494,494,219
494,494,494,492,237
494,494,493,492,287
494,494,494,493,399
494,494,494,492,527
494,494,493,491,655
493,494,493,492,784
494,494,495,493,804
494,494,494,492,754
496,494,495,494,602
495,493,495,494,442
494,493,495,493,302
494,493,494,493,226
493,493,494,491,220
494,494,494,493,249
494,494,495,493,327
495,494,494,492,450
494,494,493,491,577
495,494,494,492,719
495,494,494,491,809
494,494,494,492,791
494,494,494,493,695
494,493,495,493,517
495,494,496,493,370
495,494,496,493,257
493,493,495,493,218
494,493,494,493,233
494,494,495,492,277
494,494,493,493,370
494,494,494,491,496
494,494,493,493,630
495,494,493,492,777
494,494,493,493,810
494,494,494,493,774
495,494,494,493,622
495,494,495,493,451
495,493,495,493,310
495,493,494,493,237
494,493,494,493,221
494,494,494,493,248
494,494,494,492,315
494,494,494,492,427
494,494,493,491,559
494,494,493,491,702
494,494,494,492,807
494,493,495,493,799
495,494,495,492,721
495,493,495,493,548
495,494,495,494,398
494,493,495,493,263
494,494,494,493,221
494,493,494,492,229
494,494,495,492,268
494,494,495,492,360
494,494,493,492,489
494,494,494,492,618
494,494,493,492,759
493,494,495,492,810
494,494,494,491,781
495,493,494,494,646
495,493,495,494,478
493,493,495,495,334
494,494,495,492,240
494,493,494,492,219
493,494,494,493,241
495,494,494,492,301
494,494,494,492,410
494,494,494,492,538
494,494,493,491,679
496,494,493,492,799
495,494,495,492,801
496,494,494,492,737
495,493,495,493,566
494,493,496,493,408
494,493,496,493,276
494,493,495,493,225
493,493,494,494,226
494,493,494,492,260
494,494,495,493,343
494,494,494,491,463
493,494,493,492,596
494,494,494,491,746
495,494,495,493,814
493,494,494,493,789
494,494,494,492,672
495,493,495,493,497
494,493,495,493,352
496,493,495,493,248
496,493,495,492,216
495,493,494,492,238
494,494,494,493,290
494,494,494,491,395
494,494,495,492,524
494,494,494,492,657
494,494,495,493,788
494,494,494,491,805
494,494,494,493,752
495,493,495,493,594
496,494,496,493,433
496,494,495,493,293
494,493,495,494,227
493,494,494,492,222
492,494,495,492,252
494,494,496,493,330
494,494,494,492,451
495,494,494,492,581
494,494,494,491,725
494,494,494,491,809
495,494,494,492,792
495,494,496,493,694
494,493,495,493,516
495,493,495,493,368
495,493,494,494,255
494,493,495,492,218
494,494,495,493,234
493,494,494,493,279
494,494,494,492,375
494,494,493,493,502
494,494,493,492,635
494,494,493,492,779
494,494,494,492,810
494,494,495,492,771
494,494,496,493,617
495,494,495,493,448
494,494,495,494,310
495,493,495,493,236
494,494,494,494,220
494,494,495,493,249
493,494,494,493,317
493,494,493,492,430
494,494,494,492,561
494,494,493,491,706
494,494,493,492,808
495,494,494,492,798
495,494,494,492,717
495,494,494,494,542
495,494,496,493,393
494,493,495,493,263
494,494,495,493,221
494,494,495,493,231
494,494,494,492,271
495,494,493,492,360
494,494,494,492,489
494,494,494,492,619
494,494,493,491,764
494,494,494,493,811
495,494,494,493,781
495,494,495,493,640
496,493,495,493,472
494,493,495,493,328
494,493,496,495,238
494,493,493,494,219
493,493,495,492,242
492,494,494,493,302
493,494,494,493,415
495,494,493,493,544
494,494,494,492,685
494,494,494,492,801
496,494,495,493,802
496,493,494,493,734
497,493,495,494,564
497,493,497,494,407
495,493,495,494,272
493,493,495,493,225
495,494,495,492,227
493,494,493,493,260
493,494,493,492,346
494,494,494,493,469
494,494,495,491,599
494,494,494,492,747
495,494,493,492,813
496,494,494,493,787
496,494,496,493,665
495,493,495,493,491
494,493,495,494,348
495,493,495,494,248
495,493,494,493,219
495,493,495,493,239
494,494,494,493,292
494,494,494,492,398
494,494,494,492,525
494,494,494,491,661
495,494,493,491,789
495,494,494,493,805
495,494,494,493,750
494,493,495,493,589
495,493,495,494,427
494,493,495,494,289
493,493,494,493,227
495,493,495,494,224
495,494,494,492,254
495,494,494,492,330
495,494,494,492,451
494,494,494,492,582
494,494,494,491,730
495,494,494,492,811
496,494,495,494,791
495,494,495,493,691
495,493,495,493,513
495,493,495,493,365
495,493,495,494,252
494,493,494,493,218
494,493,494,493,235
494,494,496,493,279
494,494,494,492,378
494,494,493,492,506
494,494,493,492,641
494,494,494,492,781
493,494,494,492,809
495,494,494,492,768
496,493,495,494,614
495,493,495,494,446
495,493,495,492,306
494,493,495,494,233
494,494,493,493,221
494,494,495,493,248
494,494,494,492,320
493,494,494,492,436
494,494,493,491,565
494,494,493,492,710
493,494,493,493,809
494,494,494,492,795
494,494,495,494,712
495,494,495,494,535
495,493,495,493,385
494,493,495,494,262
493,493,495,493,222
495,494,494,492,232
494,494,494,493,273
495,494,494,492,362
494,494,494,491,486
494,494,493,492,617
494,494,493,492,770
495,494,493,494,813
495,494,495,492,780
496,493,494,493,639
496,493,496,494,464
494,493,494,493,324
494,493,495,493,240
494,493,495,494,220
494,494,494,493,245
493,494,493,492,307
494,494,494,492,417
494,494,493,491,547
493,494,493,491,689
494,494,493,492,802
495,494,494,494,802
496,494,494,493,734
496,494,496,494,563
495,493,496,493,407
493,493,495,493,271
495,493,495,493,222
494,493,494,492,227
494,494,495,493,263
493,494,494,493,348
493,494,494,492,476
493,494,494,491,606
494,494,494,492,751
494,494,494,492,812
495,494,495,492,785
496,493,494,493,662
496,493,495,494,489
495,493,495,493,344
494,493,495,493,244
495,493,494,494,215
493,494,494,492,239
493,494,493,493,294
494,494,495,492,399
494,494,493,493,526
494,494,493,491,665
494,494,494,492,790
496,494,495,492,804
495,494,494,492,747
496,493,495,493,581
495,494,496,491,420
494,493,495,493,285
494,493,494,494,228
494,494,496,492,225
494,494,494,492,256
493,494,495,493,334
494,494,493,492,454
493,494,494,491,584
494,494,493,492,734
495,494,493,493,813
495,494,495,492,793
495,494,494,493,686
496,493,495,493,510
494,493,494,493,363
495,493,495,493,253
494,493,495,492,216
494,493,495,493,236
494,493,493,493,282
495,494,493,492,383
494,494,494,490,512
494,494,493,492,644
493,494,493,491,782
493,494,494,493,809
495,493,495,492,764
495,494,495,493,610
495,493,496,493,445
495,493,495,493,304
495,493,495,493,232
495,494,494,492,222
494,494,494,492,249
494,494,493,492,320
495,494,494,492,438
494,494,494,492,567
494,494,493,491,714
494,494,494,492,809
494,494,494,493,796
495,494,494,492,717
495,494,496,493,569
495,493,494,492,423
495,493,495,493,287
493,494,496,493,206
493,494,494,492,219
494,494,494,493,266
494,494,495,493,387
494,494,495,492,525
495,494,493,492,652
494,494,494,492,748
495,494,494,492,793
495,494,495,493,763
495,493,495,494,641
494,493,495,493,492
495,493,496,494,350
494,493,495,493,233
494,493,495,494,198
495,494,495,492,227
495,494,493,492,306
494,494,493,492,444
494,494,493,491,577
494,494,494,492,697
494,494,493,492,780
495,494,494,493,782
494,494,494,493,718
495,493,494,493,576
496,493,496,493,431
495,493,495,494,294
493,493,495,492,198
492,493,494,493,207
493,494,494,493,248
494,494,493,492,360
494,494,493,492,501
494,494,494,493,632
494,494,493,492,734
494,494,494,493,791
494,494,493,493,767
496,494,495,494,661
496,493,495,494,510
496,493,495,493,368
495,493,494,494,243
494,493,495,493,195
494,493,494,492,220
495,494,493,493,288
494,494,494,492,422
494,494,494,492,557
493,494,493,491,681
493,494,494,492,769
495,494,494,492,783
496,494,496,492,730
495,494,494,493,594
494,493,494,493,447
494,493,495,494,308
494,493,496,493,206
494,493,495,493,203
494,493,494,492,236
495,494,493,492,343
493,494,494,491,484
495,494,494,492,614
494,494,494,492,724
494,494,493,491,790
496,494,494,492,771
495,494,495,493,677
495,493,495,493,528
496,493,496,493,386
495,493,495,494,258
494,493,495,493,194
494,494,495,493,215
494,493,495,493,273
493,494,493,491,403
492,494,494,493,539
494,494,494,492,666
494,494,494,493,759
494,494,495,492,786
495,494,494,492,743
495,493,494,493,615
495,494,495,493,466
494,493,495,493,327
494,493,495,493,217
495,493,495,493,200
494,493,494,494,231
494,494,495,492,325
494,494,493,492,464
494,494,494,491,588
494,494,494,491,695
493,494,493,492,789
494,494,494,492,776
496,494,494,493,688
496,493,495,494,506
495,493,495,494,334
494,493,495,493,255
494,493,494,493,215
495,493,493,492,229
494,494,494,492,272
495,494,494,492,363
494,494,495,492,464
493,494,494,492,626
495,494,493,492,775
495,494,494,492,812
495,494,494,493,776
496,494,495,494,630
495,493,495,494,438
493,494,495,493,301
494,493,494,494,242
494,494,495,493,226
493,494,495,491,251
495,494,500,492,315
493,494,494,493,433
494,494,495,492,571
494,494,494,491,696
494,494,493,493,804
494,494,494,492,797
496,494,494,493,718
497,494,495,495,550
496,493,495,493,409
494,494,495,494,277
494,493,495,494,219
494,494,495,493,225
494,494,495,492,265
495,494,495,492,349
493,494,495,493,477
493,494,493,492,614
493,494,495,490,754
495,494,495,494,809
495,494,495,491,781
493,494,496,494,650
493,494,497,492,479
494,493,494,494,340
496,493,495,493,241
494,493,496,495,215
495,494,493,494,240
494,494,494,493,300
494,494,493,492,424
494,494,495,491,552
494,494,493,492,677
494,494,494,491,790
495,494,494,492,798
497,494,494,492,742
496,493,494,493,603
495,494,495,493,454
495,493,494,494,315
494,493,495,493,211
494,494,496,492,210
494,494,494,492,244
495,494,494,492,349
493,494,494,492,488
494,494,492,492,610
494,494,493,492,721
494,494,492,492,795
494,494,493,493,776
495,494,493,493,667
495,493,496,493,504
494,493,495,493,356
494,493,494,494,238
493,494,495,492,207
493,494,494,492,228
494,494,494,492,279
495,494,494,492,379
494,494,493,491,509
494,494,493,492,647
494,494,493,491,782
495,494,494,492,802
495,494,495,493,753
496,493,495,494,597
495,493,495,494,425
495,493,495,493,289
494,493,495,493,231
493,494,494,493,223
494,494,495,493,252
494,494,494,493,326
494,494,494,491,438
494,494,494,491,569
494,494,493,491,721
494,494,494,493,811
495,494,494,492,795
495,494,494,492,698
496,494,495,492,526
496,493,495,493,380
494,493,494,494,256
494,494,493,494,220
493,494,493,492,232
494,494,494,493,278
494,494,494,493,380
494,494,493,492,511
494,494,493,492,640
494,494,493,492,772
495,494,495,493,807
494,494,494,493,771
495,493,494,494,630
495,493,495,493,470
494,493,495,494,327
495,493,494,493,229
495,494,495,492,214
494,494,494,492,242
494,494,493,492,309
493,494,494,493,435
493,494,493,493,563
495,494,493,491,694
494,494,493,491,802
496,494,494,493,793
496,494,495,492,717
495,493,494,493,547
494,493,494,494,395
494,494,495,493,261
494,494,494,492,220
493,494,495,493,227
493,494,495,494,265
495,494,494,493,353
494,494,493,492,477
493,494,493,492,609
494,494,494,492,758
495,494,493,492,811
496,494,494,493,782
496,494,495,493,648
497,493,496,493,469
495,493,494,494,329
495,493,495,493,244
495,493,495,494,220
495,494,495,492,243
494,494,495,493,301
494,494,494,492,407
494,494,493,491,537
495,494,493,491,679
495,494,493,493,799
494,494,494,492,802
496,494,494,492,738
495,493,494,493,572
495,493,496,493,417
494,493,495,494,281
494,493,493,493,225
494,493,494,492,225
494,494,495,493,258
494,494,494,493,344
494,494,493,492,471
494,494,493,491,600
494,494,492,492,741
495,494,493,492,812
495,494,494,493,787
496,493,495,493,671
495,493,496,493,503
495,493,494,493,356
494,493,494,493,244
494,493,494,493,216
493,494,495,493,236
494,494,493,494,287
493,494,494,493,391
494,494,494,491,518
493,494,494,491,653
494,494,493,493,785
494,494,494,492,805
494,494,495,493,751
494,493,495,493,593
496,494,495,494,428
495,493,495,493,291
494,493,494,493,229
493,493,495,492,223
493,494,494,492,254
494,494,495,494,329
494,494,493,493,445
493,494,493,491,576
494,494,493,491,727
494,494,494,492,813
494,494,494,492,794
495,494,494,492,696
495,493,496,493,516
495,493,495,494,370
495,493,495,493,257
495,494,495,492,219
493,494,494,492,234
494,494,495,493,278
493,494,493,492,376
494,494,493,492,503
493,494,493,492,634
493,494,493,492,777
493,494,494,492,809
496,494,495,493,771
495,494,495,493,619
495,494,495,493,454
496,493,496,494,312
494,493,494,493,236
494,494,494,494,219
496,494,495,492,247
494,494,495,493,315
493,494,494,492,428
494,494,494,491,557
494,494,494,491,706
494,494,494,491,808
494,494,494,492,798
495,494,495,493,716
495,493,496,493,538
495,494,495,493,389
496,493,495,493,265
493,494,495,494,223
494,494,494,492,230
494,494,494,494,272
494,494,495,493,358
493,494,493,492,482
494,494,494,492,615
494,494,493,492,764
494,494,494,492,813
495,494,494,494,782
495,494,494,494,645
495,493,495,494,471
494,493,494,493,329
494,493,495,493,241
493,494,495,492,219
493,494,495,493,244
494,494,494,492,303
494,494,494,493,416
494,494,492,493,545
494,494,494,492,683
495,494,494,492,800
495,494,494,493,802
495,494,494,492,734
496,494,495,494,568
494,493,494,494,411
494,494,494,494,275
494,493,495,492,224
495,494,495,492,226
494,494,494,492,260
494,494,495,493,344
494,494,493,492,469
493,494,494,492,599
494,494,494,492,747
494,494,494,492,813
494,494,494,492,787
495,494,495,493,668
495,493,496,494,490
494,493,495,494,348
495,493,495,494,248
495,493,497,493,218
494,494,494,493,239
494,494,494,492,292
492,494,494,492,390
494,494,494,491,519
494,494,494,492,661
494,494,494,492,789
494,494,494,493,806
494,494,494,493,752
494,494,495,493,590
495,493,496,493,427
494,493,495,493,290
494,493,493,494,229
493,494,495,493,224
494,494,494,493,255
494,494,495,493,332
494,494,494,493,451
493,494,494,493,582
494,494,494,492,730
494,494,494,492,813
494,494,495,492,793
495,494,494,493,691
496,494,496,493,517
493,493,495,494,367
494,493,495,493,253
494,494,494,491,217
493,494,494,494,235
493,494,495,492,281
493,494,495,492,377
494,494,494,491,506
493,494,493,492,639
494,494,494,491,781
494,494,494,493,808
495,494,494,492,769
495,493,496,494,615
495,493,496,493,446
495,493,495,493,305
494,493,495,493,234
494,493,494,494,223
494,494,494,492,249
493,494,494,494,319
493,494,494,491,432
493,494,494,491,562
494,494,494,491,709
494,494,493,492,809
494,494,494,493,797
495,494,494,493,712
495,493,495,493,535
495,493,495,494,386
494,493,495,494,264
494,493,495,494,223
493,494,494,493,231
494,494,494,493,272
493,494,494,493,363
493,494,493,493,490
493,494,492,491,620
494,494,495,490,768
494,494,495,490,811
495,494,493,492,779
494,493,494,493,640
495,493,495,495,465
494,494,495,493,323
494,493,495,493,241
493,493,496,493,220
493,494,494,493,245
494,494,494,492,306
495,494,494,492,411
494,494,493,493,543
493,494,493,493,691
493,494,494,491,804
494,494,494,493,802
494,494,495,492,731
495,493,495,494,561
495,493,495,494,404
494,493,495,493,272
493,494,494,491,223
494,494,494,493,229
494,494,494,492,263
494,494,494,492,347
493,494,494,493,474
494,494,494,492,606
494,494,492,491,750
493,494,493,492,813
494,494,494,492,786
495,493,494,493,664
494,493,494,493,493
495,494,496,493,348
495,493,494,494,244
495,494,496,492,218
494,494,494,493,240
493,494,494,491,293
493,494,494,493,399
495,494,493,492,524
494,494,495,492,663
495,494,494,492,790
495,494,493,492,803
496,494,494,492,747
495,493,495,493,584
495,493,496,493,420
494,493,495,494,285
494,493,494,494,230
493,493,494,493,224
494,494,494,493,255
493,494,493,493,335
493,494,493,492,451
494,494,494,491,582
495,494,494,492,734
494,494,493,492,813
495,494,494,493,792
493,494,495,493,686
494,493,494,493,507
495,494,495,493,358
494,494,495,493,255
495,494,495,493,218
494,494,494,492,235
493,494,494,492,283
493,494,494,492,379
494,494,495,494,505
494,494,494,491,645
494,494,493,491,785
494,494,494,491,810
494,494,496,492,766
493,493,495,493,612
494,493,496,494,439
494,493,495,494,300
495,493,495,493,236
493,493,495,494,225
493,494,494,493,252
493,494,494,493,322
493,494,494,492,432
494,494,492,491,564
493,494,493,492,716
494,494,494,491,811
494,494,495,493,798
494,494,495,493,708
495,493,495,493,531
495,493,495,493,383
494,493,496,494,262
493,493,495,494,224
492,494,495,492,234
492,494,494,493,274
494,494,494,492,369
494,494,493,492,498
494,494,493,492,627
494,494,494,492,768
495,494,493,493,811
496,494,494,492,777
495,493,494,494,635
494,493,495,494,470
494,493,496,493,328
494,493,496,492,237
494,493,494,492,219
493,494,494,493,244
494,494,494,492,308
494,494,495,492,423
494,494,494,492,551
493,494,493,492,689
494,494,493,492,803
495,494,495,492,799
494,494,495,493,728
495,493,495,493,556
494,493,495,493,402
494,493,495,494,270
494,494,495,494,223
493,494,495,493,229
493,493,494,492,265
494,494,494,492,350
494,494,495,492,472
492,494,495,492,605
494,494,493,492,755
494,494,494,492,813
495,494,495,493,785
495,493,495,493,658
494,493,496,493,483
494,493,496,494,341
495,493,495,493,244
493,493,495,496,219
494,493,494,492,241
492,494,495,492,297
493,494,494,492,402
492,494,493,491,530
493,494,494,491,671
494,494,494,491,793
494,494,495,492,804
494,494,494,493,745
494,493,495,494,580
494,493,495,494,423
494,494,495,494,284
494,494,494,492,227
493,493,494,495,225
494,494,494,493,256
493,494,495,492,337
494,494,494,492,462
495,494,493,492,590
494,494,493,493,735
494,494,495,492,811
494,494,494,493,790
494,493,495,494,681
494,493,495,494,507
494,493,495,494,359
494,493,494,492,251
493,493,496,493,218
493,494,494,492,236
493,493,494,492,285
492,494,493,493,386
493,494,494,491,511
492,494,493,492,644
493,494,493,492,784
494,494,494,492,807
494,494,494,492,760
494,493,496,493,605
495,493,494,494,438
494,493,495,494,300
493,493,494,493,234
493,493,494,493,223
493,494,494,493,253
493,494,494,493,324
493,494,495,492,439
493,494,494,492,570
492,494,493,492,719
494,494,494,491,811
495,494,495,492,795
495,494,495,493,703
495,493,494,493,528
495,493,495,493,380
495,493,495,494,258
494,493,495,494,219
494,493,494,492,233
493,494,495,492,276
493,494,494,492,370
492,494,494,492,497
493,494,493,491,628
494,494,492,492,773
494,494,494,492,811
495,494,494,493,776
495,493,494,494,630
495,493,496,493,462
494,493,495,493,319
494,494,494,493,237
495,494,495,494,221
493,493,494,492,246
494,494,494,493,311
493,494,493,492,424
493,494,493,492,554
494,494,493,492,695
493,494,493,492,805
494,494,495,493,797
494,494,494,492,724
494,493,494,494,550
494,493,495,494,399
495,493,495,493,269
493,493,494,493,224
494,493,495,493,230
494,494,494,493,266
494,494,494,493,353
493,494,494,492,478
494,494,494,492,608
493,494,494,492,756
494,494,494,492,812
494,494,495,493,783
495,494,494,493,653
496,493,495,494,480
496,493,496,494,339
495,493,495,494,243
494,493,494,493,218
494,493,494,492,242
493,494,495,493,299
494,494,494,492,405
494,494,493,491,534
494,494,494,493,674
494,494,493,492,797
494,494,494,493,801
494,494,495,494,742
495,494,495,493,576
495,494,496,494,417
495,493,495,493,281
494,493,495,493,226
494,494,496,493,226
493,494,494,493,257
494,494,494,492,338
494,494,494,493,462
493,494,493,492,592
493,494,494,491,740
493,494,493,492,812
495,494,494,493,789
495,493,495,493,677
495,493,494,493,501
496,494,494,494,356
494,493,495,493,249
495,494,494,495,219
494,493,494,493,237
495,493,494,492,288
494,494,495,492,389
494,494,494,491,517
494,494,493,491,651
494,494,494,492,784
494,494,494,492,806
494,494,495,493,756
495,493,495,494,599
495,493,495,493,435
495,493,495,493,298
494,493,495,493,231
493,494,493,493,224
494,493,494,492,252
494,494,495,492,326
494,494,494,492,445
493,494,494,492,574
494,494,494,492,721
494,494,494,493,810
495,494,495,493,794
493,493,495,494,698
494,493,496,494,524
495,493,495,494,376
494,493,496,494,257
494,493,494,493,218
493,494,496,493,234
493,493,494,493,278
494,494,494,493,372
493,494,494,491,498
493,494,494,492,630
493,494,494,491,775
495,494,494,492,809
494,494,494,492,772
494,494,495,493,625
495,493,496,494,455
494,493,495,493,316
494,493,495,493,236
494,493,493,493,219
494,494,495,492,248
494,494,494,492,313
493,494,494,492,426
494,494,495,492,557
494,494,493,492,702
494,494,493,493,807
495,494,495,493,797
494,494,493,493,720
496,493,496,493,545
495,493,495,493,394
495,493,494,493,265
495,494,495,493,224
494,494,494,492,231
494,494,494,494,270
493,494,494,491,356
493,494,493,492,482
495,494,493,492,613
494,494,492,492,760
494,494,494,491,812
494,494,494,493,782
495,494,495,493,648
494,493,495,492,474
495,493,495,494,333
494,493,494,493,243
494,494,496,493,220
494,494,494,492,243
494,494,494,492,302
493,494,494,493,409
493,494,493,491,538
495,494,494,492,677
493,494,494,493,799
495,494,495,493,801
495,494,495,493,737
496,494,495,494,570
495,493,495,494,412
494,493,495,493,278
493,493,495,493,224
495,493,495,492,226
493,494,495,493,260
494,494,494,493,342
494,494,493,492,464
493,494,493,492,595
494,494,493,492,744
495,494,494,491,813
494,494,494,492,788
494,493,495,493,672
495,493,495,495,495
495,493,495,494,352
494,493,495,493,248
494,493,493,493,219
493,493,494,493,240
493,494,495,491,290
493,494,493,492,390
494,494,493,492,518
494,494,494,492,658
493,494,495,491,786
495,494,496,492,805
494,494,494,491,755
494,493,495,493,593
495,493,496,494,430
494,493,494,492,293
494,494,496,494,232
494,494,494,493,225
493,494,494,493,253
495,494,494,493,330
493,494,494,492,448
493,494,493,492,577
493,494,493,491,725
494,494,493,493,811
495,494,493,492,793
495,494,495,492,694
495,493,496,494,516
495,494,496,493,370
494,493,495,494,255
493,493,496,493,220
495,494,494,493,235
494,494,495,493,280
494,494,494,492,376
494,494,494,492,501
494,494,493,491,633
494,494,493,492,777
494,494,494,492,810
495,494,495,493,770
494,493,495,494,620
494,493,495,493,450
494,493,495,494,310
493,493,494,491,236
493,493,494,493,222
493,494,494,492,248
493,494,495,493,317
493,494,493,492,429
493,494,494,491,560
493,494,494,492,706
493,494,492,491,809
495,494,493,492,798
495,494,494,492,715
494,493,494,493,542
495,493,495,493,392
493,493,495,494,263
495,493,493,493,222
494,493,494,493,231
493,494,494,493,272
493,494,494,492,360
493,494,493,492,488
493,494,495,493,619
495,494,494,490,766
494,494,494,492,811
495,494,494,493,782
495,493,494,492,645
494,493,495,493,469
495,493,495,493,327
494,493,494,493,239
493,493,496,493,220
494,493,494,493,244
493,494,494,493,304
493,494,494,492,410
493,494,493,493,542
493,494,493,491,685
494,494,493,493,801
493,494,494,493,801
493,494,495,492,735
494,493,495,493,562
494,494,494,493,407
494,493,495,493,272
494,493,494,492,226
495,494,494,493,227
493,494,495,492,261
493,494,493,492,346
493,494,494,492,468
494,494,493,492,598
494,494,493,491,747
494,494,494,494,814
494,494,494,493,787
494,494,494,493,667
494,493,495,494,493
494,493,496,494,349
494,494,495,492,247
493,493,494,492,219
493,494,495,493,240
493,494,494,492,292
493,494,494,492,397
494,494,492,492,523
493,494,494,491,661
494,494,494,492,789
494,494,494,493,805
494,494,495,493,748
495,493,494,494,589
495,493,496,493,427
494,493,495,494,290
494,493,494,492,229
491,494,495,493,224
493,494,494,493,255
493,494,494,492,331
494,494,494,492,449
493,494,494,492,581
493,494,493,492,730
494,494,493,492,812
495,494,494,493,792
493,494,494,492,690
494,493,494,493,510
493,493,496,494,363
494,493,495,492,254
494,493,494,493,219
494,494,494,493,236
494,494,495,492,280
494,494,493,493,378
493,494,494,491,505
493,494,493,493,639
494,494,494,491,780
494,494,494,493,809
494,494,496,492,767
494,493,495,494,614
494,493,494,494,446
493,493,495,493,307
494,493,495,493,233
493,494,495,494,223
493,494,493,492,250
493,494,494,493,319
492,494,494,493,436
492,494,493,493,564
493,494,495,492,708
493,494,493,492,808
494,494,494,492,796
495,494,494,493,710
494,493,495,494,536
494,493,495,493,386
495,493,495,494,262
493,493,494,492,222
493,494,494,493,231
493,494,494,493,273
494,494,494,492,363
493,494,494,493,489
494,494,494,492,619
495,494,493,492,769
492,494,494,492,811
494,494,494,491,778
494,494,496,493,639
494,493,495,493,466
494,493,495,494,324
494,493,494,493,241
493,493,494,493,221
493,493,494,492,246
494,494,494,492,307
493,494,494,492,416
493,494,494,492,547
494,494,493,491,689
494,494,494,492,803
494,494,494,491,801
494,494,494,492,732
494,493,495,493,561
495,493,497,493,405
494,493,495,494,270
495,493,495,493,223
495,494,495,492,228
493,494,494,493,263
494,494,495,492,349
493,494,494,492,476
493,494,493,492,606
493,494,494,491,751
494,494,494,493,811
494,494,494,493,786
494,494,495,492,661
494,493,495,493,488
497,493,495,494,345
495,493,496,494,244
493,493,496,494,219
493,493,494,492,240
494,494,494,493,295
493,494,494,491,400
493,494,494,492,527
493,494,494,492,665
493,494,495,491,791
493,494,495,492,803
495,494,494,494,745
495,493,496,495,581
494,493,495,494,421
494,493,495,494,286
494,493,495,493,228
493,494,494,492,225
494,493,494,493,256
493,494,494,492,335
492,494,494,492,453
493,494,494,491,584
493,494,494,492,733
494,494,493,492,812
495,494,494,492,791
494,494,495,493,684
495,493,495,493,510
495,493,495,493,362
494,494,496,493,253
494,493,494,491,217
494,494,494,493,236
494,494,494,493,284
494,494,494,493,383
493,494,494,493,512
492,494,494,491,645
494,494,493,491,783
494,494,494,492,807
495,494,493,492,764
495,494,495,494,609
494,493,496,494,444
494,494,495,494,303
494,493,494,492,231
494,494,495,492,223
494,494,495,493,251
493,494,495,491,321
494,494,494,492,438
492,494,493,491,568
493,494,493,491,714
493,494,494,492,808
494,494,494,492,795
494,494,494,494,705
495,493,495,493,530
495,493,496,493,381
494,493,495,494,261
495,493,495,493,222
493,494,494,493,233
493,494,493,493,275
493,494,494,493,368
494,494,493,493,495
494,494,494,492,624
494,494,493,490,771
494,494,494,492,811
495,493,494,492,777
493,493,494,493,632
496,493,495,493,462
495,493,495,493,322
495,494,495,493,238
493,493,494,493,221
493,493,495,492,245
493,494,494,492,310
493,494,494,492,422
493,494,494,492,552
494,494,493,493,694
494,494,492,493,805
493,494,493,494,799
494,494,496,493,726
495,493,495,493,554
494,493,495,492,400
494,494,495,494,269
494,493,494,493,224
495,494,494,492,229
493,493,494,492,266
493,494,494,493,351
493,494,494,492,476
493,494,493,491,607
493,494,493,491,755
493,494,493,492,811
496,494,495,492,783
495,493,494,493,658
495,493,495,494,480
494,493,495,494,340
494,493,495,493,243
493,493,495,494,219
493,494,494,492,242
493,494,495,492,298
495,494,494,492,402
493,494,494,492,531
492,494,493,492,673
493,494,494,492,794
494,494,494,492,803
493,494,495,493,741
493,493,495,493,576
495,493,496,493,417
494,493,495,493,282
493,493,494,492,228
496,493,494,492,227
494,494,494,493,258
494,494,494,493,338
493,494,494,492,461
493,494,494,492,590
494,494,493,492,738
493,494,494,492,814
494,494,493,492,789
493,494,494,493,679
494,493,494,494,502
495,493,495,493,357
494,493,495,493,251
494,493,495,492,219
492,494,494,492,238
493,494,494,492,287
494,494,494,492,386
493,494,494,491,512
493,494,494,492,650
492,494,494,492,786
493,494,494,493,807
494,494,494,493,759
494,493,495,493,602
494,493,495,493,435
494,493,495,494,298
494,493,494,493,232
495,493,495,492,224
492,494,494,493,253
494,494,495,492,326
494,494,494,492,441
493,494,493,492,570
493,494,493,492,720
494,494,494,492,810
494,494,494,493,795
493,494,494,493,702
494,493,494,493,526
494,493,495,493,377
493,493,496,493,259
494,493,495,491,221
494,493,494,492,234
493,494,495,493,277
494,494,495,493,371
493,494,496,491,499
494,494,493,492,630
493,494,494,492,774
494,494,494,492,810
494,494,493,493,773
494,493,495,494,626
495,493,495,493,457
494,493,494,493,315
494,494,494,492,238
493,494,494,492,222
492,494,494,493,248
495,494,494,493,312
493,494,494,493,422
494,494,494,491,553
493,494,494,492,700
494,494,494,492,805
494,494,495,492,799
494,494,495,492,722
495,493,496,494,546
495,493,496,494,394
495,494,496,494,269
493,493,495,492,226
493,493,493,493,231
494,494,494,492,270
493,494,495,493,356
492,494,495,491,479
493,494,494,492,610
492,494,494,491,759
494,494,495,491,812
495,494,494,492,783
495,493,496,493,651
496,493,496,493,479
494,493,496,493,337
494,493,495,493,243
493,494,492,492,219
493,493,494,492,242
494,494,494,492,301
493,494,494,492,410
493,494,495,492,537
493,494,494,492,676
493,494,494,491,797
494,494,494,492,801
494,494,495,493,738
495,493,495,493,573
496,493,495,494,414
495,493,496,494,278
493,493,494,494,225
493,494,495,494,226
492,494,494,494,258
493,494,495,493,340
494,494,495,492,462
493,494,495,492,593
494,494,493,492,743
494,494,493,491,812
494,494,495,493,788
494,493,495,493,674
495,493,496,494,495
494,493,496,494,350
493,493,495,493,249
493,493,496,494,220
495,493,493,494,238
493,493,495,492,288
493,494,495,493,387
493,494,495,493,516
494,494,493,492,656
492,494,493,492,788
494,494,494,495,807
495,494,494,491,754
496,494,494,495,595
494,493,496,493,425
494,494,496,492,288
492,494,494,491,234
492,493,495,491,228
495,494,493,491,253
494,494,492,494,330
492,494,496,492,437
494,494,493,492,566
495,494,496,493,727
493,494,495,491,813
493,494,496,491,795
494,494,494,493,698
494,494,497,495,515
494,493,495,494,360
493,494,493,495,263
493,493,493,493,225
492,494,493,495,236
494,494,494,492,285
495,494,497,491,375
495,494,496,490,490
494,494,494,492,637
494,494,493,491,781
494,494,497,493,815
492,494,497,494,773
493,493,497,495,625
494,494,496,493,441
495,494,496,496,302
494,494,495,491,243
492,494,493,493,224
494,494,494,492,253
491,494,496,494,317
493,494,492,490,421
491,494,495,491,550
495,494,493,492,711
495,494,495,492,813
493,494,496,495,803
493,494,496,494,721
494,493,497,492,540
494,493,496,494,384
493,493,497,494,270
493,494,495,491,229
492,494,495,491,235
494,493,497,493,272
494,494,494,493,360
492,494,495,493,477
494,494,495,490,611
493,494,492,493,762
493,494,494,492,814
494,494,495,492,783
494,493,496,493,646
495,493,496,493,465
494,493,495,494,325
494,493,495,493,246
494,494,496,493,224
493,493,495,491,247
493,494,495,493,306
492,494,494,492,408
495,494,494,493,539
493,494,494,491,682
494,494,494,492,802
494,494,494,493,805
494,494,493,493,736
494,493,496,493,567
495,493,496,492,411
494,493,495,493,276
494,493,495,494,227
494,494,494,492,228
494,493,493,494,263
493,494,494,493,345
493,494,493,491,466
493,494,494,492,598
493,494,494,492,748
493,494,494,492,814
494,494,494,493,789
495,493,495,494,671
494,494,495,494,493
495,493,496,494,347
495,493,495,494,249
494,493,495,493,219
491,494,493,492,240
494,494,494,492,292
494,494,494,492,393
494,494,493,491,519
495,494,494,493,663
494,494,492,491,788
494,494,493,492,804
495,493,495,493,751
495,493,495,493,589
495,493,496,493,425
494,493,495,494,288
495,493,495,493,231
495,493,495,492,226
493,493,495,493,256
493,494,494,492,332
494,494,495,492,448
494,494,494,491,579
493,494,494,492,729
493,494,494,492,812
492,494,493,492,793
495,494,494,493,692
495,493,496,494,514
495,493,496,494,367
494,493,496,493,256
494,493,495,495,220
494,494,495,493,235
494,494,494,492,282
494,494,494,492,379
494,494,493,491,507
492,494,494,492,637
493,494,493,491,780
493,494,494,492,809
494,494,495,493,767
494,494,495,493,616
494,493,495,494,449
496,493,496,493,310
495,493,494,493,236
493,493,494,492,222
493,493,494,493,249
493,494,495,493,319
492,494,495,492,432
494,494,494,491,561
495,494,493,491,709
493,494,494,492,807
495,494,494,493,796
494,494,495,492,711
495,493,494,493,537
495,493,496,493,387
495,493,495,494,263
494,493,495,495,222
494,494,494,493,231
493,494,495,494,274
493,494,493,491,361
493,494,493,492,488
494,494,494,492,619
494,494,494,491,766
494,494,493,493,811
494,494,493,493,779
495,493,495,493,639
496,493,495,494,467
495,493,495,494,326
494,493,495,493,240
493,494,496,492,220
492,494,495,493,245
493,494,494,492,306
495,494,495,491,416
495,494,494,493,547
494,494,493,492,687
494,494,494,492,801
495,494,495,493,800
494,493,493,492,730
495,493,495,493,560
496,494,495,494,406
495,493,495,493,272
493,493,494,494,225
492,493,495,493,228
493,493,495,493,262
494,494,495,493,347
494,494,494,492,472
493,494,494,491,600
494,494,494,492,748
494,494,494,492,812
495,494,495,492,786
493,493,496,493,663
494,493,496,493,487
495,493,495,494,346
493,493,495,494,246
493,494,494,492,220
494,493,494,492,241
493,494,494,493,295
492,494,495,492,398
492,494,493,493,525
494,494,494,491,666
494,494,494,491,791
494,494,494,492,804
495,494,495,493,749
495,493,495,495,585
496,493,496,493,425
495,493,496,494,288
494,493,495,492,227
493,493,495,493,226
493,493,494,493,256
493,494,493,491,335
494,494,494,492,454
494,494,494,492,584
493,494,494,491,733
494,494,494,491,812
495,494,494,492,791
493,494,494,493,687
495,493,496,494,509
494,493,495,494,361
494,493,496,494,253
494,493,494,494,219
493,493,494,493,237
493,494,494,492,284
494,494,494,492,382
494,494,494,493,509
494,494,494,491,642
494,494,493,491,782
495,494,494,493,807
495,494,495,492,765
495,493,495,493,608
495,493,496,494,443
494,493,495,493,304
493,493,495,492,235
494,493,494,493,224
494,493,494,492,250
493,494,494,492,322
493,494,495,492,438
493,494,495,491,566
494,494,494,491,712
496,494,495,492,808
494,494,494,492,795
494,494,495,493,706
495,493,496,494,533
495,493,494,494,384
494,493,495,493,261
493,494,494,493,223
494,493,494,493,232
494,494,495,492,274
493,494,495,493,367
493,493,494,491,492
493,494,495,491,624
494,494,492,492,770
494,494,494,492,810
494,494,495,493,776
495,493,494,493,634
495,493,495,493,464
495,493,495,493,322
494,493,495,493,239
493,493,494,492,220
493,493,495,493,246
493,493,495,492,309
492,494,494,492,419
493,494,494,493,550
493,494,493,492,693
495,494,493,491,803
495,494,495,492,799
495,494,494,492,728
494,493,495,492,555
495,493,494,494,401
495,493,495,494,271
495,493,495,493,224
494,493,495,493,230
493,494,494,492,266
494,494,495,492,352
494,494,494,492,475
493,494,494,492,607
494,494,494,491,753
494,494,494,492,812
495,494,495,493,784
494,493,495,493,658
495,493,497,492,482
494,494,495,494,341
494,493,495,494,245
492,494,495,492,219
494,493,494,493,242
494,493,494,491,297
494,494,494,493,402
494,494,493,491,529
494,494,494,491,669
494,494,495,492,793
494,494,494,492,802
494,494,495,492,742
494,493,495,494,577
494,494,496,494,418
494,494,496,494,282
495,493,495,493,227
494,494,494,494,226
493,493,494,493,258
494,494,495,493,338
494,494,494,491,458
493,494,493,492,588
493,494,494,491,737
493,494,493,491,812
494,494,495,493,790
494,494,495,494,682
496,493,495,493,506
495,493,496,494,359
495,493,495,492,251
495,494,495,492,220
495,494,495,493,238
493,493,494,493,287
493,494,494,492,387
493,494,493,492,514
493,494,494,492,648
493,494,494,491,784
494,494,495,493,806
494,494,496,493,759
494,493,495,492,603
495,493,497,494,438
494,493,495,494,299
495,493,496,492,231
494,493,495,494,223
495,493,495,493,252
494,494,494,492,325
493,494,495,491,440
494,494,494,492,569
494,494,494,491,717
494,494,494,492,809
494,494,494,493,794
495,494,494,494,700
495,493,495,494,523
495,494,495,493,377
493,493,495,492,259
495,493,494,492,221
494,493,494,493,234
493,493,494,493,277
494,494,494,493,371
493,494,495,491,497
495,494,495,492,628
494,494,494,492,773
494,494,495,493,810
495,493,495,492,774
495,493,495,494,627
495,493,495,494,459
494,493,496,494,320
494,493,495,494,237
494,494,494,493,221
493,493,494,493,247
494,494,494,493,313
493,494,494,492,426
495,494,493,492,554
494,494,494,491,697
494,494,494,492,805
494,494,494,492,798
494,494,496,493,723
494,494,497,494,551
494,493,495,493,398
496,493,496,493,267
494,493,495,495,224
494,493,495,492,229
494,494,496,492,268
494,494,494,492,354
494,494,494,491,478
494,494,494,492,611
494,494,493,491,759
495,494,494,492,811
496,494,495,492,781
496,494,495,493,653
495,493,494,495,477
495,493,495,494,335
495,493,495,494,244
493,494,496,493,220
494,493,494,494,244
495,494,494,493,300
494,494,493,493,404
494,494,494,492,536
494,494,493,492,677
494,494,494,492,796
495,494,494,493,802
496,494,495,492,740
495,493,496,494,572
495,494,496,493,414
494,493,495,493,279
494,494,495,492,226
494,493,494,492,227
495,493,494,493,259
494,494,494,492,340
495,494,493,492,465
494,494,493,492,594
494,494,493,492,739
494,494,494,492,812
496,494,494,492,789
495,493,495,492,675
495,493,495,494,500
494,493,495,493,355
495,493,495,493,249
495,494,494,493,219
494,494,495,492,238
493,494,494,493,288
495,494,495,492,390
494,494,495,493,516
494,494,494,492,652
493,494,494,491,786
494,494,496,493,806
495,494,494,492,752
495,493,495,494,597
495,494,495,494,433
494,494,495,494,295
495,494,494,492,231
494,493,494,493,224
493,494,495,493,253
492,494,495,493,328
495,494,494,492,443
494,494,494,492,573
494,494,494,491,723
494,494,494,492,811
496,494,494,493,794
496,494,496,492,699
495,494,496,494,521
494,493,496,493,373
495,493,495,494,257
494,493,495,493,220
494,493,495,492,234
494,494,495,492,279
494,494,494,492,373
493,494,493,493,501
494,494,495,491,632
494,494,494,492,776
494,494,495,493,809
495,494,495,492,772
494,493,494,492,622
495,494,496,496,452
494,493,496,494,313
494,493,495,492,236
493,493,495,492,222
494,494,494,492,249
494,494,495,492,315
494,494,494,492,426
493,494,494,492,558
496,494,494,491,701
494,494,494,492,806
495,494,495,493,798
495,494,495,492,718
494,493,495,494,542
495,493,496,494,393
494,493,494,494,266
496,493,493,492,224
494,493,494,492,231
494,494,494,492,270
494,494,495,493,357
494,494,494,492,481
494,494,494,492,613
494,494,493,492,762
495,494,493,493,812
494,494,494,493,781
494,493,494,494,646
495,493,496,494,471
494,494,496,494,331
495,493,495,493,242
493,494,494,492,220
494,493,495,493,244
494,493,493,492,303
494,494,494,492,409
494,494,494,493,539
494,494,494,492,681
494,494,495,492,801
494,494,494,493,801
495,494,495,493,740
495,494,495,492,601
495,493,496,493,452
495,493,494,493,312
494,493,495,493,210
493,494,494,493,214
493,494,493,493,250
494,494,495,493,359
494,494,494,494,499
493,494,494,491,628
492,494,494,492,733
493,494,494,492,793
494,494,494,492,771
496,494,495,493,672
496,494,496,493,523
496,494,495,494,380
496,493,495,494,254
496,493,494,492,197
494,493,495,492,221
494,494,494,492,283
493,494,494,493,415
493,494,495,492,550
495,494,493,491,674
495,494,494,492,762
495,494,494,492,785
495,494,494,493,737
495,493,495,493,604
494,493,496,494,458
494,493,495,493,319
495,493,494,493,212
494,493,494,493,203
493,494,494,492,235
494,494,493,492,335
494,494,494,494,473
493,494,494,492,605
494,494,494,492,718
494,494,493,491,788
495,494,494,492,774
494,494,494,493,686
495,493,494,494,541
495,493,495,493,397
495,494,495,493,267
495,493,495,495,195
493,494,493,492,214
494,494,494,493,268
494,494,493,493,394
494,494,494,491,531
495,494,494,492,659
494,494,494,492,755
495,494,496,493,787
495,494,495,493,751
495,493,495,493,626
495,494,495,493,475
494,493,495,494,336
495,493,495,493,223
495,494,495,493,199
494,493,495,493,230
494,494,493,492,317
493,494,494,492,456
495,494,494,492,588
495,494,494,491,707
495,494,495,493,784
495,494,494,493,775
494,494,496,492,705
495,493,495,493,559
496,493,495,493,416
494,493,496,493,280
495,493,494,493,196
494,493,495,493,210
493,494,495,491,257
494,494,495,492,375
493,493,495,490,514
494,494,494,491,643
495,494,494,492,740
494,494,495,492,788
494,494,494,493,759
496,494,495,493,643
494,493,495,493,495
494,493,495,493,355
495,493,495,493,236
493,493,495,494,197
493,493,495,493,224
493,494,496,493,299
493,494,495,491,437
494,494,494,491,570
496,494,494,492,691
495,494,495,491,777
494,494,495,492,779
494,493,494,492,717
495,493,495,494,578
496,493,495,493,434
496,493,495,494,297
494,493,495,493,200
493,493,494,492,205
494,494,494,492,245
494,494,493,494,356
494,494,494,492,497
494,494,495,492,627
493,494,494,492,732
495,494,494,493,789
495,494,494,491,766
494,493,495,494,664
495,493,495,493,514
494,493,496,494,373
494,493,495,494,249
494,493,496,493,194
493,494,495,493,220
493,494,495,492,284
492,494,494,492,418
493,494,494,492,552
495,494,494,493,677
495,494,494,491,764
495,494,494,493,782
495,494,495,494,733
495,493,496,493,599
496,493,496,493,452
494,493,496,493,313
494,493,494,493,209
493,493,495,493,203
494,493,495,493,236
495,494,494,491,339
494,494,494,493,479
494,494,493,492,609
494,494,494,491,720
494,494,494,492,786
494,494,494,494,770
495,493,495,492,681
495,493,495,493,533
495,493,496,493,391
494,493,496,493,263
495,493,497,493,194
494,493,495,492,216
493,493,495,492,270
494,494,494,492,398
495,494,493,491,535
495,494,494,491,662
493,494,494,493,756
494,494,494,492,786
495,494,495,493,747
494,493,495,493,620
495,493,496,493,472
495,493,496,494,331
494,494,496,493,221
493,493,495,494,200
493,494,495,493,232
494,494,494,492,321
494,494,494,492,459
494,494,494,491,590
494,494,494,492,708
495,494,494,492,785
495,494,494,492,776
495,494,495,493,699
495,493,496,494,555
495,493,495,493,412
496,493,496,493,277
495,493,495,494,196
494,494,494,492,211
493,494,494,492,259
493,494,494,493,379
494,494,494,491,516
494,494,494,492,645
494,494,494,492,744
494,494,495,492,788
495,494,494,493,758
496,493,495,493,639
495,493,496,494,489
495,493,495,494,347
494,493,496,493,230
495,493,495,492,198
494,494,494,491,226
494,494,494,492,303
494,494,494,493,441
494,494,495,493,574
494,494,494,492,694
495,494,494,492,780
494,494,494,492,778
496,494,494,493,716
495,493,495,494,573
495,494,494,494,428
495,493,496,494,292
495,494,496,493,199
493,494,494,493,208
493,493,494,493,248
494,494,494,493,361
494,494,494,492,500
493,494,494,492,628
494,494,494,492,731
494,494,494,493,790
494,494,494,493,765
495,493,495,493,659
495,493,494,493,508
495,493,495,493,368
495,494,495,493,244
493,493,494,494,194
494,494,495,492,221
494,494,494,492,289
495,494,494,493,422
493,494,493,491,554
494,494,494,493,680
495,494,494,493,769
494,494,495,493,781
495,494,494,493,730
495,494,495,493,595
495,493,495,493,447
494,493,495,493,308
493,493,496,494,202
494,494,496,493,203
494,494,494,493,238
494,494,494,493,343
494,494,494,492,482
493,494,493,491,613
494,494,493,493,722
494,494,494,492,789
494,494,494,492,769
495,494,494,492,679
495,494,495,494,528
495,494,495,494,386
494,493,495,494,258
495,493,495,494,195
494,494,494,493,217
494,494,494,492,275
494,494,494,491,404
495,494,494,491,528
494,494,494,492,627
494,494,493,492,765
495,494,494,492,785
496,494,497,491,752
494,494,496,493,590
494,493,496,494,404
496,493,495,493,285
494,494,495,493,229
495,494,494,493,223
492,494,494,492,247
493,494,496,492,322
494,494,494,491,422
493,494,495,491,541
494,494,493,490,718
494,494,494,492,810
494,494,494,492,794
495,494,495,493,702
494,494,495,494,521
494,494,495,494,348
495,493,496,493,266
494,494,496,493,226
493,494,494,493,238
494,494,495,492,280
493,494,494,493,369
494,494,494,493,470
495,494,493,491,630
494,494,493,492,780
494,494,494,493,815
495,494,495,493,800
494,494,495,494,642
495,493,495,493,464
494,494,495,494,328
494,493,495,493,236
493,493,494,493,218
494,494,493,492,246
493,494,493,494,310
495,494,494,493,429
493,494,494,492,566
494,494,494,492,694
494,494,494,493,803
495,494,494,492,796
496,494,495,493,719
496,493,496,494,546
495,494,495,493,399
494,493,496,493,268
493,493,495,492,223
494,493,494,493,229
493,494,494,492,267
495,494,494,493,353
494,494,494,491,482
493,494,494,492,613
494,494,493,492,754
494,494,494,493,810
495,494,495,492,781
494,493,496,493,660
495,493,495,493,504
496,494,495,494,364
496,493,495,494,243
495,493,495,493,209
494,493,494,493,235
494,494,494,492,303
494,494,494,492,438
493,494,494,493,569
493,494,493,492,690
494,494,494,492,778
494,494,493,492,786
496,494,494,493,731
496,494,495,493,594
495,493,495,493,448
496,494,495,493,305
495,493,495,493,203
494,494,495,492,207
493,494,494,492,241
493,494,495,493,333
494,494,494,491,463
495,494,493,492,589
494,494,494,492,727
493,494,493,491,800
495,494,494,492,777
495,493,495,494,667
496,494,497,494,488
494,493,496,493,343
495,494,495,492,245
495,494,495,493,215
494,494,495,492,233
493,494,495,493,286
493,494,495,494,382
494,494,493,492,504
493,494,494,492,654
494,494,493,492,785
494,494,495,492,805
495,494,494,493,755
495,494,495,493,598
495,493,496,494,425
494,494,495,494,289
493,494,496,492,232
493,493,494,494,225
496,494,495,494,253
495,494,495,494,328
495,494,495,492,446
494,494,494,492,578
493,494,494,492,721
495,494,494,492,810
494,494,495,492,793
494,494,496,492,696
496,494,496,493,534
496,494,496,493,387
495,493,496,494,256
495,493,496,493,216
494,494,494,492,233
494,494,494,492,278
494,494,495,492,388
493,494,493,492,517
494,494,493,492,643
494,494,494,492,770
494,494,493,491,803
496,494,494,494,766
496,494,496,493,626
496,493,494,494,468
494,494,495,494,325
495,494,496,492,227
495,493,495,493,214
494,494,494,492,242
494,494,494,493,310
494,494,494,492,433
494,494,494,492,560
494,494,494,491,694
494,494,494,491,801
494,494,494,492,792
494,494,496,493,715
495,493,496,493,541
495,493,496,493,390
495,493,496,493,263
493,493,495,496,220
493,493,495,493,229
493,494,495,492,269
494,494,494,494,355
493,494,495,494,479
494,494,494,492,612
494,494,494,491,761
495,494,494,492,811
494,494,496,493,781
495,493,494,493,646
496,493,495,494,471
494,493,494,494,330
494,493,495,493,242
494,494,495,493,220
494,494,494,492,244
494,493,494,493,303
494,494,495,492,412
494,494,493,493,541
495,494,496,493,681
494,494,495,492,798
494,494,495,492,801
495,494,494,493,737
495,494,496,493,567
496,494,495,493,410
496,493,495,494,276
494,494,496,493,224
494,493,495,493,227
492,494,495,493,260
495,494,494,492,344
493,494,495,492,468
493,494,494,492,597
494,494,494,491,744
494,494,494,492,811
495,494,495,493,786
495,494,496,493,669
495,494,496,494,495
495,493,495,494,352
495,493,495,494,249
494,494,495,493,219
494,493,494,493,239
494,494,494,493,291
494,494,494,493,396
494,494,494,492,523
495,494,495,493,656
495,494,494,491,788
495,494,495,492,803
495,494,495,493,751
496,493,495,493,592
496,493,495,492,429
494,493,496,493,291
495,493,497,491,229
494,494,496,493,225
495,494,494,493,255
493,494,495,492,331
493,494,493,493,445
493,494,494,491,576
493,494,493,492,729
494,494,493,493,812
494,494,495,494,791
494,494,497,492,694
497,494,498,492,510
494,493,495,496,363
494,493,497,492,257
493,494,494,494,220
492,494,493,493,236
494,494,493,493,281
493,494,495,494,374
495,494,494,493,495
493,494,495,491,638
495,494,495,491,782
495,494,495,494,808
493,494,496,494,769
496,493,493,492,616
495,494,495,492,435
496,493,496,494,300
496,494,494,494,241
493,494,494,494,225
494,494,495,491,252
493,494,493,493,322
495,494,492,491,424
495,494,495,493,552
496,494,495,493,712
493,494,494,492,809
493,494,495,491,799
493,494,494,491,715
497,494,496,493,537
496,493,494,493,380
493,494,494,495,269
494,494,495,493,227
494,493,495,493,236
492,494,495,493,276
494,494,494,492,364
495,494,493,492,482
494,494,494,492,615
494,494,494,491,768
494,494,494,492,814
495,494,495,493,781
495,494,495,493,643
495,494,497,493,468
495,493,495,494,327
494,493,495,494,244
493,494,494,492,221
495,494,494,493,247
493,494,493,493,307
495,494,493,492,418
495,494,493,492,546
494,494,495,492,686
494,494,494,492,803
495,494,495,493,801
495,494,495,493,733
496,494,496,495,562
495,493,496,494,405
494,494,497,494,272
495,493,495,493,226
494,493,495,493,229
495,493,495,493,263
494,494,494,494,346
494,494,495,492,468
494,494,494,492,600
494,494,493,492,752
494,494,495,492,814
495,494,495,492,787
495,493,495,493,664
495,494,496,494,486
495,493,495,493,343
495,493,495,494,247
493,493,495,492,221
495,493,494,493,242
495,493,495,494,296
494,494,494,491,396
494,494,495,493,524
494,494,493,491,664
493,494,493,492,791
494,494,495,493,805
495,494,495,493,747
494,494,495,493,584
496,494,495,493,421
494,494,496,493,286
492,494,497,493,229
494,494,496,492,225
494,494,496,492,255
495,494,493,491,333
495,494,492,492,446
494,494,492,492,576
495,494,495,491,735
493,494,495,491,813
494,494,493,494,793
495,494,495,494,688
494,494,495,492,505
495,493,494,492,356
496,493,495,492,258
495,493,496,495,221
492,494,494,492,240
493,494,494,494,287
495,494,494,490,379
491,494,495,491,496
493,494,496,491,647
495,494,495,493,786
493,494,496,491,812
493,494,493,490,767
496,494,494,491,613
494,494,496,494,431
494,493,494,493,297
495,494,495,495,238
492,494,495,494,228
495,494,493,491,255
492,494,494,494,323
495,494,493,494,429
494,494,495,491,560
493,494,492,490,717
496,494,492,491,811
495,494,495,490,798
495,494,494,492,711
495,493,496,494,531
495,493,496,493,378
494,494,495,493,266
495,493,495,493,226
495,494,494,493,237
493,494,493,493,278
494,494,495,493,367
493,494,495,493,492
493,494,495,492,623
495,494,493,492,771
495,494,495,492,813
494,494,493,493,779
495,494,495,493,635
496,493,497,494,466
495,494,495,494,326
494,493,495,494,240
495,494,497,493,222
494,493,494,492,247
494,494,494,493,311
494,494,494,492,424
494,494,494,491,553
495,494,494,491,689
495,494,493,492,804
495,494,495,492,800
494,494,495,492,728
496,493,497,494,559
495,494,496,494,404
495,493,496,493,270
494,493,495,494,223
493,493,494,491,228
494,493,494,494,265
495,494,494,491,350
495,494,494,492,471
495,494,494,492,603
494,494,495,491,754
495,494,495,491,811
493,494,496,493,783
495,493,494,494,659
496,493,496,493,478
495,493,495,494,335
495,493,494,493,246
495,494,494,492,221
494,494,494,492,243
494,494,494,492,297
494,494,493,493,397
495,494,494,491,524
493,494,494,493,673
494,494,494,492,793
495,494,495,492,804
495,494,494,493,746
494,493,496,493,579
496,493,495,493,418
495,493,496,493,282
495,493,495,492,229
494,494,495,492,227
494,494,493,491,259
494,494,494,493,338
494,494,495,492,459
494,494,494,492,590
495,494,493,493,736
494,494,495,492,811
495,494,494,492,790
495,494,495,492,680
496,493,494,493,509
495,493,495,493,363
494,494,495,494,252
494,494,496,492,217
493,494,494,492,237
494,494,494,492,284
493,494,495,493,386
495,494,495,492,513
494,494,494,491,644
495,494,494,491,783
494,494,495,492,806
496,494,495,493,758
495,494,496,492,604
494,493,495,494,437
494,493,496,493,299
495,493,496,494,235
495,493,494,492,224
494,493,495,492,251
495,494,494,493,325
494,494,494,491,434
493,494,494,492,565
493,494,494,492,719
494,494,494,492,810
495,494,495,494,796
496,494,494,493,705
495,493,496,495,524
496,493,496,494,373
494,493,495,493,261
494,494,494,492,223
493,494,494,492,235
495,493,493,492,277
495,494,494,493,368
494,494,494,492,491
494,494,494,492,626
495,494,493,491,775
495,494,495,493,811
495,494,495,493,776
495,494,496,493,629
496,493,496,494,458
495,493,496,493,318
494,493,496,491,241
494,494,494,493,222
494,494,495,493,248
494,494,493,493,312
494,494,494,493,426
493,494,494,492,554
495,494,495,491,697
494,494,494,492,805
495,494,495,493,798
495,494,495,493,724
495,493,495,494,549
495,493,495,493,397
495,493,495,494,269
494,494,496,495,224
495,494,495,494,232
493,494,495,492,270
493,494,493,491,354
494,494,493,494,474
494,494,493,492,605
494,494,495,493,757
494,494,495,494,813
494,494,495,493,783
494,494,494,491,653
497,494,493,491,469
495,493,494,494,328
496,494,497,495,246
496,493,493,494,222
495,494,496,493,244
495,494,495,492,302
494,494,495,491,401
493,494,495,491,523
494,494,495,491,679
494,494,494,491,800
495,494,494,492,805
494,494,495,493,742
496,493,495,495,575
494,493,496,494,409
494,493,496,494,280
494,493,495,492,228
494,493,495,492,229
494,494,495,493,261
493,494,495,493,341
495,494,494,492,464
495,494,494,492,597
494,494,494,491,741
494,494,495,493,811
495,494,495,492,789
495,494,495,493,677
496,493,496,492,511
495,493,496,493,366
494,493,495,493,247
494,493,495,493,216
494,493,495,493,235
495,493,493,492,287
495,494,495,493,398
494,494,495,492,528
495,494,494,492,654
495,494,494,492,781
495,494,495,492,803
495,494,494,493,752
494,493,496,493,597
495,493,496,493,437
493,493,496,494,297
495,493,495,493,230
493,493,495,493,222
494,494,494,492,249
494,494,494,493,326
494,494,494,493,439
494,494,495,493,570
494,494,494,493,722
495,494,494,493,810
494,494,494,493,792
496,493,494,493,698
495,493,496,494,514
495,493,495,493,367
495,493,495,493,259
495,493,495,492,223
494,494,495,493,235
495,494,494,492,280
494,494,495,493,371
494,494,495,492,493
493,494,494,492,631
494,494,494,492,779
496,494,493,493,811
495,494,495,492,773
495,494,495,494,624
495,493,495,493,454
496,493,495,493,314
494,493,494,493,239
494,493,494,493,223
493,494,494,492,248
492,494,495,492,316
494,494,494,492,433
495,494,494,492,563
494,494,494,493,702
495,494,493,491,804
495,494,494,492,797
496,494,494,493,719
495,493,495,492,551
494,493,497,494,398
495,493,496,493,265
495,493,494,492,221
493,493,496,494,229
494,494,493,493,268
495,494,493,493,357
493,494,495,492,483
495,494,494,493,613
494,494,493,491,759
495,494,493,494,810
496,494,494,495,781
497,493,494,493,644
494,494,496,493,459
495,493,496,495,316
494,493,494,492,247
495,493,494,493,222
494,494,493,492,248
493,494,496,493,304
494,494,494,494,402
495,494,494,494,511
494,494,494,491,685
493,494,495,493,805
494,494,494,494,805
494,494,496,492,741
494,493,494,494,571
496,493,494,492,384
494,494,496,491,282
494,494,496,491,233
494,494,497,491,232
495,494,496,495,267
491,494,496,494,348
491,494,496,492,450
493,494,495,489,587
493,494,493,489,749
494,494,495,493,817
497,494,494,494,793
496,494,493,495,676
495,494,495,493,493
494,493,496,495,350
495,493,496,495,254
496,494,494,495,223
495,494,497,495,243
495,493,496,493,295
492,494,493,492,393
494,494,492,493,521
494,494,495,493,662
495,494,494,491,790
494,494,493,493,806
494,494,493,492,754
496,493,495,493,592
494,493,494,494,426
494,493,494,493,290
494,493,496,493,231
495,493,495,493,226
494,494,495,494,256
494,494,496,493,332
494,494,495,492,441
495,494,493,491,574
494,494,493,493,731
493,494,493,492,812
494,494,494,493,793
495,494,494,493,694
496,493,495,495,508
495,493,496,494,360
496,493,497,492,259
495,494,496,495,221
493,494,496,491,239
492,493,494,492,282
494,494,494,493,377
492,494,494,491,496
496,494,495,490,639
493,494,493,490,782
496,494,496,494,811
494,494,495,493,772
496,494,496,492,617
496,493,496,493,440
495,493,494,494,303
495,493,495,495,239
495,494,494,493,226
496,494,496,493,252
496,494,494,491,321
494,494,496,492,425
493,494,495,491,555
494,494,494,491,712
494,494,494,492,812
495,494,494,493,798
494,494,495,493,716
495,493,496,493,537
495,493,495,494,384
495,493,495,494,267
495,493,494,492,226
496,493,494,493,235
494,494,495,493,275
494,494,494,492,361
494,494,494,491,486
494,494,494,492,619
494,494,493,493,767
495,494,495,492,813
497,494,494,493,780
496,493,494,492,642
496,493,495,493,472
494,493,494,494,328
494,493,495,493,241
494,493,494,493,219
493,494,495,493,244
494,494,495,492,305
493,494,494,492,413
494,494,492,492,545
494,494,493,492,687
495,494,493,492,801
495,494,494,492,801
496,494,495,493,733
496,493,495,493,560
495,493,495,493,402
495,493,495,493,273
494,493,495,492,225
493,493,496,492,229
493,494,494,492,263
493,494,494,493,346
493,494,494,493,463
495,494,495,491,595
495,494,493,490,750
494,494,494,491,815
494,494,494,492,787
495,493,495,492,666
497,493,495,493,483
497,493,496,494,340
494,493,496,493,250
494,493,495,493,223
494,494,494,492,242
494,494,494,493,295
494,494,494,493,394
494,494,494,493,520
494,494,495,491,666
493,494,493,492,792
494,494,494,492,807
494,494,495,493,749
494,493,496,493,587
495,493,496,494,426
495,493,495,493,288
494,493,494,493,231
494,493,495,492,227
493,494,494,493,257
493,494,494,492,335
494,494,494,492,458
493,494,494,491,587
493,494,493,491,733
494,494,494,491,811
495,494,494,492,790
494,494,495,494,687
495,493,495,493,514
494,493,495,493,366
495,493,495,493,253
495,493,494,494,218
493,494,495,492,237
493,494,494,492,283
493,494,494,493,379
495,494,494,492,508
494,494,494,491,642
494,494,493,491,781
495,494,493,492,807
495,493,493,492,766
495,493,494,494,612
495,493,496,494,440
495,493,495,494,303
495,493,494,492,237
495,493,494,492,224
495,494,494,494,251
493,494,494,494,321
493,494,494,492,431
492,494,493,491,562
492,494,493,491,712
493,494,494,491,810
496,494,494,492,798
496,494,495,493,709
496,493,495,493,530
495,493,495,493,383
495,493,496,492,265
495,493,495,494,223
493,493,495,493,234
495,494,496,494,275
495,494,493,492,364
494,494,495,493,488
494,494,492,493,620
495,494,494,493,769
495,494,494,493,812
496,494,495,492,779
496,493,496,493,636
496,493,495,492,459
496,493,496,493,320
494,493,494,492,240
495,493,495,494,223
495,494,495,493,248
493,494,494,494,311
493,494,493,490,412
493,494,495,491,544
493,494,494,493,696
495,494,493,492,807
494,494,495,491,802
494,494,495,494,729
495,493,495,495,555
493,493,495,492,395
495,494,494,494,272
495,493,496,494,227
495,494,494,491,232
493,494,496,491,266
495,494,496,491,351
494,494,493,492,468
494,494,494,491,602
494,494,494,492,755
496,494,493,493,816
495,494,494,493,787
494,493,495,493,661
494,493,496,493,479
495,493,494,494,338
496,493,495,493,250
495,493,495,492,222
494,493,495,492,244
494,493,494,492,298
494,494,494,494,400
493,494,493,493,529
493,494,494,493,669
495,494,494,492,793
495,494,494,492,803
495,494,495,493,746
495,493,495,494,580
495,493,496,494,422
495,493,495,494,286
494,493,494,492,229
493,494,494,493,228
493,494,494,493,258
494,494,494,492,339
493,494,494,492,457
494,494,494,491,588
494,494,493,491,736
493,494,494,492,814
495,494,495,493,791
494,493,495,494,683
496,493,496,493,505
495,493,495,493,358
495,493,495,493,252
494,493,494,493,220
494,493,493,493,237
493,494,495,492,284
493,494,494,493,383
492,494,493,492,511
494,494,494,491,647
495,494,492,492,785
495,494,495,492,806
496,494,494,493,761
495,494,496,493,606
494,493,494,494,438
495,493,495,494,300
494,493,494,493,234
494,494,494,493,224
494,494,495,493,252
494,494,494,492,324
494,494,494,492,438
493,494,494,492,570
493,494,494,491,717
495,494,493,491,809
494,494,495,493,795
495,494,495,493,704
495,493,494,493,526
495,493,495,493,378
495,493,495,494,260
494,493,496,491,222
495,494,494,492,233
494,494,494,493,277
494,494,494,491,370
494,494,494,493,496
493,494,493,492,627
493,494,494,492,772
494,494,495,492,810
495,494,495,493,776
494,494,495,492,630
495,493,495,493,461
496,493,495,493,321
494,493,494,492,240
493,494,495,493,221
494,494,494,492,247
494,494,494,492,312
494,494,494,493,421
494,494,493,491,551
494,494,493,493,697
494,494,495,491,805
493,494,495,493,798
494,494,496,491,725
494,493,495,493,548
494,493,496,493,397
494,493,496,494,270
495,493,496,493,225
495,493,494,492,230
493,494,495,493,268
493,494,495,492,354
493,494,495,492,477
494,494,495,492,608
494,494,494,492,758
495,494,494,491,813
495,494,494,492,783
494,494,494,493,656
495,494,495,493,479
495,493,495,493,338
495,493,496,493,243
494,493,494,493,220
494,494,494,493,243
494,493,494,493,300
493,494,494,492,408
494,494,494,493,536
493,494,494,492,675
494,494,494,492,797
494,494,494,492,803
495,494,495,493,743
494,493,495,493,575
495,493,495,493,417
494,493,495,493,280
495,493,494,494,225
495,493,494,492,226
494,494,494,493,257
493,494,494,492,340
495,494,493,492,461
493,494,493,492,592
494,494,493,492,739
494,494,493,491,813
495,494,493,492,790
495,493,494,493,676
495,493,495,494,498
495,493,495,494,353
494,493,496,492,251
493,493,495,493,219
493,493,495,493,237
494,494,493,493,288
493,494,493,493,386
494,494,494,494,514
493,494,493,492,651
493,494,493,492,786
494,494,493,492,807
495,494,494,492,755
495,493,495,493,599
496,493,495,493,435
494,493,494,493,298
494,493,495,493,233
492,493,494,493,224
493,494,495,491,253
494,494,494,493,327
493,494,494,493,446
494,494,493,492,576
494,494,493,492,721
495,494,493,493,810
495,494,494,492,794
494,494,495,492,698
496,493,495,494,525
495,493,496,493,375
494,493,495,493,256
493,493,494,493,219
493,494,495,493,233
494,494,494,492,277
494,494,494,491,373
494,494,493,492,498
494,494,493,492,630
495,494,493,492,775
495,494,493,491,808
495,494,494,492,772
494,493,495,493,623
495,493,495,493,453
493,493,495,494,313
495,493,494,492,238
495,494,495,492,221
493,494,494,493,248
494,494,494,492,314
493,494,493,492,427
493,494,493,493,557
494,494,493,490,699
494,494,494,491,807
495,494,494,493,798
494,494,494,493,719
496,493,496,494,543
495,493,495,494,391
495,493,495,493,268
494,493,495,493,224
494,493,494,493,232
493,494,493,492,269
493,494,493,493,357
494,494,494,492,482
493,494,492,492,613
494,494,493,492,760
493,494,494,494,812
494,494,494,493,783
496,494,495,493,648
495,493,495,493,476
494,493,496,493,334
494,493,496,494,241
494,494,494,493,220
494,494,493,491,243
494,494,494,492,302
494,494,494,493,411
492,494,494,491,540
494,494,493,491,682
495,494,492,492,800
495,494,493,492,801
495,494,494,494,736
495,493,495,493,570
495,493,497,493,413
494,493,496,493,276
494,493,494,493,224
495,493,494,492,226
494,494,494,493,259
494,494,495,493,342
494,494,494,491,464
493,494,494,491,595
494,494,493,492,745
494,494,494,492,812
494,494,494,492,786
495,494,494,493,672
495,493,495,493,494
494,493,494,493,350
494,493,495,493,248
494,493,494,493,218
494,494,494,492,239
494,494,495,493,290
493,494,494,492,393
494,494,493,492,521
494,494,494,492,656
494,494,492,491,787
495,494,494,492,805
495,494,494,492,752
495,493,494,493,592
495,493,494,493,430
495,493,495,494,293
494,493,494,492,228
493,494,494,492,224
494,494,494,493,253
495,494,494,494,330
493,494,493,492,449
492,494,494,492,578
492,494,493,493,725
494,494,494,491,811
495,494,495,492,792
496,494,494,493,692
497,493,495,493,518
496,493,494,493,371
495,493,495,494,255
494,493,494,492,219
493,493,494,492,235
494,494,495,494,281
494,494,495,493,375
493,494,493,492,502
493,494,493,492,634
495,494,493,491,780
495,494,494,492,809
496,494,495,493,769
495,493,494,493,619
495,493,495,492,449
495,493,495,493,309
495,493,494,494,236
494,494,494,493,222
494,494,494,492,249
495,494,495,492,316
494,494,493,492,431
494,494,493,491,560
493,494,494,491,708
493,494,493,491,808
494,494,494,493,795
494,494,495,493,714
494,493,494,494,541
496,493,494,493,390
494,493,495,494,263
494,493,494,493,222
494,493,494,492,231
494,494,494,492,271
495,494,493,491,362
494,494,494,492,489
494,494,493,493,619
494,494,493,491,762
494,494,494,493,811
495,494,494,492,779
496,494,495,492,640
495,493,496,492,470
494,493,495,493,329
495,493,495,493,239
494,493,494,493,219
493,493,495,493,243
495,494,494,493,304
493,494,493,493,413
494,494,494,491,544
493,494,493,492,684
495,494,493,492,800
495,494,494,492,801
494,494,494,492,732
496,493,496,494,563
495,493,495,493,408
494,493,495,493,274
493,494,494,493,223
494,493,494,493,228
495,494,494,492,261
494,494,495,494,344
494,494,493,492,468
495,494,494,492,600
495,494,494,491,747
494,494,494,492,812
495,494,494,493,785
495,494,495,493,666
495,493,495,494,492
495,494,495,494,347
495,493,495,493,247
495,493,495,492,219
493,494,494,493,238
492,494,495,492,295
493,494,494,492,428
494,494,494,491,561
494,494,494,492,686
495,494,495,492,776
494,494,493,491,793
495,494,494,492,743
494,494,495,493,610
494,493,495,494,458
494,493,495,493,320
495,493,494,492,215
494,493,496,492,206
494,493,494,493,240
495,494,493,493,340
493,494,493,492,480
494,494,495,491,611
494,494,494,492,722
495,494,494,492,790
494,494,496,493,773
495,494,494,492,684
495,493,495,493,536
496,494,495,494,393
494,493,494,492,266
494,493,495,492,195
494,493,494,494,217
495,494,495,492,271
494,494,494,491,398
494,494,494,491,534
494,494,493,492,662
494,494,494,492,756
495,494,495,492,787
495,494,494,492,750
495,493,494,494,622
494,493,494,493,473
495,493,495,493,334
494,493,495,493,221
493,494,494,493,199
495,494,495,492,231
494,494,494,492,319
494,494,493,492,459
494,494,493,492,590
494,494,493,492,708
494,494,494,492,785
495,494,496,492,777
495,494,494,492,701
495,493,495,493,556
496,493,494,494,413
495,493,494,493,278
494,493,494,494,196
495,494,493,493,211
494,494,494,493,259
494,494,493,492,377
494,494,493,492,518
494,494,493,492,646
494,494,494,492,744
494,494,494,493,789
495,494,494,492,759
495,494,494,492,642
495,493,494,494,490
495,493,495,493,351
494,493,494,494,232
493,493,493,494,197
494,494,494,492,225
494,494,493,492,303
493,494,493,492,441
493,494,494,492,575
493,494,493,492,695
494,494,494,492,777
494,494,494,493,778
496,494,495,493,717
496,493,494,493,575
495,493,495,493,432
495,493,495,493,294
494,493,495,493,199
493,493,493,492,207
494,494,494,493,246
494,494,494,492,360
494,494,493,492,500
494,494,494,492,629
494,494,493,492,733
494,494,494,491,791
494,494,494,493,767
494,493,494,493,660
495,493,495,494,511
495,493,495,494,372
494,493,494,494,246
494,493,494,493,196
494,494,494,492,219
493,494,494,492,288
492,494,494,492,421
493,494,494,492,555
495,494,493,491,680
494,494,494,492,768
495,494,494,492,783
495,494,494,492,730
495,494,495,493,596
495,493,494,493,450
495,493,495,493,311
493,493,494,492,206
495,493,494,492,203
494,494,494,493,237
494,494,495,492,340
493,494,494,492,481
493,494,495,492,612
494,494,494,492,724
495,494,493,491,789
495,494,494,492,771
494,494,495,493,679
495,494,495,494,530
495,493,495,493,387
494,493,494,494,260
494,493,494,492,195
494,493,494,493,216
494,494,494,492,272
494,494,493,492,403
493,494,494,492,539
493,494,494,492,666
494,494,494,491,757
495,494,495,493,785
494,494,496,492,745
494,493,495,492,616
494,494,496,492,467
494,493,495,493,329
495,493,495,493,220
494,493,494,493,199
494,493,494,493,231
494,494,495,493,324
494,494,493,493,463
494,494,492,491,593
494,494,493,492,710
494,494,494,494,784
492,494,495,494,776
494,494,496,492,695
495,493,494,492,550
494,493,496,493,409
494,493,494,494,276
495,493,496,494,196
495,493,495,493,212
494,493,494,492,261
494,494,494,493,383
493,494,493,493,519
494,494,494,491,648
494,494,494,492,746
495,494,495,491,788
494,494,493,493,756
494,493,495,493,637
495,493,494,493,489
495,493,494,493,347
494,493,497,494,230
494,493,495,494,196
493,494,494,493,225
493,494,494,492,305
494,494,494,492,444
493,494,493,492,576
494,494,493,492,696
494,494,493,493,781
494,494,494,493,777
494,494,494,492,713
495,493,495,493,570
495,493,495,493,425
494,493,495,494,288
494,493,495,493,199
493,493,494,492,208
493,494,495,492,248
492,494,494,493,363
494,494,494,493,503
494,494,494,493,632
495,494,494,491,734
494,494,494,491,791
495,494,494,492,765
496,493,494,492,656
496,494,496,493,504
495,493,496,494,365
494,493,496,493,242
495,493,494,492,196
494,494,494,493,222
494,494,495,492,292
495,494,494,492,425
494,494,493,491,558
494,494,493,492,682
494,494,493,491,770
495,494,496,492,780
494,494,495,493,728
495,494,495,493,592
495,494,496,493,445
494,493,495,492,306
494,493,497,494,204
495,493,494,493,204
493,494,495,493,239
494,494,495,492,346
494,494,494,493,484
493,494,493,492,613
494,494,494,492,724
493,494,493,492,793
495,494,495,492,770
495,493,495,492,676
496,493,496,493,527
494,494,495,493,383
494,493,495,493,255
493,493,496,491,194
492,494,495,492,217
492,494,493,492,275
493,494,494,492,405
493,494,493,492,540
493,494,494,492,668
495,494,493,492,761
494,494,494,491,784
495,494,494,492,742
495,494,495,494,614
495,494,494,493,462
