Sensor0,Sensor1,Sensor2,Sensor3,Sensor4

493,496,492,367,494
494,493,495,251,493
494,495,492,206,492
494,494,492,215,494
494,492,494,261,495
494,495,491,356,492
494,492,493,477,492
494,491,491,629,492
494,494,493,793,492
494,495,490,838,493
494,493,492,803,494
494,494,492,652,493
493,492,492,451,496
493,494,493,301,496
494,496,491,226,495
493,495,493,203,494
494,494,493,231,493
493,495,494,296,492
494,494,492,404,493
494,491,490,542,495
494,491,490,706,491
494,491,493,832,496
494,496,493,827,493
494,493,492,755,495
494,493,493,566,496
493,493,494,389,495
494,496,493,259,494
494,494,492,207,493
494,495,494,211,495
494,494,492,250,494
494,493,492,340,494
494,493,492,465,493
494,493,491,608,493
494,492,491,773,493
494,492,492,840,493
494,492,493,810,495
494,493,494,678,495
494,495,493,486,495
493,494,493,332,495
493,493,493,228,493
494,494,493,200,494
493,494,493,225,494
493,493,493,282,494
494,493,492,393,493
494,493,492,531,493
494,493,492,679,493
494,493,492,815,493
494,493,492,828,495
494,494,493,767,495
493,494,493,592,494
494,494,493,417,493
493,495,494,268,494
494,495,493,207,493
494,495,492,206,493
494,494,492,239,494
494,493,492,324,495
494,492,491,449,494
494,492,492,589,494
494,492,492,754,494
494,492,492,839,495
494,494,492,815,497
494,494,492,703,496
493,494,494,505,494
494,493,495,347,496
493,496,496,238,493
494,493,494,200,495
494,493,492,219,494
494,494,493,270,493
494,492,492,371,493
494,493,492,504,493
494,492,492,658,494
494,492,491,809,494
494,493,492,835,494
494,494,494,788,496
494,495,493,621,496
494,495,493,431,495
493,494,494,284,495
493,495,493,217,493
493,493,493,204,494
494,494,492,234,494
493,494,492,312,494
494,493,493,429,494
494,493,492,570,494
494,492,491,731,494
494,493,492,836,495
494,493,492,821,496
494,493,493,727,496
493,494,493,536,495
493,494,493,376,496
493,494,494,244,494
493,493,494,202,493
493,493,492,213,493
493,494,492,260,493
494,493,493,359,493
494,492,492,497,494
494,493,491,638,493
494,491,493,791,494
494,493,492,835,495
494,494,492,798,494
494,493,494,647,495
494,495,495,466,494
493,495,493,312,495
493,495,494,217,494
494,494,493,197,493
493,492,494,227,494
494,493,493,294,493
494,492,491,415,493
494,493,492,554,494
494,493,492,708,494
494,491,491,829,494
494,494,492,822,494
494,493,491,747,495
493,494,493,559,494
493,494,494,391,495
494,495,494,251,494
493,494,495,203,494
493,493,493,208,494
493,494,492,247,493
493,493,493,341,493
494,493,492,474,494
494,493,492,613,493
494,492,491,775,493
494,493,491,839,495
494,494,493,807,495
494,495,493,673,495
493,494,493,481,495
493,494,493,330,495
494,494,492,226,494
494,493,493,197,494
494,495,492,222,494
494,494,492,283,493
494,493,492,398,493
494,493,493,534,493
494,493,492,681,493
494,493,491,816,495
494,494,492,827,494
494,493,494,765,495
494,494,495,588,495
493,494,494,415,494
493,495,493,268,493
494,493,494,205,494
494,493,492,204,492
494,493,493,238,495
494,493,492,324,495
494,493,492,455,495
494,493,493,596,494
494,492,491,754,493
494,493,492,838,495
494,492,493,812,495
494,494,492,698,496
494,495,494,504,495
493,494,493,346,495
493,495,492,232,494
494,494,493,197,494
494,493,493,218,495
494,493,491,268,495
494,493,493,376,493
494,493,492,515,495
494,493,491,659,495
494,492,490,809,495
494,492,491,832,494
494,494,494,783,494
494,494,492,615,494
493,494,494,432,494
493,494,494,284,495
494,494,493,214,494
493,493,492,204,495
493,493,492,235,494
493,493,492,313,493
493,492,492,437,494
494,493,492,577,494
494,492,491,734,495
494,492,492,835,494
494,492,492,819,496
494,493,493,722,495
494,494,493,530,495
494,494,494,370,494
493,495,494,241,495
493,494,492,200,493
494,494,493,213,493
494,493,493,261,494
494,492,492,362,493
494,494,492,498,494
494,493,492,637,494
494,492,492,794,494
494,493,491,835,496
493,492,494,796,496
494,495,493,641,495
493,494,494,459,495
494,494,493,308,494
493,494,493,217,494
493,494,492,199,495
493,494,493,228,493
494,493,492,298,493
494,493,492,418,494
494,492,492,559,493
494,492,492,712,494
494,492,492,832,495
494,494,493,820,494
494,494,492,744,494
493,495,494,557,495
494,494,493,390,495
493,494,493,249,494
493,494,494,200,494
493,493,493,209,495
494,494,493,250,493
494,493,493,342,493
494,494,491,479,494
494,493,492,619,494
494,493,492,776,495
494,493,492,837,494
494,493,492,805,495
494,493,494,667,494
493,494,494,479,494
493,495,494,324,494
493,494,493,222,495
493,494,492,198,495
493,494,493,222,494
494,493,492,284,493
494,493,492,401,494
494,493,491,539,494
494,492,491,686,493
494,492,490,820,495
494,494,491,826,495
494,492,492,762,495
493,495,493,582,494
494,494,494,409,494
494,494,493,263,494
494,495,494,206,495
493,494,494,205,494
494,494,493,240,494
494,494,493,329,494
494,494,492,459,494
494,493,492,599,494
494,492,491,758,495
494,493,492,837,495
494,493,492,811,495
494,495,493,692,496
493,494,493,502,495
493,494,494,345,495
493,494,493,231,494
494,494,493,197,495
494,493,492,217,495
493,493,492,273,494
494,493,492,381,493
494,493,492,517,494
494,492,492,661,494
494,493,490,810,493
494,493,492,831,495
494,493,492,780,495
494,495,493,609,496
494,494,493,431,494
493,494,493,283,495
493,494,494,211,494
494,494,492,204,493
494,493,493,234,494
494,493,492,314,495
494,493,493,441,493
494,493,493,580,494
494,493,493,739,494
494,493,492,836,494
494,493,492,816,494
494,494,493,717,496
494,495,494,526,496
494,495,494,366,495
493,494,493,238,494
494,494,494,199,494
493,494,493,214,494
494,493,492,262,493
494,493,492,365,493
494,494,492,502,493
494,492,491,641,494
494,492,492,797,494
494,492,492,833,494
494,493,493,795,495
494,494,493,636,496
494,495,493,453,495
493,495,493,303,495
493,495,493,216,494
493,494,493,200,493
494,493,493,229,494
494,493,492,300,493
494,492,492,422,493
494,493,492,563,492
494,492,492,714,495
494,492,491,832,495
494,493,492,822,495
494,494,492,740,495
494,494,493,551,494
493,494,493,387,495
493,494,494,249,494
494,494,494,201,494
494,494,493,210,493
494,494,493,252,494
493,494,493,345,494
494,492,492,483,493
494,493,492,623,493
494,490,490,779,494
494,493,493,837,495
494,494,492,805,494
494,495,492,664,496
494,495,493,476,495
493,494,493,322,494
494,493,494,222,492
494,494,493,198,494
494,493,492,224,495
494,493,493,287,494
494,493,492,405,493
494,493,492,543,494
494,493,492,693,495
494,493,492,823,494
494,493,493,825,495
494,494,492,757,496
494,495,493,577,495
494,494,493,407,495
493,493,493,260,495
493,495,493,204,493
493,494,493,206,494
494,494,492,241,493
494,494,492,331,493
494,492,492,462,493
494,493,492,602,493
494,491,491,763,493
494,493,492,837,495
494,494,492,811,495
494,494,493,688,495
494,495,494,493,495
493,494,493,340,495
493,495,493,229,494
494,494,492,196,494
493,494,493,219,493
494,494,493,275,494
494,492,492,384,494
494,493,492,522,494
494,492,491,666,495
494,493,491,810,494
494,493,492,829,494
494,495,492,775,496
494,494,493,603,495
494,494,493,427,495
493,495,493,281,494
493,494,494,210,493
494,495,494,203,493
494,494,494,233,492
494,493,492,317,493
493,493,492,446,494
494,492,493,585,493
494,493,491,743,494
494,493,491,834,495
494,494,493,815,494
494,493,493,712,494
494,493,493,522,494
493,494,494,361,494
493,495,493,235,494
494,494,493,198,494
494,494,493,214,494
493,493,492,263,493
494,493,493,366,493
494,493,492,504,493
494,492,493,644,494
494,492,491,802,493
494,493,492,835,494
494,493,492,794,496
494,494,493,632,495
493,495,494,449,495
493,493,493,298,494
494,495,493,216,494
494,495,494,200,494
494,494,493,230,492
494,493,492,303,493
494,492,492,426,494
494,493,492,566,493
494,493,491,720,493
494,493,491,832,495
494,494,492,820,494
494,495,491,734,496
494,496,494,545,495
494,494,494,380,494
494,494,494,247,494
493,495,494,203,494
494,493,493,210,494
494,493,492,255,492
494,494,493,349,493
494,494,492,483,494
494,492,491,623,495
494,491,492,782,494
494,493,492,838,495
494,494,492,805,496
494,494,493,657,496
493,494,494,467,495
493,495,493,317,494
493,495,493,223,494
493,495,493,199,494
494,494,492,227,493
494,493,493,290,493
494,493,492,405,493
494,492,491,544,494
494,493,491,697,493
494,494,491,827,494
494,493,492,826,495
493,495,492,755,495
493,495,493,574,495
493,494,493,404,494
493,495,494,259,495
493,495,493,201,494
494,495,493,206,494
494,495,492,244,493
494,494,491,334,493
494,493,492,470,493
494,493,492,608,494
494,492,492,766,494
494,493,492,838,494
494,494,492,808,494
494,494,492,683,496
494,495,494,493,495
493,495,493,337,495
493,494,493,226,494
494,494,493,196,493
494,493,493,220,494
494,494,492,275,493
494,493,492,387,493
494,493,492,524,493
494,493,491,672,493
494,492,491,811,493
494,494,492,829,495
494,492,491,770,495
494,494,494,598,495
493,494,495,419,494
493,495,495,273,495
493,494,493,211,495
494,493,493,205,493
494,493,493,237,492
494,493,492,321,493
494,494,492,446,492
494,493,492,586,493
494,493,492,747,495
494,493,491,838,495
494,494,492,815,496
494,493,492,708,495
493,495,493,516,495
494,495,494,358,494
493,493,494,236,494
494,494,494,197,493
494,494,493,215,494
494,494,492,266,494
494,493,492,371,493
494,492,493,507,494
494,493,492,647,494
494,494,491,802,494
494,494,493,833,495
494,493,493,789,495
494,495,493,625,495
494,495,493,446,495
493,494,494,295,495
493,495,494,213,494
494,494,492,199,495
494,494,494,231,494
494,495,492,305,493
494,494,492,429,493
494,492,492,568,493
494,492,490,724,495
494,493,493,834,495
494,494,493,820,495
494,496,492,731,495
494,495,494,540,495
494,494,493,376,494
493,495,494,244,494
493,493,493,200,495
493,493,493,213,493
494,493,493,256,494
494,493,493,353,493
494,493,492,488,494
494,494,492,630,493
494,494,493,788,494
494,493,492,837,495
494,494,493,802,495
494,495,493,653,495
493,494,493,463,494
493,495,493,313,494
493,495,494,221,494
493,494,493,200,493
493,494,493,226,492
494,494,493,292,493
494,492,492,411,493
494,494,493,550,493
494,492,494,702,494
494,492,491,827,495
494,493,493,825,494
494,493,493,751,495
493,495,493,567,495
493,494,494,399,494
493,494,494,255,494
493,495,493,203,494
494,493,493,207,494
494,493,493,246,495
494,492,492,337,493
494,493,492,471,494
494,493,492,611,494
494,494,492,770,494
494,493,492,840,495
494,495,493,810,496
494,495,494,678,494
493,495,493,488,494
494,495,494,335,494
493,495,493,227,493
494,494,494,197,494
494,493,493,220,493
494,493,493,281,494
494,493,493,389,494
494,492,493,530,494
494,493,492,678,495
494,493,492,815,495
494,494,493,830,495
494,495,494,767,495
493,495,494,594,495
493,495,494,419,496
493,495,494,271,494
493,495,494,207,494
493,494,493,205,494
494,493,493,237,493
494,493,492,322,493
494,493,492,452,493
494,494,492,591,494
494,493,492,752,493
494,493,492,838,494
494,494,493,814,496
494,494,493,705,495
493,495,493,512,493
493,494,492,352,495
493,495,492,235,494
494,495,493,198,494
494,493,494,217,495
494,493,493,269,494
494,493,492,374,494
494,493,490,510,494
494,493,492,654,493
494,493,492,805,494
494,493,493,832,495
494,495,491,787,495
494,494,493,621,496
493,495,493,438,494
493,494,493,291,495
494,494,493,215,493
493,495,492,201,493
494,495,491,233,493
494,494,493,310,493
494,494,492,432,494
494,493,492,570,494
494,493,493,728,494
494,493,492,835,496
494,494,493,819,496
494,494,493,728,494
494,495,494,537,494
494,495,494,376,494
493,495,493,243,493
494,495,493,200,494
494,495,493,213,493
493,494,492,258,494
494,494,492,356,493
494,493,492,493,493
494,493,492,634,495
494,492,490,789,494
494,494,492,835,496
494,495,492,798,496
494,495,493,649,495
493,495,494,464,495
493,495,494,311,494
493,495,493,218,494
494,495,493,199,494
494,494,493,227,493
493,493,492,292,494
494,494,491,414,493
494,493,492,553,494
494,493,492,707,493
494,493,493,829,494
494,493,493,823,495
494,492,492,748,494
494,495,495,559,494
494,495,494,393,495
494,495,493,252,494
494,494,492,203,495
494,494,494,209,493
494,494,492,247,494
494,493,492,339,493
494,493,493,474,493
494,493,492,613,494
494,492,492,773,494
494,493,492,837,495
494,495,492,808,494
494,495,493,674,495
493,494,494,483,494
494,495,495,332,494
494,494,493,225,494
493,495,494,198,493
494,495,492,222,494
494,493,492,283,493
494,494,491,395,493
494,492,492,533,494
494,494,491,682,493
494,493,491,816,495
494,494,493,828,495
494,494,492,763,495
493,494,494,588,495
493,494,494,415,494
493,495,494,268,495
494,494,493,206,494
493,494,492,205,494
494,493,492,239,494
494,493,494,325,494
494,494,492,453,494
494,493,492,593,493
494,493,491,755,494
494,494,492,839,494
494,494,493,812,495
494,494,493,701,494
494,495,493,506,495
493,495,493,349,495
493,495,494,233,494
493,494,493,198,493
494,494,493,217,494
494,495,493,269,494
494,493,492,376,494
494,492,492,514,493
494,493,491,659,493
494,494,492,808,494
494,494,492,833,494
494,494,491,784,495
493,494,493,618,494
493,495,494,435,495
493,496,494,286,494
493,495,493,214,494
494,493,494,204,494
494,494,493,235,495
494,494,493,311,493
494,493,493,436,494
494,493,492,575,494
494,493,492,731,494
494,493,492,835,494
494,495,493,817,496
494,494,494,722,496
494,495,493,531,495
493,495,493,371,494
493,495,494,242,494
494,494,494,201,495
494,495,493,214,494
494,493,492,260,493
494,493,492,360,494
494,493,492,496,494
494,492,491,636,494
494,492,491,792,494
494,493,492,836,494
494,493,492,798,496
494,494,494,642,494
494,494,494,458,495
494,494,495,309,495
494,494,493,218,494
494,494,493,200,493
493,494,493,227,493
494,493,494,297,492
494,493,491,415,493
494,493,491,557,494
494,492,491,709,495
494,494,492,830,495
494,495,493,823,494
494,493,494,746,496
493,495,493,557,495
493,495,494,391,495
493,495,493,250,494
493,495,493,202,494
494,495,492,208,493
494,495,492,250,493
494,494,491,342,493
494,493,492,478,493
494,494,492,618,495
494,493,491,777,494
494,494,492,837,496
494,494,492,803,496
494,494,493,670,495
493,495,494,480,496
494,494,494,326,495
494,494,494,225,494
494,494,493,198,494
494,494,493,224,493
494,494,493,283,493
494,493,492,399,493
494,493,492,536,493
494,494,492,686,494
494,493,491,818,495
494,493,492,826,495
494,496,493,763,495
493,496,494,581,495
493,495,494,409,495
493,495,493,265,494
493,494,492,207,494
493,494,492,205,494
494,493,492,240,494
494,493,492,327,493
494,493,491,458,493
494,493,492,596,494
494,493,491,757,494
494,493,492,837,494
494,494,493,812,493
494,493,492,694,496
494,495,495,503,495
493,495,493,346,495
493,495,493,232,495
493,494,493,195,494
494,494,493,218,494
493,493,493,271,494
494,493,492,379,493
494,492,492,518,493
494,494,492,661,493
494,493,491,809,495
494,494,492,832,494
494,495,493,779,496
494,495,493,611,495
494,495,494,432,495
493,495,494,283,495
493,494,493,212,495
493,493,493,202,494
494,494,492,234,494
494,494,493,314,494
494,493,492,439,494
494,493,491,579,494
494,492,491,738,493
494,493,492,835,495
494,494,493,816,494
494,495,492,719,495
494,495,494,527,496
494,495,493,366,495
494,495,493,239,494
494,494,493,199,493
494,494,493,214,493
494,493,493,261,493
494,495,493,362,494
494,492,493,499,494
494,493,491,640,494
494,492,491,796,494
494,493,493,833,495
494,494,492,797,495
494,495,493,638,496
493,496,494,453,496
494,494,495,305,495
493,494,493,218,495
493,494,493,200,494
493,494,493,229,494
494,494,492,301,493
494,494,491,421,493
494,493,492,562,493
494,492,492,714,493
494,494,492,833,495
494,493,492,822,495
494,494,493,741,495
494,495,493,552,495
494,495,493,388,494
493,495,493,250,494
493,494,494,202,494
494,494,493,211,494
494,495,494,253,493
493,493,493,346,494
494,493,492,477,493
494,493,492,619,494
494,492,492,778,494
494,493,492,838,494
494,494,494,805,495
494,495,493,665,494
494,495,493,475,493
494,494,493,322,494
493,496,494,224,494
493,494,494,199,495
493,493,492,224,494
494,494,492,286,494
494,494,492,403,493
494,493,492,542,494
494,494,493,692,493
494,493,493,822,494
494,494,492,825,494
494,494,492,757,495
494,496,494,579,495
494,495,495,410,494
493,495,494,269,494
493,495,494,204,494
493,494,493,205,493
494,494,494,241,494
494,493,493,355,493
494,493,491,504,494
494,493,491,642,493
494,494,493,756,494
494,494,492,821,494
494,494,493,798,494
494,494,493,687,495
493,495,494,510,495
494,496,494,346,494
494,495,493,218,495
494,495,493,184,494
493,495,492,209,494
494,494,492,266,495
494,493,493,370,494
494,494,492,504,494
494,492,492,661,493
494,493,493,807,495
494,493,492,828,495
494,494,492,772,494
494,494,493,604,496
494,496,494,409,495
493,495,493,271,493
493,494,492,214,494
494,494,493,205,494
494,494,491,238,493
494,493,493,316,493
494,494,492,433,494
494,493,493,576,494
494,493,492,743,494
494,493,492,839,494
494,494,493,818,494
494,493,493,716,494
493,495,494,532,495
493,495,493,373,495
493,495,494,236,495
493,494,494,197,495
494,493,493,214,495
494,493,492,263,493
494,493,492,384,493
494,493,491,526,494
494,494,492,661,494
494,493,491,792,494
494,493,493,828,495
494,493,491,788,495
493,495,492,645,495
493,495,493,474,495
493,495,494,318,495
494,495,493,203,494
493,494,493,189,494
494,494,494,221,494
494,493,492,297,493
494,493,493,438,494
494,493,492,575,494
494,493,493,708,493
494,493,492,822,495
494,494,492,812,495
494,493,492,731,495
493,495,494,549,495
493,495,494,383,495
493,495,494,241,494
493,494,495,197,494
494,495,494,206,492
494,494,491,250,493
494,495,492,344,494
494,493,492,477,493
494,493,492,619,493
494,494,492,779,494
494,493,492,835,495
494,494,492,802,495
494,496,493,658,496
494,497,492,464,496
493,495,493,314,495
493,494,492,224,494
493,494,493,200,494
494,495,493,227,494
494,493,492,290,494
494,494,491,398,493
494,493,492,538,493
494,493,490,698,494
494,493,492,826,494
494,495,492,827,495
494,494,492,756,495
493,495,494,574,496
493,496,494,406,495
493,495,494,261,494
493,495,493,205,494
493,494,493,208,494
494,495,494,243,493
494,493,492,335,492
494,493,492,476,493
494,493,492,614,492
494,494,491,760,493
494,494,492,836,495
494,494,492,808,495
494,496,494,686,496
494,495,494,509,495
493,496,493,351,495
494,496,493,222,494
493,495,493,192,493
494,494,493,215,495
494,495,492,272,493
494,494,493,395,495
493,493,493,533,494
494,495,492,669,493
494,493,491,807,494
494,493,493,824,495
494,495,492,768,495
494,494,493,600,495
493,495,494,426,495
493,495,495,278,494
493,495,494,208,494
493,493,492,200,494
494,494,494,235,494
494,494,493,317,494
494,495,492,443,494
494,493,492,581,494
494,493,493,742,494
494,495,492,835,494
494,494,492,815,495
494,496,493,709,494
493,496,493,515,495
494,495,494,356,495
493,495,494,237,495
493,494,493,198,494
493,494,493,215,494
494,494,492,265,493
494,493,492,367,493
494,494,494,505,493
494,493,492,646,494
494,493,490,803,494
494,494,492,834,494
494,493,492,789,494
493,495,493,629,496
494,497,493,449,494
493,495,493,299,495
493,495,493,215,494
493,494,493,199,493
493,493,492,231,493
494,494,492,303,494
494,494,493,429,492
494,494,493,569,493
494,493,491,722,493
494,494,492,833,494
494,495,492,820,495
494,494,493,734,496
494,495,495,548,496
494,496,495,382,494
494,496,493,244,494
494,494,493,201,495
493,494,492,210,493
494,494,491,255,493
494,494,492,352,492
494,493,493,489,494
494,494,492,629,494
494,496,491,784,494
494,494,492,834,495
494,494,492,801,495
493,495,493,655,495
494,496,494,468,496
493,495,493,316,494
493,495,494,220,494
493,496,492,197,495
494,493,493,224,493
494,494,493,291,494
494,495,492,409,493
494,494,492,548,494
494,494,493,698,492
494,493,491,825,493
494,494,491,823,494
494,494,493,754,496
494,495,494,570,495
494,495,494,402,495
493,495,492,258,494
493,495,493,202,494
493,494,493,207,493
494,495,493,245,494
494,493,492,336,494
494,493,493,469,494
494,493,492,608,493
494,493,491,766,494
494,494,492,837,494
494,494,494,808,494
494,495,493,681,495
493,495,494,493,494
493,496,494,337,494
493,495,493,226,494
494,495,492,196,495
494,494,493,220,494
493,494,493,277,492
494,495,492,389,494
494,494,492,528,494
494,495,491,672,495
494,494,491,813,493
494,494,492,828,494
494,495,493,767,495
493,495,494,595,496
493,495,494,421,494
493,496,493,272,494
493,495,493,209,494
494,495,492,203,493
493,495,493,237,493
494,495,493,320,494
494,494,492,451,493
494,493,492,590,493
494,493,491,747,493
494,494,491,836,495
494,494,492,812,496
494,495,493,706,494
494,496,494,515,495
493,496,494,354,495
493,496,494,235,494
494,496,493,198,493
494,495,492,216,495
494,495,493,266,493
494,493,493,372,493
494,494,492,509,494
494,494,493,650,492
494,494,492,804,494
494,495,492,832,495
494,494,491,788,495
494,495,493,622,495
493,495,493,442,495
493,495,494,294,494
493,495,493,215,493
493,494,493,201,493
494,494,491,232,493
494,495,492,307,494
494,493,492,431,492
494,493,493,571,493
494,493,493,724,494
494,494,492,833,494
494,495,493,820,495
494,493,492,729,496
493,495,493,542,495
494,495,494,380,495
493,495,494,242,494
493,494,493,200,493
493,494,493,212,494
494,494,492,257,493
494,494,493,355,493
494,495,492,491,493
494,494,492,632,493
494,495,493,788,493
494,494,492,836,494
494,494,491,800,492
494,495,495,651,495
493,496,494,465,494
493,495,494,313,494
493,495,493,219,493
493,494,493,198,493
494,494,493,227,494
494,494,493,292,493
494,494,492,411,493
494,494,492,551,493
494,494,492,704,492
494,494,492,828,495
494,495,493,825,494
494,494,493,750,495
493,495,494,565,495
493,495,493,397,494
494,495,493,253,493
494,495,492,204,494
494,494,493,207,494
494,494,492,246,493
494,494,492,340,493
494,494,492,474,493
494,493,492,613,494
494,494,492,770,493
494,494,492,837,495
494,495,492,805,494
494,494,493,677,495
494,495,494,488,494
494,495,495,334,494
493,495,494,228,494
493,494,493,197,493
494,493,493,221,493
494,494,492,281,492
494,494,493,393,493
494,494,492,530,493
494,494,494,678,493
494,493,492,815,494
494,495,492,830,493
494,496,493,767,494
493,494,493,592,495
494,496,494,420,494
493,495,492,272,494
494,495,492,210,494
494,495,493,206,493
494,496,491,241,493
494,495,492,325,492
494,494,492,453,493
494,494,493,594,493
494,493,492,754,494
494,493,491,839,494
494,493,492,815,494
494,495,492,704,495
493,495,493,512,495
493,494,494,353,494
493,494,493,235,494
493,494,493,199,494
494,494,493,220,493
494,494,492,270,492
494,494,493,376,493
494,493,493,515,491
494,494,491,657,492
494,493,492,808,494
494,493,493,834,495
494,493,492,788,495
494,495,494,621,495
494,495,494,439,494
493,494,493,292,494
493,495,494,214,491
494,493,494,201,494
494,494,492,231,493
494,494,493,310,493
494,493,493,433,492
494,493,493,572,492
494,494,492,728,493
494,494,492,834,495
494,494,491,816,493
494,493,492,726,495
494,496,493,530,494
494,495,492,370,493
494,496,495,245,492
494,495,494,200,494
494,495,492,212,492
494,492,493,257,492
494,495,491,355,493
494,493,491,485,493
494,492,492,629,494
494,491,489,793,494
494,494,491,839,493
494,496,492,801,495
494,496,494,646,494
494,494,494,453,494
494,494,495,303,493
494,495,494,222,493
494,496,494,203,492
494,493,493,231,492
494,494,492,297,493
494,493,493,406,491
494,495,493,548,494
494,492,490,710,493
494,495,493,833,493
494,495,491,826,492
494,495,494,748,494
494,497,493,561,494
494,496,492,388,494
494,495,494,254,493
494,494,492,205,492
494,495,494,213,492
494,493,491,251,492
494,495,491,344,491
494,493,491,471,492
494,493,493,612,491
494,493,492,780,492
494,493,492,841,492
494,495,493,811,495
494,494,494,678,496
493,494,494,479,493
493,495,493,327,494
494,496,493,232,494
494,497,495,203,491
494,493,495,227,494
494,494,491,288,492
494,494,494,392,491
494,494,493,528,491
494,492,490,691,494
494,491,493,824,493
494,494,494,835,493
494,496,494,769,495
494,494,494,588,494
494,497,493,401,492
494,494,493,271,493
494,494,494,213,491
494,496,495,212,495
494,495,492,245,492
494,493,493,330,491
494,493,493,447,493
494,494,491,590,493
494,493,494,763,494
494,493,493,844,494
494,496,491,820,494
494,493,493,704,495
494,494,495,506,493
494,494,495,349,494
493,495,494,240,494
494,493,492,203,491
494,495,493,222,492
494,493,492,273,492
494,493,494,376,493
494,495,491,514,493
494,495,491,664,490
494,494,491,813,491
494,495,495,837,492
494,495,491,786,495
494,497,492,617,495
494,496,494,430,494
494,496,492,280,496
494,497,493,217,493
494,495,495,206,494
494,496,491,239,494
494,493,493,313,493
494,493,492,425,492
494,495,492,565,492
494,492,492,740,493
494,494,493,841,491
494,491,494,823,492
494,493,493,727,494
494,493,492,531,493
494,497,496,354,495
493,494,493,247,491
494,493,493,204,490
493,492,495,216,493
494,496,492,264,492
494,496,494,360,493
494,493,491,484,492
494,493,494,637,493
494,494,491,797,491
494,496,490,839,492
494,496,492,802,492
494,496,491,642,493
493,493,494,448,495
494,497,495,298,495
494,494,495,226,490
494,494,492,202,491
494,493,491,231,493
494,492,491,302,493
494,493,495,413,492
494,492,493,549,493
494,492,490,718,493
494,495,494,833,494
494,497,495,828,492
494,496,492,750,492
494,496,493,556,492
494,497,494,383,491
494,494,495,257,491
494,495,492,205,493
494,493,491,210,493
494,493,493,253,494
494,495,493,345,491
494,493,491,469,493
494,494,493,610,491
494,491,490,782,493
494,494,491,842,493
494,496,491,809,492
494,495,493,673,494
493,496,493,473,492
493,497,494,316,493
494,493,492,232,493
493,495,494,203,492
494,492,495,229,494
493,492,493,285,489
494,492,492,393,493
493,495,494,525,493
494,495,490,696,493
494,493,493,824,493
494,494,491,831,495
494,496,493,767,495
494,495,496,584,494
493,496,496,401,492
493,496,495,263,491
493,496,494,210,492
493,495,493,209,491
494,495,491,245,493
494,493,494,330,490
494,495,492,452,491
494,492,491,593,491
494,494,490,765,491
494,494,492,842,493
494,494,492,817,495
494,493,493,700,496
493,496,495,496,493
494,495,495,337,492
493,494,496,238,492
493,493,495,200,493
494,496,495,220,490
494,493,495,274,493
494,492,493,379,493
494,495,491,508,491
494,492,490,665,491
494,495,490,813,492
494,496,496,834,493
493,497,494,784,492
493,497,496,612,494
494,497,493,423,492
494,496,495,276,494
493,493,493,217,494
493,494,495,206,493
493,493,492,237,492
494,495,495,315,493
493,492,493,431,492
494,492,493,571,491
494,494,492,742,493
494,494,491,839,491
494,493,494,821,491
494,494,493,723,493
493,497,493,524,493
493,494,495,357,494
493,496,492,245,490
493,496,495,202,494
493,494,494,215,493
494,492,491,265,493
494,493,491,362,494
494,493,492,492,491
494,494,494,641,491
494,492,491,801,494
494,493,494,841,494
494,494,495,801,494
494,497,493,641,492
493,494,495,443,495
493,496,493,293,492
494,494,492,221,493
493,495,493,205,493
493,493,492,230,493
493,495,493,302,493
494,492,494,413,493
494,494,493,555,490
494,493,490,719,491
494,493,490,836,493
494,496,493,826,492
494,493,492,746,495
494,494,494,553,492
494,494,492,379,492
494,494,496,255,492
493,496,495,204,491
493,494,492,214,493
493,493,491,254,494
494,496,494,349,493
494,493,493,471,492
494,492,492,612,493
494,493,491,782,494
494,494,493,839,492
494,495,492,808,492
494,494,494,665,494
493,494,493,468,494
493,495,494,316,492
493,497,496,229,492
493,494,494,202,493
494,496,492,227,491
494,494,493,289,491
494,495,492,395,491
494,493,491,531,490
494,493,491,695,494
494,494,494,829,493
494,496,491,831,493
494,493,494,764,494
494,497,493,582,495
494,495,495,397,494
493,496,492,261,493
493,494,494,208,493
493,495,492,208,491
493,493,495,244,491
494,493,494,333,491
494,495,494,454,493
494,494,493,593,492
494,494,492,766,493
494,492,493,843,494
494,496,492,814,492
494,494,495,695,494
493,494,494,494,495
493,494,495,334,494
493,494,493,236,492
493,493,492,201,493
493,495,491,223,491
494,493,491,274,491
493,495,493,381,492
494,494,491,513,492
494,495,493,671,494
494,492,491,813,493
494,496,492,834,495
494,493,491,780,495
493,492,494,610,493
493,495,493,419,493
493,495,496,273,494
493,497,494,217,491
493,496,494,206,490
494,494,493,240,492
494,493,491,320,492
494,493,493,433,492
494,492,493,572,493
494,495,493,744,494
494,494,491,840,493
494,496,493,820,493
494,494,494,719,494
494,496,494,519,493
493,496,495,357,492
493,494,493,243,493
493,493,495,203,492
494,496,492,218,491
493,492,494,264,495
493,493,495,364,493
494,493,492,496,492
494,491,491,644,491
494,495,490,802,494
494,496,491,839,494
494,496,493,796,494
494,495,493,637,494
493,496,496,442,495
493,496,494,293,494
493,493,494,220,493
493,496,492,202,491
494,494,492,234,494
494,496,493,306,492
494,493,494,416,492
493,494,492,557,493
494,493,492,725,491
494,494,492,838,493
494,495,494,827,495
494,494,494,743,494
493,495,494,550,493
494,496,495,379,493
494,495,494,251,494
493,496,493,206,493
494,494,494,214,493
493,495,493,256,492
494,495,494,351,493
494,493,493,484,493
494,494,493,625,492
494,493,492,785,494
494,493,493,839,495
493,494,493,805,495
493,495,493,662,494
493,496,494,475,494
493,495,494,323,494
493,494,495,223,493
493,494,493,199,492
493,493,494,224,492
493,494,493,289,493
493,494,492,410,492
494,494,492,547,493
494,493,492,694,493
494,494,493,824,494
494,495,492,826,494
494,495,492,758,495
493,495,494,575,495
493,495,494,406,494
493,496,495,260,493
493,495,493,203,493
493,495,494,205,492
493,495,492,242,493
493,494,492,331,493
494,494,492,462,492
494,494,493,601,493
494,493,491,764,494
493,494,492,839,495
494,494,493,810,493
494,495,494,687,494
494,496,494,492,495
493,495,494,336,495
493,496,495,230,494
493,495,493,197,493
493,494,493,220,493
493,495,493,274,492
494,495,493,381,493
494,494,492,522,493
494,494,493,672,495
494,494,492,814,494
494,495,493,831,493
494,495,492,771,494
493,496,494,602,494
494,496,494,425,494
493,496,494,277,492
493,496,495,212,493
493,494,494,204,493
493,494,494,237,494
493,495,493,319,494
493,494,493,449,493
494,495,492,589,495
494,493,493,744,494
494,495,492,836,493
494,494,493,816,496
494,495,493,711,495
493,496,494,522,495
494,496,494,360,494
493,496,495,238,492
493,495,493,198,493
493,494,493,215,493
493,494,493,264,494
493,495,493,368,494
494,494,491,503,493
493,494,494,645,494
494,492,492,802,494
494,495,493,833,494
494,495,493,789,496
493,495,494,629,495
493,496,495,446,494
494,496,494,297,493
493,494,493,217,494
494,495,493,200,494
493,494,494,231,495
493,494,493,304,494
493,494,492,427,494
494,494,493,565,494
494,493,493,722,493
494,494,493,833,493
494,493,493,821,494
494,494,494,733,493
494,496,495,548,494
494,495,495,384,494
494,495,495,246,493
493,495,493,201,495
493,494,493,212,496
493,495,493,256,495
493,494,492,351,494
494,493,493,489,493
494,494,493,627,493
494,493,492,785,495
494,493,493,836,494
493,496,493,802,496
494,496,493,655,495
494,496,494,470,494
493,496,494,317,495
493,496,494,221,493
493,495,493,198,494
493,494,494,225,494
493,494,493,289,493
494,494,492,408,493
494,493,492,547,494
494,493,492,699,494
494,492,493,825,495
494,494,492,825,495
494,495,492,754,496
494,495,495,571,495
494,495,495,400,496
493,496,493,255,494
493,495,494,205,493
493,494,494,208,494
493,495,493,244,492
494,494,493,335,492
494,494,493,466,493
494,494,492,605,494
494,493,492,766,495
494,493,492,839,496
494,494,494,811,495
494,496,493,682,496
494,495,494,491,495
494,495,494,337,495
493,495,493,230,495
493,494,492,198,493
493,494,493,222,493
493,494,493,278,494
494,494,492,390,494
494,494,493,528,493
494,493,492,673,494
494,494,492,813,494
494,494,493,829,496
494,494,492,767,495
494,496,494,599,495
493,496,494,426,496
493,496,494,277,494
493,494,493,209,494
493,494,493,204,493
494,494,492,237,493
494,493,493,320,494
494,493,493,452,493
494,493,493,590,494
494,493,493,748,493
494,494,493,835,495
494,494,493,814,494
494,494,493,707,496
493,495,494,518,495
494,494,493,357,494
493,495,494,233,494
493,494,493,197,492
493,494,493,216,493
494,494,492,266,493
494,493,493,370,494
494,494,492,507,494
494,493,492,650,494
494,493,492,804,494
494,494,492,832,496
494,494,492,787,495
493,496,495,624,496
494,495,494,441,496
493,494,494,292,495
493,495,493,216,494
493,496,493,203,494
493,493,492,232,494
493,495,493,308,494
494,494,493,431,494
494,493,493,570,494
494,494,491,726,494
494,493,492,833,495
494,494,492,820,495
494,494,493,730,496
494,495,495,542,496
494,495,493,381,495
494,495,495,244,495
493,494,494,201,495
493,494,492,212,495
494,493,493,258,494
494,495,492,356,494
494,494,493,494,493
494,493,493,633,493
494,493,492,786,495
494,494,492,835,495
494,495,493,799,496
494,495,494,651,496
494,495,494,469,495
494,496,494,316,495
493,495,494,219,493
493,494,493,198,494
493,494,493,227,493
494,494,493,293,493
494,494,494,412,492
494,494,493,551,492
494,494,491,703,493
494,493,492,828,495
494,494,492,825,496
494,494,494,751,498
494,495,494,567,495
494,495,494,398,496
494,496,494,253,495
493,495,493,204,494
493,495,493,208,495
493,494,493,246,494
493,494,494,337,494
494,493,491,473,494
494,493,491,612,494
494,493,492,772,495
494,493,492,838,495
494,495,493,807,493
494,496,495,677,496
494,495,495,487,496
494,495,494,333,495
494,494,494,227,494
493,495,495,199,494
493,495,493,221,494
493,494,493,279,495
494,494,492,394,494
494,493,492,531,493
494,493,493,679,494
494,493,492,814,494
494,494,493,828,495
494,494,493,767,496
494,495,494,592,497
494,495,494,419,496
494,495,494,273,494
494,494,494,208,493
493,494,492,205,495
493,495,493,239,494
493,494,492,323,493
494,493,492,454,494
494,493,492,593,493
494,492,493,751,493
494,494,492,837,493
494,493,494,815,495
494,496,494,703,496
494,495,494,513,496
493,496,494,355,495
493,495,493,234,495
493,494,493,196,494
493,495,493,217,493
493,493,493,269,494
493,494,493,374,494
494,494,493,512,494
494,494,493,652,494
494,493,492,807,495
494,495,493,833,494
494,494,493,788,495
494,495,494,621,496
494,495,494,439,496
493,495,494,289,494
494,494,494,214,494
494,494,494,202,495
493,494,493,234,496
493,493,491,309,495
494,494,491,435,494
494,493,492,574,494
494,493,491,731,495
494,493,492,834,495
494,494,494,819,496
494,493,492,728,495
494,494,493,537,496
493,496,493,376,495
493,495,493,242,494
493,494,494,201,493
494,494,493,213,494
494,492,492,259,494
494,493,492,357,495
494,495,492,496,495
493,493,492,634,494
494,492,492,789,494
494,494,492,836,495
494,494,492,800,495
494,493,494,646,495
494,496,494,459,496
494,496,494,310,495
493,494,493,220,494
493,493,493,200,494
494,495,492,228,493
494,494,494,295,494
494,494,492,413,494
494,494,493,554,494
494,494,492,707,495
494,492,491,830,495
494,494,492,826,495
494,494,494,749,496
494,494,493,563,496
494,495,494,396,495
493,495,494,252,494
493,494,493,201,494
493,495,494,210,494
494,494,494,249,494
493,493,493,342,494
494,493,492,478,494
494,493,492,617,494
494,494,491,775,494
494,493,493,839,495
494,494,492,808,495
494,494,493,674,496
494,495,494,485,496
494,494,494,330,495
493,495,495,224,493
493,495,494,198,494
494,494,493,222,495
494,494,492,282,494
494,493,493,396,494
494,493,493,534,494
494,493,492,684,493
494,493,492,818,495
494,493,492,828,495
494,493,494,764,495
494,494,494,588,495
494,495,494,413,495
494,495,494,265,494
493,495,495,207,494
493,495,494,205,495
494,493,493,239,494
494,493,493,325,494
494,493,493,456,494
494,493,491,596,494
494,493,493,755,495
494,493,492,838,496
494,494,493,813,495
494,492,494,699,496
494,495,494,507,496
494,494,493,349,495
493,494,494,231,494
494,494,493,197,495
494,494,494,217,494
494,494,492,268,494
494,493,493,378,493
494,493,491,516,494
494,494,492,658,493
494,493,492,809,494
494,494,493,834,495
494,494,493,785,495
494,494,494,617,496
494,495,494,437,495
494,494,493,287,494
494,493,494,211,494
493,494,493,201,494
494,494,492,233,493
494,493,493,311,494
494,493,493,434,494
494,493,492,576,494
494,495,491,733,495
494,494,492,836,495
494,494,493,819,495
494,496,492,722,495
494,495,494,531,496
494,495,494,370,495
494,495,494,238,494
493,494,494,198,494
493,495,494,212,494
494,492,492,259,494
494,493,494,359,494
494,493,493,497,494
494,493,492,636,494
494,493,491,795,494
494,493,491,836,496
494,494,493,797,495
494,494,495,642,496
493,495,494,458,495
494,494,494,305,494
493,493,494,217,493
494,494,492,200,494
493,494,493,226,492
494,493,493,298,493
494,493,492,419,495
494,493,492,559,494
494,493,491,712,494
494,493,492,831,495
494,493,492,823,495
494,494,493,744,495
494,494,494,559,496
493,495,494,392,496
493,495,495,249,495
494,494,493,202,494
494,495,494,208,494
494,494,494,249,494
494,493,492,343,493
494,493,492,479,493
494,493,491,617,494
494,493,492,778,494
494,493,491,839,494
494,494,493,807,494
494,494,493,671,496
494,494,493,482,495
494,495,494,328,495
493,494,493,224,493
493,495,494,197,494
494,493,494,223,494
494,493,492,283,493
494,492,492,398,493
494,493,492,536,493
494,493,492,687,493
494,493,492,822,495
494,494,493,829,496
494,494,493,764,494
494,495,494,584,494
494,495,493,412,495
493,495,494,265,494
493,494,493,204,496
494,494,492,204,495
493,493,493,239,495
493,494,493,327,494
494,493,493,461,495
494,493,492,600,494
494,492,492,759,494
494,492,493,839,494
494,493,493,814,494
494,493,493,696,495
494,495,494,505,496
493,495,494,344,494
493,495,494,230,495
494,494,493,197,494
493,494,492,218,493
494,492,492,270,494
494,493,492,380,494
494,492,493,520,494
494,493,492,662,493
494,493,492,810,496
494,493,492,834,494
494,494,493,782,495
494,494,494,611,495
494,494,493,430,495
494,495,494,283,495
493,494,494,212,494
494,493,494,201,493
493,493,494,234,494
494,493,492,314,494
494,492,492,438,494
494,493,492,578,494
494,492,490,736,494
494,492,491,837,496
494,493,492,819,494
494,495,493,719,495
493,494,493,526,495
494,493,494,367,495
494,493,493,239,494
493,494,492,197,495
494,492,491,213,493
494,493,493,261,493
494,493,492,363,494
494,492,492,499,494
494,492,492,641,493
494,492,491,799,495
494,493,492,837,494
494,493,492,797,496
494,494,493,639,496
494,494,494,455,495
494,494,493,304,495
493,494,494,216,494
494,493,494,199,494
494,493,495,229,494
494,494,491,297,494
494,493,491,422,494
494,491,493,561,494
494,492,491,717,494
494,492,492,831,494
494,493,492,823,495
494,492,492,744,496
494,494,494,552,496
494,494,494,384,495
494,494,494,247,494
493,493,493,200,494
493,493,493,208,494
493,492,492,250,494
494,493,493,345,494
494,492,492,480,494
494,492,491,621,494
494,490,492,780,495
494,492,492,837,495
494,492,493,805,495
494,494,493,664,495
494,494,493,476,494
494,494,494,323,494
493,493,493,222,493
494,493,493,197,494
493,493,493,221,494
493,493,493,287,494
494,493,492,405,495
494,492,491,543,494
494,491,493,688,494
494,492,492,822,495
494,493,492,826,495
494,494,493,759,495
494,495,493,579,496
494,494,493,410,495
494,494,493,264,495
494,494,494,201,494
494,493,493,203,494
493,493,493,239,494
494,492,491,329,494
494,492,492,462,495
494,491,491,602,495
494,492,491,760,495
494,492,491,838,495
494,493,492,810,495
494,493,492,688,496
494,494,493,496,496
494,495,493,340,495
494,494,492,229,494
493,493,493,197,494
494,494,493,217,495
494,493,492,272,495
494,493,492,378,494
494,491,492,519,494
494,491,492,667,495
494,492,493,812,494
494,492,492,831,495
494,493,492,776,495
494,494,493,607,495
494,494,492,427,495
494,494,492,279,494
494,494,494,210,494
494,493,492,202,494
494,493,493,234,493
494,493,492,316,494
494,492,491,445,493
494,492,491,583,495
494,492,491,738,494
494,492,492,835,494
494,493,491,816,495
494,494,494,713,495
494,494,494,526,496
493,494,493,365,495
493,494,493,236,494
494,493,493,197,494
494,492,492,212,493
494,493,493,261,493
494,492,492,365,494
494,492,491,503,494
494,492,492,642,495
494,491,491,798,494
494,492,493,833,495
494,493,493,792,495
494,494,493,632,495
494,494,493,450,495
494,494,493,300,494
493,492,494,214,495
493,493,493,198,494
493,493,492,227,494
494,492,492,301,493
494,493,493,420,493
494,492,491,562,494
494,492,491,717,495
494,491,491,830,495
494,493,492,819,495
494,494,493,737,495
494,495,494,546,495
494,494,493,382,495
494,494,493,245,495
493,493,494,200,494
493,493,493,210,494
494,493,493,252,493
494,492,491,346,494
494,492,491,481,494
494,492,491,622,493
494,492,492,782,494
494,491,491,835,494
494,493,491,803,495
494,493,493,659,496
494,494,493,470,495
494,494,493,320,494
493,493,494,221,494
494,493,492,197,493
494,494,493,222,494
494,492,492,287,493
494,492,492,407,493
494,491,492,545,491
494,493,491,693,492
494,491,492,822,492
494,494,492,824,494
494,492,491,755,495
494,493,494,575,497
494,494,493,402,496
493,494,494,258,495
493,494,492,204,494
493,493,492,205,494
494,492,492,242,494
494,491,492,331,494
494,492,492,463,493
494,493,492,603,493
494,491,491,763,494
494,491,491,836,495
494,494,493,809,496
494,492,492,684,495
493,494,493,490,495
494,494,493,337,495
494,494,493,229,494
493,492,491,196,494
494,492,491,217,494
494,493,492,275,493
494,493,492,382,493
494,492,491,521,492
494,493,490,668,493
494,491,490,811,494
494,492,492,829,494
494,493,491,771,497
494,492,493,601,495
494,494,494,423,495
494,494,493,276,494
493,493,492,209,494
494,492,492,203,494
494,493,492,235,494
494,492,493,318,495
493,492,492,445,494
494,491,492,585,495
494,490,491,744,494
494,492,491,835,495
494,493,492,814,496
494,494,492,710,497
494,494,494,518,496
494,494,493,359,494
493,493,493,234,494
493,494,493,196,495
494,492,493,215,494
494,493,492,263,493
494,492,492,367,494
494,493,491,504,494
494,491,492,645,494
494,492,491,800,495
494,493,492,833,496
494,492,493,792,495
494,494,493,628,495
493,494,493,444,496
493,494,492,295,494
494,493,492,214,494
494,493,493,199,494
494,492,492,229,494
494,493,492,303,495
494,492,491,426,494
494,492,491,565,494
494,492,491,719,494
494,492,492,830,495
494,492,492,819,495
494,491,491,733,495
494,494,493,542,495
494,494,493,379,495
493,493,492,244,494
494,493,493,200,494
494,494,493,209,493
494,492,492,254,493
494,493,491,348,493
494,491,491,484,494
494,492,492,626,493
494,492,491,782,495
494,492,491,834,495
494,493,492,801,494
494,494,494,655,496
494,493,493,467,495
493,494,494,316,495
493,493,494,220,494
494,494,492,197,494
494,493,491,225,494
494,492,492,290,495
494,492,491,406,493
494,492,492,545,494
494,493,490,698,494
494,492,492,825,494
494,492,492,824,494
494,492,492,753,496
494,493,494,570,495
494,493,493,400,494
493,495,494,254,494
494,494,492,202,492
494,492,492,206,494
493,491,492,244,494
494,493,492,334,493
494,492,491,467,494
494,492,491,605,495
494,492,490,765,495
494,492,491,835,495
494,492,492,808,495
494,493,492,680,495
494,494,493,489,495
494,493,493,335,496
493,494,492,225,494
493,493,492,195,494
494,492,492,218,494
493,493,492,275,494
494,492,491,386,494
494,491,491,523,494
494,493,492,670,493
494,492,491,809,493
494,492,492,826,495
494,492,491,765,494
494,494,493,593,496
493,494,493,417,494
493,493,494,272,494
493,493,494,206,494
494,492,492,201,494
494,492,491,234,495
493,492,491,319,494
494,492,492,445,494
494,492,491,586,494
494,491,491,746,494
494,492,490,835,494
494,493,492,814,494
494,493,492,706,495
494,493,492,514,496
494,494,493,354,495
494,493,492,234,496
494,493,492,196,494
494,493,492,215,494
494,492,492,265,493
494,492,491,369,494
494,491,491,505,494
494,492,491,647,495
494,492,492,802,493
494,491,492,832,495
494,492,490,787,496
494,493,492,624,495
494,494,493,442,495
494,493,492,292,495
493,492,493,213,494
493,492,492,200,494
493,494,493,230,494
493,492,492,306,493
494,492,491,427,493
494,492,490,568,495
494,493,491,724,493
494,491,492,832,494
494,492,491,818,494
494,493,492,729,495
493,494,493,537,495
493,494,492,376,495
493,493,493,242,495
493,492,493,200,495
493,492,492,211,495
494,492,491,255,494
494,492,492,352,494
494,491,490,488,494
494,493,490,628,495
494,491,491,785,494
494,493,492,835,494
494,492,490,799,494
494,492,493,649,496
494,493,493,461,497
494,493,493,312,495
493,493,493,219,494
494,493,491,198,492
493,493,492,224,493
494,493,492,292,493
494,492,492,407,494
494,492,491,548,494
494,493,490,701,494
494,491,490,828,494
494,492,492,824,494
494,494,492,751,496
494,494,492,565,495
493,493,492,396,495
494,494,493,253,493
494,492,492,202,494
494,493,493,207,493
493,493,492,245,494
493,491,490,336,494
494,492,490,469,494
494,490,491,610,494
494,491,490,770,495
494,492,492,837,495
494,492,490,808,496
493,492,491,676,495
494,495,492,486,495
493,494,493,331,495
493,493,492,226,494
493,493,491,196,493
494,493,492,222,493
494,493,491,278,493
494,491,491,388,494
494,491,491,527,493
494,491,491,677,494
494,492,490,814,494
494,492,492,828,496
494,492,491,765,495
494,494,493,591,495
493,493,493,416,494
493,493,492,270,494
494,493,493,207,493
494,492,490,203,493
494,492,491,236,494
493,492,493,322,494
494,492,491,452,494
494,493,491,590,495
494,491,491,748,494
494,492,492,834,495
493,492,491,813,495
494,492,492,702,496
494,494,493,511,496
494,494,492,353,495
494,494,492,233,494
493,493,492,195,494
493,492,492,215,495
494,493,491,266,493
494,492,491,372,494
494,492,491,508,494
494,491,491,652,492
494,492,490,805,495
494,493,492,832,495
494,493,491,786,496
494,493,493,620,495
494,494,493,438,495
494,494,492,289,494
494,494,492,211,496
493,494,492,200,494
494,495,490,231,494
493,493,491,307,494
494,492,491,428,493
494,492,491,568,493
494,493,490,728,494
494,492,490,832,495
494,493,492,818,497
494,494,491,726,496
494,494,492,533,496
493,494,492,372,494
493,494,493,240,495
494,493,492,199,494
493,493,490,211,494
493,493,491,256,495
494,494,492,354,493
494,491,490,491,494
494,492,491,632,494
494,493,491,788,495
494,492,491,834,496
494,494,490,799,496
494,494,492,645,496
493,494,493,460,495
494,494,492,309,495
494,494,493,218,494
493,494,492,198,495
494,494,490,226,495
494,493,492,293,494
494,492,490,413,494
494,491,492,551,493
494,492,490,704,494
494,492,490,827,494
494,493,491,822,495
494,493,491,747,496
494,494,492,561,496
494,495,492,394,496
494,494,492,251,494
493,493,492,201,494
494,493,492,206,495
494,494,491,245,493
494,492,490,339,493
494,491,489,473,494
494,492,492,613,495
494,491,490,770,494
494,492,491,835,495
493,493,492,807,496
494,494,493,672,496
494,494,492,484,495
494,494,493,331,495
493,494,490,223,495
494,494,492,195,494
493,494,492,220,494
493,492,494,281,493
493,492,492,390,493
494,491,491,529,493
494,493,491,680,493
494,493,490,816,494
494,493,491,827,494
494,494,490,762,495
494,494,492,587,497
493,495,493,410,496
494,494,492,264,496
494,494,492,206,494
494,493,491,204,494
494,494,492,238,494
494,493,491,324,494
494,493,491,450,494
494,493,490,592,494
494,492,490,754,495
494,493,490,837,494
494,493,491,814,494
494,494,493,699,496
493,495,492,507,495
493,495,493,348,494
493,494,492,231,494
493,494,492,197,494
494,493,491,214,495
494,494,491,269,494
493,493,491,378,493
494,492,490,517,494
494,493,490,655,492
494,492,490,805,493
494,493,490,831,497
494,493,493,782,496
494,494,492,616,495
493,494,492,439,496
493,494,492,288,495
493,494,491,210,494
493,493,492,199,494
494,493,492,231,493
494,493,491,309,494
494,493,490,436,492
494,493,490,573,493
494,491,491,729,494
494,492,489,832,496
494,494,492,816,496
494,494,491,720,496
494,495,492,531,495
494,494,493,369,495
493,494,493,239,494
493,494,493,197,494
494,494,492,209,494
493,494,490,257,494
494,493,491,355,494
494,492,490,492,494
494,493,490,631,495
494,492,489,792,494
494,492,489,834,494
494,493,491,797,496
494,495,493,643,495
493,494,491,456,495
494,495,493,304,495
493,494,493,217,494
493,494,492,197,494
494,494,491,227,494
494,494,492,294,493
494,493,490,414,495
494,493,490,555,493
494,493,489,710,495
494,493,489,829,494
494,493,491,823,494
494,495,490,745,494
493,494,493,557,494
493,495,493,391,494
493,496,492,249,494
494,494,492,201,494
494,493,491,207,495
493,494,492,248,494
493,493,490,341,494
493,494,489,477,493
494,494,490,617,494
494,493,491,774,494
494,492,490,833,496
494,494,491,804,495
493,494,492,669,496
493,496,492,479,496
493,494,491,326,496
493,494,491,223,495
493,493,492,195,495
494,493,490,219,494
494,493,491,283,494
494,493,491,394,493
494,493,489,532,494
494,493,490,685,494
494,493,490,817,495
494,493,493,825,495
494,494,492,762,495
494,494,493,581,495
493,495,492,408,495
493,495,492,263,494
493,494,492,204,494
493,494,492,204,495
493,495,492,238,494
493,494,491,326,493
494,493,491,453,493
494,492,490,594,493
494,492,490,757,496
494,493,490,838,494
494,494,491,812,496
494,494,492,695,497
494,495,492,504,497
493,496,492,346,496
493,495,492,228,495
493,494,493,195,494
494,494,492,216,495
493,494,490,268,494
494,493,491,378,493
494,493,491,518,494
494,493,490,660,494
494,493,490,807,495
494,494,491,830,495
494,493,492,780,496
493,495,492,611,496
493,496,493,432,495
493,494,491,282,496
493,494,493,209,494
493,494,492,200,494
494,494,490,231,493
494,494,490,310,494
494,494,490,436,495
494,494,489,576,494
494,493,491,732,494
494,493,490,832,495
494,493,492,816,495
494,496,491,718,496
494,495,493,524,496
493,494,492,364,495
493,495,492,239,494
493,494,491,198,494
494,494,489,211,494
494,494,489,259,492
494,492,491,359,493
494,494,490,495,492
494,493,491,637,494
494,493,491,796,495
494,494,491,835,497
494,494,492,796,496
493,494,492,638,496
493,494,493,453,496
493,495,492,304,495
493,494,492,216,494
493,494,490,197,493
493,493,491,227,494
494,493,491,297,495
494,494,491,419,494
494,493,491,559,494
494,494,490,711,494
494,493,489,830,494
494,495,492,820,495
494,494,493,740,496
494,495,492,555,495
493,495,492,388,495
493,496,492,246,494
493,494,492,199,494
493,494,490,207,494
494,492,492,248,494
494,494,492,340,495
494,493,490,476,493
494,493,491,617,493
494,494,489,778,494
494,492,491,836,494
494,494,490,805,495
494,496,492,665,496
493,495,492,472,495
493,495,492,320,496
494,495,491,223,493
494,495,491,197,493
493,494,492,222,495
494,495,490,283,494
494,493,490,396,494
494,494,489,536,495
494,493,490,689,495
494,493,490,820,494
494,493,490,827,495
494,493,491,761,494
493,495,492,578,494
493,495,492,407,496
493,495,493,261,495
493,494,492,204,495
493,495,492,204,495
493,493,491,239,495
494,494,490,327,495
494,493,491,461,493
494,493,489,600,495
494,493,490,758,494
494,493,491,836,495
494,494,491,809,494
494,495,492,689,495
494,495,493,502,496
493,496,492,343,495
494,495,492,228,494
493,493,490,193,494
494,494,491,216,493
494,495,492,270,493
494,494,490,379,494
494,493,491,518,493
494,493,490,663,493
494,494,490,809,494
494,495,491,830,495
494,494,492,775,495
494,495,491,606,496
494,496,492,426,495
493,495,493,277,494
493,495,492,209,494
493,495,493,200,495
494,494,492,232,494
494,495,491,312,494
494,494,491,436,494
494,493,490,577,493
494,492,490,739,494
494,494,490,835,494
494,494,490,816,497
494,494,493,715,496
494,495,491,521,496
493,494,492,362,494
493,495,492,236,494
493,494,492,196,494
494,494,491,210,494
494,494,489,260,494
494,492,490,363,494
494,493,491,500,494
494,495,491,640,493
494,493,489,798,494
494,494,492,835,494
494,494,493,794,494
493,496,493,635,495
493,495,492,450,495
493,496,492,299,495
493,495,491,214,494
493,494,491,198,494
494,495,491,227,494
494,494,490,299,494
494,493,490,421,494
494,493,491,561,494
494,493,490,715,494
494,493,490,831,494
494,493,492,821,494
494,494,491,739,495
493,495,493,549,496
494,494,492,384,496
493,495,492,246,495
493,494,491,199,494
494,494,491,206,494
494,493,491,249,495
494,495,492,345,494
494,494,491,480,494
494,493,490,623,495
494,493,489,780,495
494,494,491,836,496
494,494,492,804,495
494,494,491,662,496
494,495,492,474,495
493,495,492,322,494
494,495,491,219,494
494,495,491,193,494
493,493,491,222,495
493,493,491,285,494
494,493,490,402,494
494,493,490,542,494
494,493,489,692,494
494,494,491,823,494
494,494,490,825,494
494,495,491,759,494
494,495,492,575,495
493,494,493,403,496
493,495,492,257,496
493,494,491,202,494
493,494,492,202,493
494,495,491,240,494
494,494,491,328,494
494,494,491,462,494
494,492,490,604,494
494,494,490,762,494
494,493,491,839,494
494,494,492,812,496
494,495,491,687,494
494,495,493,496,495
493,495,492,339,496
493,495,492,226,495
493,494,491,194,493
494,493,491,217,495
494,495,490,273,495
494,493,490,381,494
494,493,490,520,493
494,493,489,666,494
494,493,490,812,494
494,494,490,832,495
494,494,491,775,496
494,495,493,602,497
493,494,493,423,496
493,494,492,275,494
494,496,492,209,495
493,495,492,201,494
494,494,491,234,494
494,494,491,316,494
494,494,491,440,494
494,493,490,580,494
494,493,490,743,495
494,493,490,836,495
494,493,492,817,496
494,495,491,712,494
494,496,492,522,495
493,496,494,361,494
493,494,491,235,493
494,494,493,193,494
493,495,492,213,494
494,493,491,261,494
494,493,491,362,494
494,493,491,500,495
494,493,491,644,494
494,493,491,801,496
494,494,491,835,496
494,494,491,793,496
494,494,491,631,497
494,496,493,444,495
493,495,492,293,494
493,495,491,214,494
493,494,491,199,494
494,494,492,230,494
494,494,491,301,495
494,493,491,421,494
494,493,489,564,494
494,492,490,719,493
494,494,490,832,495
494,494,491,820,494
494,494,491,738,495
493,496,493,544,496
493,495,492,381,495
493,495,492,245,494
494,494,492,200,494
493,494,492,209,494
494,494,491,252,493
494,494,491,349,494
494,494,491,485,494
494,494,491,625,494
494,494,490,782,494
494,493,490,836,495
494,493,493,803,496
494,496,492,658,496
494,495,492,469,495
493,496,492,317,495
494,496,492,220,496
493,495,490,195,493
494,494,492,223,494
493,493,493,288,494
494,493,491,403,494
494,494,491,542,494
494,494,491,696,493
494,493,490,826,494
494,495,490,827,494
494,495,492,756,494
493,495,493,571,495
493,495,492,399,494
493,495,493,255,494
493,494,492,201,494
493,494,491,205,494
494,494,491,241,495
493,495,489,331,495
494,493,491,465,495
494,493,491,606,494
494,493,490,767,494
494,493,491,839,494
494,495,489,810,494
494,495,491,687,495
494,496,493,493,496
493,495,493,335,495
493,495,491,224,494
493,495,491,195,493
493,495,491,219,494
494,495,492,274,494
494,494,492,385,494
494,493,491,525,494
494,495,490,672,494
494,493,490,813,495
494,494,490,831,496
494,494,493,771,495
494,496,493,597,495
494,496,491,418,494
493,496,491,272,495
493,494,492,208,495
493,494,492,201,493
493,495,491,236,495
494,494,490,319,494
494,493,491,443,494
494,493,489,584,495
494,493,490,746,495
494,494,491,839,495
494,494,491,817,496
494,495,492,711,496
494,496,492,514,495
494,495,493,355,496
493,495,492,236,495
493,496,492,196,494
493,494,492,214,495
494,494,492,266,494
494,494,490,368,494
494,494,490,506,495
494,493,490,648,494
494,493,491,803,495
494,494,490,835,496
494,494,490,791,494
494,495,492,627,495
494,495,492,447,495
494,495,491,295,495
493,494,491,212,494
493,494,491,197,494
493,494,493,228,494
494,494,491,303,493
494,494,491,427,494
494,493,490,568,495
494,493,490,724,495
494,493,491,832,494
494,494,492,821,494
494,496,491,733,495
494,496,492,541,495
494,495,492,378,495
493,495,492,241,494
493,495,492,199,494
494,494,491,209,493
494,494,491,254,494
494,494,491,350,494
494,493,491,486,494
494,493,490,627,494
494,493,491,786,495
494,493,490,835,494
494,493,492,802,495
494,495,492,652,496
494,496,493,464,496
494,495,492,310,494
493,495,491,218,494
494,494,493,195,494
493,494,491,224,494
493,494,493,288,494
494,494,492,407,494
494,492,492,547,494
494,494,490,700,495
494,495,490,828,495
494,495,491,825,495
494,496,492,755,495
494,495,492,567,495
493,496,492,397,495
493,496,493,253,494
493,494,491,201,494
493,495,491,205,493
493,495,490,242,493
494,495,491,334,494
494,494,490,463,494
494,494,491,604,495
494,493,490,770,494
494,494,491,838,495
494,495,492,811,494
494,495,493,680,496
494,496,492,484,495
493,495,493,330,495
493,496,492,227,493
494,494,492,196,493
494,495,491,219,494
494,493,490,277,493
494,493,491,384,494
494,494,490,522,493
494,493,491,680,495
494,494,491,818,494
494,494,492,831,496
494,494,492,771,495
493,495,493,597,496
493,495,492,414,496
494,495,492,267,494
494,495,493,209,493
494,496,491,202,494
494,494,492,236,495
493,493,490,320,493
494,494,490,446,493
494,493,490,587,495
494,492,490,751,495
494,494,490,838,494
494,494,491,815,495
494,495,493,707,495
494,495,492,513,495
494,495,493,351,495
493,494,493,232,494
494,494,491,196,494
494,494,491,212,493
493,495,491,264,495
494,494,491,369,494
494,494,490,508,493
494,493,490,651,493
494,495,491,805,495
494,493,491,835,495
494,495,491,788,494
494,494,494,622,496
493,495,492,440,495
493,496,493,291,495
493,494,492,211,494
493,494,492,199,493
493,495,492,231,494
494,495,490,305,493
494,494,491,428,493
494,493,491,568,494
494,491,491,728,493
494,494,491,835,494
494,495,491,821,495
494,495,491,730,496
494,495,493,538,495
493,496,493,376,494
493,495,492,242,494
493,494,492,197,494
494,495,492,210,494
494,495,492,255,494
494,494,492,351,494
494,494,491,490,494
494,494,490,632,494
494,494,490,791,494
494,493,492,838,495
494,494,490,803,496
494,496,492,651,496
493,496,493,461,495
493,495,492,309,495
493,495,491,216,493
493,494,493,197,494
494,495,491,224,494
494,495,492,291,493
494,493,491,410,494
494,493,491,550,492
494,494,490,705,494
494,493,490,830,495
494,493,492,826,494
494,495,493,752,497
494,496,493,564,495
493,495,492,395,495
493,495,493,249,495
493,495,493,200,494
494,494,491,205,493
494,493,492,243,493
494,493,491,337,494
494,494,491,471,494
494,493,490,611,494
494,495,490,772,493
494,494,491,838,495
494,494,491,807,495
494,494,492,676,496
493,495,493,482,495
493,495,492,328,495
493,495,492,225,493
494,494,492,195,494
494,494,490,218,494
494,494,491,279,493
493,493,491,390,494
494,494,490,528,494
494,493,490,681,493
494,494,490,817,495
494,495,491,829,495
494,493,491,767,496
494,495,492,591,495
493,495,492,415,496
494,495,493,269,495
493,495,492,205,494
493,494,492,200,493
494,494,492,237,493
494,494,491,322,494
494,493,491,452,494
494,495,491,593,495
494,495,490,753,495
494,494,490,839,495
494,494,491,817,496
494,495,491,703,496
493,495,492,510,496
493,495,494,350,495
493,495,491,230,495
493,494,492,194,495
493,494,493,214,494
493,494,491,265,494
494,495,491,372,494
494,494,491,512,494
494,492,491,655,494
494,494,491,808,494
494,494,491,834,496
494,495,492,786,495
493,495,492,618,496
494,496,493,434,495
493,495,491,285,495
493,494,492,211,494
493,495,493,200,495
493,496,493,231,495
494,494,492,308,493
494,494,490,432,494
494,494,491,573,494
494,493,492,732,494
494,493,491,835,495
494,495,491,820,494
494,496,492,727,496
494,496,492,534,496
493,496,493,372,496
493,496,492,240,495
493,495,492,199,494
493,494,491,210,496
494,494,492,256,495
494,494,492,356,495
494,493,491,493,495
494,494,490,634,494
494,494,490,793,494
494,495,491,836,495
494,496,492,800,496
494,495,492,646,495
493,496,493,459,496
493,495,492,307,495
493,496,492,216,495
493,496,492,195,494
494,494,491,224,494
493,495,491,293,494
493,494,491,411,494
494,492,492,554,494
494,494,491,708,495
494,494,490,830,495
494,494,492,825,495
494,496,492,747,496
494,497,493,560,497
494,496,492,390,496
493,495,492,248,495
493,495,491,199,493
493,494,492,207,496
493,494,491,246,494
493,494,492,338,494
494,494,492,473,495
494,494,490,616,494
494,494,490,775,495
494,493,491,837,496
494,494,492,809,496
494,495,492,674,495
494,495,492,480,495
493,496,492,327,495
493,495,492,223,495
493,495,493,196,495
494,495,492,221,495
493,493,491,280,495
494,495,492,394,493
494,493,490,533,494
494,494,490,683,493
494,494,490,818,494
494,494,492,829,496
494,495,490,766,496
494,496,492,586,496
494,495,492,411,495
493,495,492,265,496
493,495,493,203,494
493,495,492,201,494
493,494,491,237,494
493,494,491,325,494
494,495,490,454,494
494,494,490,595,494
494,493,491,754,494
494,495,491,838,495
494,495,492,815,495
494,494,493,698,496
494,496,492,505,496
494,496,493,348,495
493,496,493,229,495
493,495,491,194,495
494,494,493,214,495
493,494,492,268,494
494,494,492,373,494
494,495,492,514,494
494,494,490,658,494
494,494,490,810,495
494,495,492,833,496
494,495,491,784,495
494,496,492,614,496
493,496,494,432,495
493,495,492,281,495
493,495,491,209,494
494,495,492,198,494
493,495,493,231,495
494,494,492,309,494
494,495,491,434,494
494,494,492,575,495
494,495,491,735,493
494,494,490,836,495
494,494,492,819,495
494,494,491,722,495
493,495,492,530,495
494,496,492,369,496
493,496,492,237,496
494,495,492,196,496
493,494,493,209,495
494,495,492,256,494
494,494,491,360,494
494,494,490,499,494
494,494,490,638,494
494,493,491,796,495
494,494,491,836,495
494,495,491,798,495
494,496,492,642,496
494,496,493,457,496
494,496,492,305,495
493,495,492,214,494
493,494,491,196,494
494,494,492,225,494
493,496,491,295,494
494,494,491,418,494
494,494,491,558,495
494,493,491,709,494
494,493,490,830,495
494,494,493,823,495
494,496,491,744,496
494,495,492,554,496
493,495,493,390,496
493,496,493,248,494
493,495,492,199,495
493,495,492,206,494
493,494,492,248,494
494,494,491,341,495
494,494,491,476,495
494,494,492,618,493
494,493,491,778,494
494,494,491,838,496
494,495,491,806,495
494,495,492,669,496
493,496,493,478,496
494,495,493,326,495
493,495,492,221,495
493,495,491,194,495
493,495,492,219,495
493,495,492,282,494
494,495,491,397,494
494,495,491,537,494
494,494,491,686,494
494,494,490,820,495
494,494,494,827,495
494,494,492,764,496
493,496,492,582,495
493,496,494,408,495
494,496,493,261,494
494,495,492,203,495
493,495,493,203,494
493,494,492,239,494
494,494,492,327,494
494,493,491,460,493
494,494,490,600,494
494,493,490,758,495
494,494,490,836,495
494,495,490,811,495
494,495,493,693,494
494,497,494,499,496
494,497,494,342,496
493,495,492,228,496
493,494,491,195,495
493,494,492,216,493
494,494,491,269,494
494,495,491,376,494
494,493,491,512,495
494,493,490,661,494
494,493,491,811,495
494,494,492,833,495
494,494,491,783,497
494,495,492,610,496
494,495,493,428,496
494,495,493,279,493
493,495,492,211,493
494,495,491,200,495
494,496,492,234,494
494,494,492,314,494
494,494,491,438,495
494,494,489,578,495
494,493,491,739,496
494,494,491,838,496
494,493,493,821,496
494,495,492,720,496
494,495,492,527,496
493,495,492,367,495
493,495,493,238,495
493,495,492,197,495
494,495,490,212,494
493,494,493,258,495
494,494,492,359,494
494,493,491,495,493
494,493,491,639,494
494,493,490,798,494
494,494,491,837,494
494,493,492,798,496
494,495,493,638,495
494,495,493,446,495
494,495,493,295,495
493,494,493,216,495
494,494,492,199,494
494,494,492,227,494
494,495,491,299,494
494,493,491,415,493
494,493,491,557,495
494,493,489,716,494
494,494,491,835,495
494,496,490,825,497
494,493,493,744,497
494,496,492,550,496
494,494,494,382,496
493,496,493,249,494
493,494,493,202,494
493,494,492,209,494
494,495,492,251,495
494,494,491,346,494
494,494,490,479,495
494,494,491,619,495
494,493,490,782,494
494,494,490,839,494
494,493,491,806,495
494,495,493,664,496
493,496,492,476,495
493,496,493,323,496
494,496,492,222,494
493,494,492,195,494
494,494,493,223,494
493,494,492,286,495
494,494,491,404,493
494,495,491,541,494
494,493,490,689,493
494,494,490,823,495
494,493,491,827,493
494,493,493,758,496
494,495,493,580,495
493,496,492,407,496
493,495,492,260,494
493,494,492,201,494
493,495,492,203,495
494,495,492,240,494
494,494,491,329,494
494,494,492,460,493
494,494,491,602,493
494,494,491,764,495
494,494,491,840,496
494,494,490,812,496
493,494,492,706,496
494,495,492,541,495
493,495,493,384,494
493,495,492,245,494
494,495,493,178,494
493,495,493,204,494
493,494,491,266,494
494,494,490,409,494
494,494,491,555,495
494,494,492,689,494
494,494,491,788,494
494,494,490,812,495
494,494,490,762,496
494,495,492,620,495
494,495,492,458,495
494,496,492,308,495
493,495,492,194,493
493,494,492,177,494
494,495,491,212,495
494,494,491,319,494
494,494,492,470,494
494,495,492,610,494
494,494,491,734,494
494,494,490,813,495
494,495,491,797,496
494,495,491,708,495
494,494,492,548,496
494,495,493,393,496
494,495,493,251,495
493,494,492,168,493
494,495,491,189,494
494,494,492,245,494
494,494,491,380,493
494,493,491,530,494
494,494,491,668,495
494,493,491,771,495
494,494,491,811,495
494,496,493,776,495
494,496,493,642,496
493,495,492,477,496
494,495,493,328,495
493,496,492,202,495
494,495,492,172,494
494,493,492,206,493
494,494,491,298,494
494,493,491,446,493
494,494,490,591,495
494,493,491,720,495
494,494,491,807,495
494,493,492,801,496
494,495,490,728,496
494,496,493,569,496
493,496,494,414,496
493,495,493,267,495
493,495,492,171,493
494,493,492,184,494
494,495,492,233,494
494,494,491,360,494
494,494,491,513,495
494,493,491,649,495
494,493,491,758,494
494,494,491,812,495
494,495,490,783,495
494,495,493,663,496
493,496,493,500,496
494,495,493,349,494
493,495,493,218,494
493,494,493,170,495
494,495,491,201,494
494,494,491,278,494
494,494,491,428,494
494,493,491,571,494
494,494,491,703,494
494,494,492,798,494
494,495,492,804,496
494,495,491,740,495
494,495,493,592,495
493,496,493,434,495
494,496,493,286,495
493,495,493,178,496
494,494,492,178,495
494,494,493,221,494
494,494,492,339,494
494,494,491,490,493
494,493,491,632,494
494,493,490,749,495
494,495,491,816,495
494,493,491,791,496
494,494,492,684,496
494,495,493,522,496
494,496,492,368,496
493,495,493,232,495
493,495,492,168,493
494,494,492,195,494
494,494,492,261,494
494,494,491,404,494
494,494,491,551,494
494,493,492,688,495
494,494,491,784,495
494,495,493,808,495
494,494,491,756,496
494,495,492,615,496
494,496,492,453,495
493,496,493,304,496
493,495,493,190,494
494,494,492,176,494
494,495,492,213,494
494,494,492,319,494
494,495,490,472,494
494,494,490,612,494
494,494,491,735,493
494,494,490,811,494
494,495,492,793,495
494,494,491,704,495
494,495,493,543,495
493,495,491,387,495
494,495,492,247,495
493,495,493,168,494
494,494,492,189,494
494,495,492,246,494
494,493,490,383,493
494,494,493,533,494
494,493,492,670,494
494,494,491,772,495
494,495,492,811,496
494,493,492,771,494
494,496,491,637,495
493,496,492,474,496
494,495,493,325,495
493,495,493,202,494
493,494,492,172,495
494,493,492,207,494
494,495,492,300,494
494,494,491,450,493
494,494,492,592,495
494,494,490,721,494
494,493,491,808,494
494,495,493,800,495
494,494,492,724,496
494,495,493,567,495
494,495,493,410,496
494,495,492,265,494
493,495,493,171,494
493,494,492,185,495
494,494,492,237,493
494,494,491,362,494
494,493,491,514,495
494,494,491,654,494
494,493,491,762,495
494,495,491,812,494
494,494,492,782,496
494,495,492,659,496
494,495,492,495,496
494,496,493,344,495
493,496,493,213,495
493,495,493,169,493
494,494,492,201,494
493,494,492,281,494
494,494,492,430,495
494,493,492,574,494
494,494,492,705,493
494,494,491,800,494
494,496,491,803,494
494,495,492,740,495
494,495,492,588,495
494,495,492,429,495
494,496,493,280,495
493,495,493,175,495
494,495,491,182,494
494,494,492,222,494
494,494,491,341,494
494,494,491,494,494
494,493,491,632,494
494,494,491,747,495
494,494,492,815,496
494,494,492,787,495
494,495,492,681,495
493,495,494,519,496
493,495,493,365,495
493,496,492,230,495
493,494,491,169,494
494,495,491,196,494
494,494,493,265,494
494,493,491,408,494
494,494,491,552,494
494,494,491,688,494
494,494,492,787,495
494,494,492,806,495
494,495,493,755,495
493,495,492,612,495
494,494,492,451,495
493,495,493,301,495
493,496,493,186,494
493,494,491,177,495
494,494,492,215,495
494,494,491,321,494
494,494,492,473,493
494,494,490,614,493
494,495,492,736,495
494,493,492,811,495
494,494,492,795,495
494,495,493,703,496
493,495,493,541,496
494,496,493,387,495
493,495,494,245,496
493,495,492,169,494
494,494,493,190,494
494,495,491,250,494
494,494,491,385,493
494,493,492,536,494
494,494,491,673,495
494,493,491,777,495
494,494,492,810,495
494,495,492,771,495
494,495,493,634,495
494,495,493,471,495
493,495,493,320,495
493,494,492,199,495
493,494,493,174,494
494,495,494,208,494
494,495,491,304,494
494,494,491,455,493
494,494,491,595,493
494,493,490,722,495
494,494,491,810,494
494,494,491,800,495
494,495,492,723,495
493,495,492,563,495
493,495,493,409,494
493,496,494,263,494
493,494,493,173,494
494,495,493,186,493
494,494,490,238,493
494,493,491,366,494
493,494,493,516,494
494,494,492,652,494
494,494,492,761,494
494,494,492,813,496
494,494,492,781,495
494,495,493,656,496
493,495,492,494,495
493,495,493,341,495
493,494,492,212,495
493,494,492,170,494
494,494,491,201,494
493,494,492,281,493
494,494,492,430,494
494,494,491,575,493
494,494,489,706,494
494,493,491,804,495
494,493,492,804,494
494,494,492,740,495
494,495,492,587,495
493,495,493,426,495
494,495,493,279,494
493,495,492,172,494
494,494,492,181,494
494,494,492,224,494
494,494,491,344,493
494,494,492,496,493
494,494,491,636,494
494,494,492,750,493
494,494,491,815,494
494,494,491,789,494
494,495,493,677,495
493,495,493,516,495
493,495,493,362,494
493,495,493,226,494
493,494,494,169,494
494,494,491,197,494
494,494,491,266,495
494,494,492,411,493
494,494,491,557,494
494,494,491,689,493
494,494,491,787,494
494,494,493,806,494
494,494,493,753,496
494,495,492,607,496
494,496,492,447,497
493,495,493,298,495
493,495,492,185,493
493,494,492,179,494
494,495,493,215,493
494,494,492,325,494
494,494,491,477,493
494,493,493,616,493
494,494,491,738,494
494,493,492,814,495
494,495,492,794,494
494,495,493,700,495
493,495,492,537,495
494,495,494,382,495
493,495,493,243,494
493,495,492,168,494
494,493,491,190,494
494,494,492,252,494
494,493,490,389,494
494,495,491,537,494
494,494,492,675,494
494,494,490,779,495
494,494,491,811,494
494,495,492,770,495
494,494,492,632,495
493,495,494,466,494
493,495,493,316,494
493,494,493,195,494
493,494,492,174,494
494,494,491,210,494
494,494,491,306,494
494,493,491,457,493
494,494,490,599,494
494,494,491,725,494
494,494,491,811,494
494,495,492,798,495
494,494,492,720,495
493,494,492,561,495
493,495,492,405,495
493,495,493,259,495
493,495,493,172,494
493,494,493,188,495
494,494,492,239,494
494,494,491,370,494
494,493,492,519,494
494,493,491,657,494
494,493,491,763,495
494,495,492,815,495
493,493,491,780,495
494,495,493,654,495
493,495,492,490,496
493,495,493,338,495
493,495,493,211,494
493,495,492,172,494
494,494,491,202,494
494,494,491,287,494
494,493,493,435,493
494,493,492,578,494
494,494,491,708,495
494,493,493,804,495
494,495,491,802,496
494,494,492,736,495
493,495,493,583,495
493,495,493,425,494
493,496,494,277,493
493,495,493,173,492
493,494,492,181,494
494,494,492,226,494
494,494,492,347,494
494,494,490,497,494
494,493,491,639,494
494,495,491,752,495
494,494,491,815,495
494,494,493,788,495
494,494,492,677,495
494,496,492,512,495
493,495,493,359,495
493,496,493,222,494
493,494,492,169,493
494,495,491,198,494
494,494,492,269,493
494,492,493,412,494
494,495,490,556,494
494,494,492,693,494
494,494,492,794,495
494,494,491,808,494
494,495,493,755,495
494,496,495,606,494
494,494,492,443,495
493,494,493,292,495
493,496,494,180,493
494,495,492,177,494
494,494,494,217,494
494,493,491,324,494
494,493,491,477,493
494,493,492,617,494
494,494,491,734,495
494,493,491,813,495
494,495,491,792,495
494,495,492,684,495
494,495,494,484,496
493,495,493,303,496
493,495,491,228,496
493,495,493,190,493
494,497,491,209,493
494,494,493,265,494
493,494,492,365,493
494,493,491,472,494
494,493,491,657,494
494,493,492,810,494
494,494,492,835,494
494,497,491,787,494
494,495,492,619,494
493,496,493,413,495
493,495,493,277,494
493,495,492,216,494
493,494,493,203,495
493,494,492,234,494
494,495,493,310,493
494,493,492,420,493
494,494,493,543,493
494,493,490,739,494
494,493,491,841,495
494,495,492,839,495
494,494,492,747,497
493,494,493,546,495
493,496,493,395,494
493,495,493,253,494
493,495,493,190,494
494,496,492,203,492
494,495,493,249,493
494,496,492,350,493
494,494,492,503,494
494,494,491,646,494
494,494,491,787,494
494,493,491,832,495
494,496,492,796,495
494,494,492,661,495
494,496,493,454,494
494,495,492,310,495
493,495,493,211,494
493,494,492,193,493
493,494,492,222,494
494,495,492,290,493
494,494,492,404,494
494,493,490,549,494
494,493,491,708,494
494,494,491,829,495
494,494,491,824,496
494,495,492,749,495
493,495,493,576,495
493,495,493,413,495
493,495,492,264,495
493,495,493,194,493
493,495,493,201,494
494,495,493,243,493
494,494,491,365,493
494,494,492,515,493
494,494,492,652,494
494,494,491,764,494
494,495,493,823,495
494,493,494,795,494
494,495,492,678,495
494,495,493,515,494
493,496,492,364,494
493,495,494,227,494
493,495,492,172,494
493,494,492,199,493
494,494,492,268,493
494,494,491,403,493
494,494,492,539,493
494,494,492,673,494
494,493,491,804,494
494,494,491,815,494
494,493,492,755,495
493,495,493,581,495
493,495,494,407,494
493,496,493,259,494
493,494,492,196,494
493,495,492,195,494
494,494,493,232,494
494,494,492,319,494
494,494,492,444,493
494,494,492,588,493
494,493,491,756,494
494,495,492,837,495
494,495,491,815,496
494,495,493,697,495
493,497,494,498,495
494,494,493,338,494
493,495,492,232,494
493,494,492,195,494
494,495,493,216,493
493,494,492,269,493
494,495,491,373,493
494,493,492,514,493
494,493,492,659,494
494,493,491,809,495
494,495,492,832,493
494,496,491,785,495
494,495,493,618,495
493,496,494,445,494
493,495,492,295,495
493,495,492,207,494
494,495,492,197,494
494,494,493,229,495
494,495,492,312,493
494,494,492,452,494
494,493,490,589,494
494,494,491,726,494
494,493,491,831,494
494,496,490,813,494
494,494,491,719,495
493,495,493,544,495
493,495,493,385,494
493,495,493,238,495
493,495,492,190,494
493,496,492,204,494
494,493,491,252,493
494,494,491,361,494
494,494,493,502,494
494,493,492,641,494
494,494,491,788,495
494,495,491,832,494
494,493,492,794,494
494,494,491,639,495
493,494,493,455,493
493,495,494,303,494
493,495,492,212,493
493,494,493,194,493
494,495,492,224,493
494,494,493,293,494
494,494,491,410,494
494,493,490,553,493
494,493,491,713,493
494,494,491,831,495
494,495,492,825,495
494,495,491,747,496
493,496,493,554,496
494,495,493,387,495
493,495,494,249,494
493,494,492,199,494
493,495,493,207,493
494,494,492,248,494
494,493,493,343,493
494,494,492,479,494
494,493,491,621,494
494,493,491,778,494
494,494,491,839,494
494,496,491,807,495
494,494,492,669,495
493,495,493,484,494
493,494,493,331,494
493,495,494,221,494
493,494,492,195,495
493,493,493,219,494
494,494,493,281,493
494,494,491,404,493
494,493,491,543,493
494,494,491,683,493
494,494,491,819,494
494,494,491,826,494
494,495,492,762,495
494,495,493,586,495
493,495,493,416,494
493,495,492,266,495
493,494,492,202,493
493,494,492,202,495
494,494,492,237,494
494,494,492,325,493
494,493,492,457,493
494,493,490,597,494
494,492,490,758,495
494,492,491,837,495
494,494,490,813,494
494,494,492,694,495
493,495,492,499,494
493,496,493,340,494
493,494,492,230,495
493,494,493,194,493
493,496,492,216,494
494,493,493,270,493
494,494,494,375,494
494,493,491,515,494
494,494,491,665,494
494,494,491,813,494
494,493,492,832,494
494,496,492,784,495
494,495,492,612,496
493,495,493,430,495
493,495,493,283,494
493,494,494,211,494
494,494,492,201,493
494,494,492,234,494
494,494,491,314,493
494,494,492,443,493
494,494,492,583,495
494,494,490,737,494
494,493,491,837,494
494,494,492,818,494
494,494,492,718,494
493,495,493,530,495
493,495,493,369,495
493,496,493,236,494
493,494,493,196,494
494,494,491,208,493
494,494,491,258,494
494,494,491,361,493
494,493,490,500,493
494,493,492,640,494
494,494,491,795,494
494,494,492,835,495
494,493,492,796,494
494,495,492,637,495
493,495,492,451,495
493,495,493,302,495
493,494,491,215,493
493,494,494,198,493
493,494,492,226,493
494,494,491,298,494
494,494,492,417,494
494,493,491,559,494
494,494,490,716,494
494,494,492,832,495
494,494,492,825,495
494,495,492,744,495
493,496,493,553,496
493,496,492,387,494
493,496,493,249,494
493,494,492,201,494
494,494,492,208,494
494,495,491,249,494
494,494,492,342,494
494,494,492,479,494
494,494,493,622,495
494,494,491,781,494
494,494,492,837,495
494,494,493,807,494
493,495,493,665,495
493,495,493,477,494
493,495,493,323,495
493,495,493,221,494
494,495,493,195,494
494,494,491,222,493
493,493,492,282,493
494,494,493,401,493
494,493,491,541,494
494,493,491,691,494
494,494,490,822,495
494,496,492,828,495
494,495,491,760,495
494,496,492,581,495
493,495,493,406,495
493,495,493,259,494
493,494,493,203,494
493,495,492,204,494
494,493,493,239,495
494,494,492,327,493
494,493,490,460,494
494,495,490,601,493
494,494,491,761,494
494,494,491,839,494
494,493,493,813,495
494,494,492,691,495
494,495,492,498,495
493,495,493,341,495
493,495,493,229,494
493,494,493,196,493
493,494,492,216,494
494,494,492,272,493
494,494,492,381,493
494,494,492,519,494
494,494,491,666,493
494,493,491,813,495
494,493,491,832,496
494,496,491,780,496
494,494,492,606,496
493,495,492,429,496
493,495,493,280,494
493,494,491,208,494
493,495,493,200,493
494,495,493,234,494
493,493,492,314,493
494,493,492,437,494
494,493,491,580,494
494,493,491,741,493
494,495,491,836,495
494,494,491,818,496
494,494,491,718,496
493,497,493,521,495
493,495,493,362,495
493,496,493,237,494
493,494,492,196,495
494,494,493,213,494
494,494,491,261,493
494,495,491,362,494
494,494,490,501,493
494,494,491,644,493
494,494,491,799,494
494,493,492,837,494
494,493,491,796,495
494,495,492,636,495
493,496,493,453,494
493,496,492,302,494
493,495,493,213,494
493,495,492,198,493
494,494,491,227,494
494,495,493,299,494
494,494,492,425,495
494,494,491,564,493
494,494,491,717,494
494,494,491,833,494
494,494,494,823,496
494,496,492,740,496
493,495,493,549,496
494,495,493,385,495
493,496,492,246,494
493,495,493,200,495
494,494,493,208,494
494,494,492,251,495
494,494,491,345,493
494,494,491,481,494
494,494,491,621,493
494,493,492,782,494
494,495,492,836,494
494,496,492,806,495
494,495,493,662,496
493,496,492,472,496
493,496,492,320,495
493,495,493,221,494
493,496,492,196,494
494,494,491,223,495
494,494,492,287,494
494,494,492,401,493
494,493,492,540,494
494,493,490,693,495
494,493,491,826,493
494,496,493,826,494
494,495,494,758,494
493,494,492,575,496
493,495,492,401,496
493,496,492,257,493
494,495,491,203,495
494,493,494,204,494
494,495,492,241,494
494,495,493,329,493
494,493,493,454,494
494,493,491,597,494
494,492,493,767,492
494,495,491,842,492
494,494,493,814,496
494,494,493,691,495
493,497,491,486,494
493,495,492,324,494
494,495,491,233,494
493,497,491,198,493
493,495,494,223,496
494,492,493,273,495
494,496,494,381,493
494,492,492,509,492
494,494,489,671,495
494,493,493,816,492
494,493,491,836,492
494,496,492,775,493
494,494,492,602,494
493,495,492,410,493
494,496,492,269,495
494,493,494,212,492
494,496,491,205,495
494,494,494,238,495
494,492,493,317,493
494,493,493,432,492
494,492,492,572,495
494,494,491,750,492
494,495,492,841,494
494,495,489,820,495
494,495,493,717,495
493,496,493,517,495
493,494,493,354,494
493,494,493,241,495
493,495,493,200,494
494,494,492,216,494
494,494,491,265,494
494,495,492,365,493
494,495,491,504,494
494,494,491,648,494
494,494,490,803,494
494,494,492,838,494
494,494,493,796,495
494,496,492,635,495
493,496,492,459,494
494,495,493,306,494
493,496,493,211,494
493,495,493,197,493
494,494,493,228,493
494,493,491,301,493
494,494,491,432,494
494,493,492,569,493
494,494,491,718,494
494,494,491,831,494
494,493,493,821,495
494,494,492,735,495
493,496,493,542,495
493,495,493,379,495
493,495,493,243,493
493,495,493,199,493
493,495,493,209,493
494,494,492,253,494
494,494,492,347,495
494,493,491,478,494
494,493,492,619,492
494,494,491,785,494
494,495,493,838,493
494,495,492,804,494
493,495,492,660,496
493,495,494,461,496
493,496,493,311,496
493,494,492,225,494
493,495,492,199,494
494,494,492,224,494
493,495,492,291,493
494,495,491,402,493
494,494,492,543,494
494,494,490,700,494
494,494,492,829,495
494,495,492,831,494
494,496,493,758,495
493,495,492,576,495
493,496,493,408,495
493,495,493,261,494
493,495,493,202,493
493,495,493,204,494
494,495,494,242,494
494,495,492,337,494
494,494,491,475,494
494,493,491,615,493
494,494,492,765,494
494,494,492,837,495
494,496,494,809,496
494,495,493,685,496
493,495,493,503,495
493,496,492,345,495
493,495,493,222,494
493,495,492,191,493
494,494,494,216,494
493,494,492,273,494
494,494,492,387,493
494,493,491,526,493
494,494,491,671,493
494,494,491,811,494
494,494,492,829,494
494,495,492,772,494
494,495,492,597,494
493,495,494,418,494
493,494,493,270,494
493,494,492,207,494
494,494,493,201,494
494,495,493,234,494
494,493,492,317,494
494,495,491,443,493
494,494,491,583,494
494,494,491,746,494
494,494,491,838,495
494,496,491,819,495
493,496,493,710,495
493,496,492,514,495
494,495,492,356,495
493,496,494,236,493
493,495,492,197,494
493,494,492,214,494
493,494,492,264,494
494,494,491,366,494
494,494,491,504,493
494,494,490,645,493
494,493,492,803,494
494,493,492,836,496
494,495,493,793,495
493,496,494,628,495
494,495,493,449,495
493,496,492,297,494
493,495,492,212,494
493,495,493,198,494
493,495,492,228,493
493,495,492,304,492
494,495,491,431,492
494,495,492,569,493
494,494,491,724,494
494,493,492,833,495
494,494,491,821,494
494,495,491,733,495
493,496,493,546,495
494,495,493,382,494
493,495,493,242,494
493,495,491,198,493
493,495,492,207,494
494,494,492,253,493
494,494,492,349,495
494,495,492,486,493
494,494,491,627,493
494,493,490,787,494
494,495,491,838,495
494,495,493,804,494
494,495,492,655,495
494,496,493,464,495
493,495,492,310,494
493,495,493,220,494
493,494,491,196,494
493,495,492,224,494
494,494,491,289,493
494,494,492,405,493
494,494,492,547,492
494,495,492,700,493
494,495,492,826,494
494,495,490,825,495
494,494,493,753,496
494,496,493,569,496
493,495,494,400,495
493,495,493,255,494
493,494,493,202,494
494,494,493,205,494
494,494,493,242,493
494,494,493,335,493
494,495,491,471,494
494,494,491,610,494
494,494,491,770,495
494,494,491,839,495
494,495,492,810,495
494,495,493,682,496
493,496,492,494,495
493,495,493,339,495
493,496,492,224,494
493,494,493,194,494
494,495,492,218,494
493,494,493,277,493
494,494,492,389,493
494,495,492,527,493
494,494,491,675,494
494,493,491,814,494
494,494,492,830,494
494,494,492,769,495
494,496,493,595,495
493,496,493,418,495
493,496,493,271,494
493,495,492,207,494
494,495,492,201,494
494,494,492,235,494
494,494,493,319,493
494,495,491,447,494
494,494,491,589,494
494,493,492,751,494
494,494,491,838,494
494,494,492,817,495
494,496,492,705,496
493,496,493,515,495
493,496,492,354,495
493,496,494,234,494
493,495,493,195,493
494,495,491,212,494
494,494,492,265,494
494,494,492,371,494
494,495,492,510,495
494,494,491,650,494
494,493,492,805,494
494,494,492,834,494
494,494,491,788,495
494,495,493,624,496
493,495,493,443,494
493,495,493,292,495
493,496,492,213,494
493,496,493,199,493
493,495,491,229,493
494,494,491,305,494
494,494,491,431,494
494,494,490,569,492
494,494,491,725,494
494,494,491,833,495
494,494,490,821,495
494,494,492,730,496
493,496,492,539,496
493,495,493,377,495
494,497,494,242,494
493,495,492,198,494
493,495,491,210,494
494,494,492,254,494
494,494,491,353,493
494,494,491,489,494
494,495,491,629,495
494,494,491,789,494
494,494,492,837,495
494,495,492,801,495
493,495,493,652,496
493,496,493,464,495
493,496,493,312,494
493,495,492,219,494
494,495,492,196,493
493,495,492,224,494
493,494,491,291,494
494,494,491,410,493
494,495,492,551,494
494,494,491,706,494
494,493,491,829,495
494,494,491,827,495
494,496,492,753,495
494,496,493,567,496
493,496,493,398,495
493,496,493,252,494
493,496,493,199,494
494,495,492,206,494
494,495,493,244,494
494,494,491,336,494
494,494,491,473,494
494,494,493,614,494
494,494,490,769,493
494,493,492,840,494
494,495,492,809,495
494,495,492,677,495
494,496,493,486,495
493,495,494,332,495
493,495,493,225,494
493,495,493,195,494
493,495,492,220,495
494,495,492,278,493
494,494,492,391,494
494,494,491,529,495
494,495,490,676,495
494,494,491,816,495
494,494,492,829,495
494,495,492,767,496
494,495,493,593,495
494,495,492,418,494
493,495,492,271,494
493,495,493,207,494
494,495,492,202,494
494,496,492,236,494
493,494,492,321,494
494,494,491,451,494
494,495,491,592,495
494,493,492,750,494
494,495,490,837,495
494,494,493,816,495
494,495,492,705,496
494,496,493,513,495
494,496,493,352,495
493,495,493,233,493
493,495,492,195,493
493,494,490,215,493
493,495,492,267,495
494,495,492,373,494
494,494,491,509,494
494,493,491,657,494
494,493,490,807,495
494,495,492,833,494
494,495,493,788,495
494,496,493,621,495
494,496,493,437,495
493,495,494,289,495
493,495,492,212,495
493,494,492,200,494
494,494,491,232,494
494,494,491,307,494
494,495,492,432,493
494,494,491,572,494
494,494,491,729,494
494,494,492,835,495
494,495,493,821,496
494,495,492,728,496
494,496,493,536,496
493,496,493,374,495
493,495,493,241,494
493,495,492,199,494
493,495,492,209,493
494,495,492,255,492
494,494,491,357,493
494,494,491,494,494
494,494,491,634,494
494,493,491,789,494
494,494,491,836,494
494,494,491,798,497
493,495,492,648,496
494,496,494,463,495
493,495,493,310,495
493,495,493,218,494
494,494,492,198,493
493,494,492,225,494
494,495,494,294,494
494,494,491,409,494
494,494,491,550,494
494,494,491,707,494
494,493,491,830,494
494,494,491,823,496
494,495,492,752,496
494,495,493,561,496
494,496,492,392,495
493,496,493,252,494
493,494,492,201,494
494,495,492,206,493
494,495,492,247,493
494,494,491,338,493
494,493,491,472,494
494,494,491,615,494
494,493,490,776,495
494,494,493,840,494
494,494,494,810,495
494,495,493,675,495
494,496,492,487,495
493,496,493,334,495
494,495,493,223,494
493,495,493,195,494
494,495,492,220,494
494,494,491,280,494
494,494,492,398,494
494,494,491,536,495
494,494,491,681,495
494,494,490,815,494
494,494,492,828,496
494,494,492,765,495
494,496,492,588,495
494,495,493,416,495
494,495,493,269,496
493,496,493,205,494
493,494,492,201,495
493,494,492,237,494
494,495,491,324,493
494,494,490,454,495
494,493,493,593,494
494,493,491,752,494
494,494,491,838,495
494,494,491,816,495
494,495,494,700,495
493,495,493,507,496
493,495,493,349,495
493,495,493,232,494
493,495,494,195,494
494,494,492,216,494
493,494,492,268,494
494,495,492,375,494
494,493,492,513,494
494,495,492,657,494
494,495,491,809,495
494,494,492,834,495
494,493,492,787,496
494,496,493,617,495
494,496,493,438,495
493,496,493,288,495
493,494,493,210,494
493,494,492,199,495
494,494,492,232,494
494,494,492,309,494
494,494,492,436,494
494,494,492,575,493
494,494,491,733,493
494,493,491,834,494
494,495,492,818,495
494,495,492,725,496
494,495,493,533,496
494,497,491,372,496
494,497,492,239,495
493,495,493,197,493
493,495,493,212,494
494,495,493,258,494
494,494,491,356,494
494,494,491,491,495
494,493,492,633,494
494,493,491,795,494
494,496,493,837,493
494,496,493,801,496
494,496,492,646,496
494,495,493,454,495
494,496,492,302,494
493,496,493,219,495
494,494,492,198,495
494,495,492,227,495
493,495,491,295,493
494,495,492,412,494
494,493,491,553,494
494,495,491,710,494
494,493,492,832,494
494,495,493,823,496
494,496,493,749,496
493,496,493,559,495
494,495,493,393,495
493,495,493,250,494
493,495,493,201,493
493,495,493,206,495
494,495,492,248,494
494,494,493,343,494
494,493,491,480,495
494,494,491,618,494
494,493,492,775,493
494,495,491,837,494
494,494,492,807,495
494,495,493,671,495
494,496,493,485,496
494,495,494,331,494
493,494,492,223,495
493,495,493,193,494
494,495,491,219,494
494,494,492,280,494
494,494,492,396,494
494,493,492,535,495
494,494,491,684,494
494,494,492,818,495
494,495,491,829,495
494,495,493,765,495
494,495,493,584,496
494,496,494,410,496
493,495,494,263,494
493,495,493,205,494
493,495,493,204,494
494,494,493,239,494
494,494,492,325,494
494,495,493,454,493
494,494,491,596,494
494,495,490,756,494
494,494,493,840,495
494,494,492,815,495
494,494,494,698,496
494,496,493,504,495
493,496,493,346,495
493,495,492,230,494
493,494,493,196,494
494,495,492,217,494
494,495,492,269,493
494,495,491,379,494
494,493,491,515,494
494,494,491,659,494
494,493,491,810,494
494,494,491,833,494
494,495,492,783,494
494,495,493,615,495
493,495,492,435,495
493,495,493,287,495
493,496,492,211,494
493,496,491,199,495
494,494,491,233,495
494,494,493,311,493
494,494,492,437,493
494,493,491,574,494
494,493,491,734,494
494,494,490,836,495
494,494,490,819,494
494,495,494,722,496
494,496,494,527,495
493,496,493,366,495
493,496,493,241,495
493,495,492,197,494
494,494,492,212,494
494,495,492,259,493
494,495,492,358,494
494,495,491,495,494
494,494,491,637,494
494,495,491,797,495
494,495,492,837,496
494,495,491,798,495
494,495,492,643,496
493,496,494,454,495
494,496,494,304,495
493,495,491,217,495
493,495,492,198,494
494,495,491,228,495
494,494,492,298,494
494,494,491,419,494
494,494,492,559,493
494,493,491,713,494
494,494,490,833,494
494,494,493,824,495
494,495,493,745,496
494,496,494,557,496
493,495,493,390,495
493,495,493,249,494
493,496,493,201,493
493,494,494,208,494
494,494,492,249,494
494,494,492,342,495
494,493,492,479,494
494,494,492,617,494
494,493,491,778,495
494,495,491,837,495
494,494,492,807,495
494,495,493,668,495
494,495,493,477,495
494,496,493,325,495
494,495,494,224,493
493,494,493,196,495
494,495,492,222,494
494,494,493,283,494
494,494,491,398,493
494,494,492,536,495
494,494,491,687,494
494,493,491,820,495
494,494,490,827,494
494,494,492,763,496
493,495,492,583,496
493,496,494,410,495
493,495,494,263,495
493,494,492,202,495
494,495,492,204,495
494,494,492,240,495
494,494,492,328,495
494,494,491,459,494
494,493,492,599,494
494,494,491,760,494
494,494,493,839,495
494,494,493,813,494
494,494,493,695,495
493,495,492,503,495
493,496,493,344,495
493,495,493,227,493
493,495,491,194,493
494,494,492,217,494
493,495,491,269,494
494,495,492,379,493
494,494,492,517,494
494,494,491,663,493
494,494,492,809,494
494,494,492,832,496
494,494,492,781,495
494,495,494,608,495
493,495,493,427,495
493,495,493,282,495
493,495,493,210,494
493,494,491,200,494
493,495,491,235,493
494,494,492,313,493
494,494,492,439,494
494,493,491,579,494
494,494,491,737,494
494,494,491,837,495
494,494,494,819,495
494,495,493,719,496
493,496,493,525,495
494,495,493,365,495
493,495,493,239,494
493,496,493,199,494
493,494,493,213,493
494,495,492,260,494
494,494,491,362,494
494,494,492,499,492
494,494,492,640,495
494,494,491,798,495
494,494,493,835,493
494,495,492,797,495
494,495,493,638,495
493,496,493,455,495
493,495,493,303,494
493,495,492,216,494
493,495,492,198,493
493,495,493,228,494
494,493,491,298,494
494,494,491,421,493
494,494,491,561,493
494,494,491,716,494
494,493,491,832,494
494,495,493,824,494
494,496,493,743,496
494,496,493,554,495
493,496,493,388,495
493,496,494,248,494
493,495,492,199,495
493,494,493,209,495
494,494,492,251,494
494,495,492,344,493
494,494,492,481,493
494,494,491,622,494
494,494,491,779,495
494,495,492,838,496
494,494,492,806,495
494,496,492,665,495
494,496,493,474,496
493,495,492,321,495
493,495,493,222,493
493,494,492,195,493
494,494,491,222,494
493,495,493,284,494
494,494,492,400,494
494,495,490,538,494
494,494,491,690,495
494,493,491,822,495
494,494,492,826,495
494,495,492,760,495
494,495,492,578,496
493,495,492,405,495
493,495,493,262,495
493,496,492,205,495
493,494,492,205,495
493,495,492,241,493
493,494,492,328,494
494,494,491,461,495
494,495,491,601,494
494,494,491,761,493
494,494,492,839,496
494,496,493,813,496
494,496,492,692,495
493,495,493,500,494
494,496,493,344,495
493,496,492,228,495
493,495,492,196,495
493,495,491,218,494
494,494,492,271,495
494,494,492,382,495
494,494,490,520,494
494,493,491,667,494
494,494,491,812,494
494,495,491,831,495
494,494,493,777,494
493,495,493,606,495
494,496,493,426,496
493,496,493,279,495
493,496,492,209,494
494,494,494,203,494
494,495,493,235,494
494,494,493,315,494
494,495,491,442,494
494,494,491,583,495
494,494,491,741,495
494,494,491,837,495
494,494,492,818,495
494,494,492,717,495
494,496,493,523,496
493,496,492,361,496
493,495,493,238,494
493,495,493,195,493
493,495,493,213,494
494,495,491,261,494
494,495,492,362,493
494,494,491,501,494
494,494,491,640,494
494,493,490,799,495
494,494,492,835,496
494,495,492,795,495
494,495,493,633,495
493,495,494,447,495
493,496,492,298,494
493,494,492,217,495
493,495,492,201,494
494,495,491,230,494
494,495,492,302,494
494,494,492,420,494
494,494,492,563,494
494,494,491,719,494
494,493,491,833,494
494,494,494,822,496
494,495,492,740,495
494,495,493,552,495
493,495,493,388,495
493,495,493,246,494
493,495,491,200,494
493,495,492,209,493
493,494,494,251,494
494,494,492,347,494
494,494,491,487,495
494,494,492,625,494
494,494,492,780,494
494,495,492,836,494
494,495,492,804,495
494,495,492,661,496
493,496,493,476,495
494,496,494,322,496
493,496,492,220,495
493,495,493,196,494
493,495,493,224,494
494,495,492,286,494
494,495,493,403,494
494,494,492,543,494
494,496,490,693,495
494,493,491,822,495
494,495,492,826,496
494,494,492,759,494
493,495,494,575,494
494,495,493,403,495
493,496,494,257,495
493,495,492,205,494
493,494,492,206,494
493,494,493,242,494
494,494,492,331,495
494,493,491,462,494
494,494,492,603,495
494,493,491,762,495
494,494,492,838,496
494,496,494,811,495
494,495,494,686,496
493,495,493,496,495
494,495,493,340,494
493,496,493,227,494
494,495,493,196,494
494,494,491,218,493
494,496,492,272,494
494,493,492,386,494
494,494,491,523,494
494,494,491,666,493
494,494,492,811,494
494,495,492,830,494
494,494,492,773,496
494,495,494,604,496
493,496,494,427,496
494,495,493,279,494
493,495,493,209,494
494,495,493,202,495
493,494,493,235,493
494,493,492,315,494
494,494,491,445,494
494,494,492,583,495
494,493,491,741,494
494,494,491,835,495
494,495,491,815,495
494,495,493,714,496
494,496,493,522,495
493,496,493,360,495
493,495,492,236,494
493,495,492,197,494
494,495,493,214,494
494,494,492,264,493
494,494,492,364,494
494,493,492,504,493
494,494,491,645,494
494,494,491,801,494
494,495,492,834,493
494,494,493,793,495
494,495,493,631,496
493,495,493,447,495
494,495,492,297,495
493,495,493,214,494
493,495,493,199,493
494,494,492,228,494
494,495,492,303,493
494,495,492,427,494
494,494,491,567,494
494,493,491,719,494
494,495,491,831,494
494,494,493,820,495
494,495,493,737,496
493,496,493,547,495
493,495,493,383,495
493,496,492,245,494
493,494,493,199,494
493,495,491,210,494
494,495,493,253,494
494,494,491,350,494
494,494,492,487,494
494,494,494,624,494
494,493,491,782,494
494,494,492,836,494
494,494,492,802,494
494,494,494,657,496
493,495,492,470,497
494,495,492,319,495
493,495,492,222,495
493,495,493,197,494
494,494,492,224,493
494,494,492,289,494
494,494,492,405,494
494,493,492,545,494
494,494,490,696,495
494,494,491,824,494
494,495,492,825,494
494,493,494,757,493
494,495,493,570,495
493,496,492,400,495
493,496,493,254,494
493,495,492,201,493
494,494,492,205,493
494,495,492,243,494
494,494,492,333,494
494,494,492,462,494
494,494,492,602,494
494,494,491,767,494
494,494,492,840,495
494,493,493,810,495
494,495,493,685,495
493,495,494,490,495
493,496,493,336,495
493,496,492,228,495
493,495,493,196,494
494,494,492,221,494
494,494,492,276,494
494,494,492,387,495
494,494,491,527,494
494,494,491,671,494
494,494,492,811,494
494,494,492,830,494
494,495,492,771,495
494,496,493,600,496
494,496,493,426,495
493,496,494,278,495
493,494,493,208,495
494,494,493,202,493
494,494,492,236,494
494,495,493,319,494
494,495,491,451,495
494,494,492,589,494
494,494,490,741,495
494,494,492,835,495
494,495,493,815,496
494,495,493,709,496
493,496,493,520,496
493,496,493,361,495
493,496,494,235,494
494,495,493,197,495
493,494,494,214,494
493,494,492,264,494
494,494,491,368,494
494,494,490,504,493
494,494,492,648,493
494,493,491,804,494
494,495,493,833,496
494,494,493,791,495
494,495,493,628,496
494,495,493,444,495
493,495,493,295,495
493,496,493,214,495
493,495,493,201,495
494,495,493,231,495
494,494,493,304,494
494,494,492,426,494
494,493,492,566,493
494,493,491,724,493
494,494,492,833,494
494,494,493,820,495
494,494,493,735,496
493,494,493,543,496
493,495,493,381,496
493,495,492,243,495
493,494,493,201,494
493,494,493,212,494
494,494,492,255,493
494,494,493,352,495
494,494,491,489,494
494,493,491,629,494
494,494,491,783,494
494,493,491,837,496
494,495,493,802,495
494,494,492,653,496
494,495,493,468,495
493,495,493,316,495
493,495,493,220,495
494,495,492,196,493
493,495,493,224,495
494,494,492,290,494
494,494,492,408,494
494,493,492,548,494
494,494,492,697,494
494,495,492,826,494
494,494,492,826,493
494,494,493,754,495
493,495,492,570,495
494,496,492,401,495
493,496,493,255,493
494,495,493,203,494
493,494,492,207,494
493,494,492,244,493
494,493,492,335,493
494,493,491,469,495
494,494,491,608,494
494,493,491,769,494
494,494,492,839,495
494,494,493,810,495
494,496,493,683,496
493,496,493,492,494
493,495,493,337,494
493,495,492,227,494
493,495,493,195,493
494,494,492,220,493
494,496,493,277,494
494,493,492,391,495
494,494,491,528,494
494,494,491,674,494
494,493,491,811,496
494,494,491,829,494
494,495,493,770,496
494,495,493,597,495
493,496,493,421,495
493,495,493,274,493
493,495,494,209,494
493,495,492,203,493
494,494,493,237,494
494,493,491,320,493
494,494,493,451,493
494,494,491,590,493
494,493,490,746,494
494,494,492,836,495
494,495,493,814,496
494,494,492,707,495
493,496,493,515,495
493,494,493,356,495
494,495,493,234,494
493,495,493,196,495
493,497,492,215,494
494,495,492,265,493
494,495,493,371,493
494,494,493,509,494
494,493,492,650,495
494,493,490,805,494
494,495,491,833,494
494,495,492,788,495
494,495,493,624,496
493,495,493,443,495
493,496,493,294,494
493,495,493,213,494
493,495,492,201,494
493,494,492,232,494
493,494,491,307,494
494,495,492,430,493
494,494,491,570,495
494,493,491,725,494
494,494,492,834,494
494,494,492,821,495
494,494,493,733,496
493,495,494,542,496
494,495,491,379,495
493,496,493,244,495
493,496,493,200,494
494,495,493,211,493
494,494,493,257,494
494,495,492,353,494
494,494,491,491,493
494,493,493,632,494
494,493,490,787,494
494,495,492,835,495
494,495,492,801,495
494,495,493,650,495
493,496,493,465,495
493,495,493,310,494
493,494,493,217,493
493,495,493,197,494
493,495,493,225,493
494,496,493,291,493
494,494,492,411,494
494,493,491,551,494
494,493,492,702,494
494,494,492,826,494
494,493,491,823,495
494,495,493,750,495
494,496,493,567,495
493,496,493,397,495
493,495,493,253,494
493,496,492,202,494
493,496,492,207,494
493,495,492,244,494
494,494,492,337,494
494,494,492,469,495
494,494,491,610,494
494,494,490,769,494
494,495,492,837,494
494,496,491,808,495
493,494,494,679,495
494,495,494,488,495
493,496,494,335,495
493,496,493,226,494
493,496,493,196,494
493,495,493,220,494
494,494,493,279,493
494,494,492,392,494
494,494,493,529,494
494,494,491,675,494
494,494,491,815,494
494,495,493,830,495
494,496,493,768,495
494,495,494,595,496
494,496,492,418,495
493,495,493,272,495
493,495,493,206,493
494,495,491,203,494
493,495,493,238,494
494,494,493,321,495
494,494,491,452,493
494,494,491,593,494
494,493,492,751,494
494,493,492,835,495
494,494,492,814,495
494,495,492,705,496
494,496,493,514,495
493,495,493,355,494
493,495,492,232,495
493,495,494,194,493
493,494,493,215,494
494,494,492,266,495
494,494,492,372,494
494,494,491,512,494
494,494,492,652,494
494,495,491,804,494
494,496,491,834,494
494,494,492,788,495
494,496,493,621,496
493,496,494,438,495
493,495,492,290,495
493,496,494,213,494
493,495,492,199,493
493,494,492,232,494
494,494,493,306,493
494,494,493,431,495
494,495,491,569,494
494,493,491,726,494
494,494,490,834,495
494,495,491,818,497
494,496,492,726,496
494,496,492,533,496
494,496,493,373,495
493,496,493,242,493
493,495,493,200,494
493,495,492,212,494
493,494,493,258,493
494,495,491,352,494
494,495,493,491,494
494,495,491,632,494
494,494,492,791,496
494,494,491,837,494
494,494,492,801,495
494,495,493,650,496
493,495,493,463,495
493,496,493,311,494
494,496,493,219,495
493,495,493,198,494
493,495,493,225,493
494,495,493,293,495
494,495,492,414,493
494,494,493,552,493
494,493,491,704,494
494,494,492,830,494
494,495,491,825,494
494,495,492,748,496
494,496,493,565,495
493,495,494,395,495
493,496,493,251,495
493,495,492,202,494
494,493,493,208,495
494,494,491,246,492
494,494,491,337,493
494,495,491,472,493
494,494,491,612,494
494,494,492,773,495
494,493,491,838,495
494,496,492,808,495
494,496,492,674,496
493,496,494,479,495
493,495,493,328,495
493,495,494,227,494
493,495,493,198,492
494,495,493,222,494
493,494,492,280,493
494,495,491,389,494
494,493,492,527,494
494,494,492,679,493
494,493,491,815,494
494,494,492,829,495
494,494,492,768,496
494,495,493,589,495
494,496,493,413,495
493,496,493,268,495
494,495,494,208,494
493,493,491,206,494
494,495,491,238,494
494,494,492,324,494
494,494,492,454,494
494,492,490,594,494
494,493,491,753,494
494,494,491,837,494
494,494,491,814,495
494,494,492,702,496
494,495,493,512,495
493,496,493,352,496
493,495,494,232,495
493,495,494,195,493
493,494,492,216,495
494,494,492,267,494
494,494,492,374,493
494,494,492,512,495
494,495,491,655,494
494,493,491,807,495
494,496,491,833,496
494,495,493,787,495
494,495,494,617,495
493,496,493,433,494
493,495,493,286,494
493,494,493,212,494
493,495,492,200,493
494,494,493,233,495
494,494,493,310,494
494,493,491,429,495
494,494,492,569,494
494,494,491,731,493
494,494,491,835,495
494,495,494,821,494
494,496,493,728,496
494,495,494,531,495
494,496,494,366,495
493,495,494,243,494
493,494,493,201,494
493,494,493,215,494
493,496,492,258,493
494,494,491,356,494
494,493,491,489,494
494,493,492,631,495
494,494,491,792,495
494,495,492,837,494
494,494,492,800,496
494,495,492,646,494
493,496,494,455,495
494,495,493,305,494
493,495,492,221,495
493,494,491,201,493
494,494,493,227,495
494,494,492,297,494
494,494,492,412,495
494,493,491,553,494
494,494,492,709,495
494,493,490,831,496
494,496,491,825,495
494,494,492,750,495
494,495,493,562,495
494,495,493,396,494
493,496,494,251,494
493,494,493,202,494
494,495,492,208,493
494,495,493,248,495
494,494,493,341,493
494,493,491,476,493
494,494,491,618,494
494,493,492,775,495
494,494,492,837,495
494,495,492,806,496
493,495,493,673,496
493,496,493,483,495
494,495,493,329,495
493,495,493,223,494
493,494,493,197,494
493,495,492,221,494
494,495,492,280,493
494,494,491,394,493
494,494,492,534,493
494,493,492,684,494
494,494,492,816,495
494,493,493,828,495
494,494,493,765,495
493,496,492,585,495
494,495,494,411,495
493,495,493,265,495
493,495,493,207,494
494,496,492,206,494
493,495,493,240,494
494,495,493,324,494
494,494,492,454,493
494,494,491,594,493
494,493,491,755,494
494,493,493,836,495
494,494,493,813,496
494,494,493,697,495
494,494,493,504,495
493,496,494,348,494
494,495,492,232,493
494,494,491,196,494
493,494,494,218,494
494,494,492,271,493
494,494,492,375,493
494,492,492,513,493
494,495,491,658,493
494,495,492,810,494
494,493,493,835,496
494,495,492,785,496
494,496,493,616,496
494,496,493,433,495
493,496,493,285,495
493,494,493,213,493
493,494,494,202,494
493,496,492,234,494
494,494,494,313,494
494,495,492,436,493
494,495,492,574,492
494,494,491,735,495
494,494,491,835,495
494,496,493,818,495
494,494,492,723,496
494,495,494,530,495
493,496,493,369,495
493,496,493,240,494
494,495,493,199,494
493,495,493,214,495
494,495,493,259,495
494,494,492,359,493
494,494,491,496,495
494,494,491,638,494
494,494,490,794,495
494,494,492,835,495
494,497,492,799,496
493,495,494,640,495
494,496,493,456,495
493,495,493,305,495
493,496,493,217,495
494,495,493,199,493
494,494,493,228,494
494,494,492,297,494
494,496,491,417,495
494,494,492,557,495
494,494,492,710,494
494,493,492,829,495
494,494,492,824,494
494,495,492,744,495
494,496,494,555,495
493,495,493,389,495
493,496,494,250,494
494,495,493,202,495
493,494,492,209,494
493,494,493,248,494
494,495,492,343,492
494,494,491,476,494
494,493,492,616,494
494,494,492,776,494
494,495,493,839,495
494,496,493,806,494
494,495,493,670,494
493,495,493,478,495
493,496,494,326,495
493,496,494,224,493
493,494,492,196,494
493,494,492,224,494
494,495,492,286,493
494,494,493,398,492
494,493,492,536,494
494,494,492,687,494
494,494,491,820,495
494,496,493,827,494
494,495,493,765,496
494,497,494,586,495
494,496,493,410,495
493,496,493,265,495
493,495,493,204,494
493,495,493,204,494
494,495,493,240,493
494,494,491,326,493
494,494,492,459,493
494,495,491,599,493
494,493,491,758,493
494,493,493,838,494
494,494,492,812,495
494,494,492,695,496
494,495,493,502,495
493,496,494,345,495
493,496,493,231,493
493,496,492,196,495
494,495,492,215,493
494,496,492,271,494
494,495,492,377,493
494,495,492,516,493
494,494,492,661,494
494,494,492,810,495
494,494,491,833,495
494,496,492,781,495
494,495,494,611,496
494,495,494,429,495
494,495,494,283,495
493,495,493,214,493
493,494,493,202,494
493,494,492,235,494
494,494,491,315,494
494,494,492,437,494
494,494,490,576,494
494,494,491,736,494
494,493,492,836,494
494,496,491,817,495
494,495,492,720,495
493,495,493,530,496
494,495,493,368,495
493,496,493,239,493
493,494,492,200,495
493,495,492,212,495
494,495,492,260,494
494,494,492,361,494
494,493,492,498,493
494,494,491,640,494
494,495,491,798,494
494,495,491,836,496
494,496,492,797,495
494,496,493,641,496
494,495,494,455,495
494,495,494,303,494
493,495,492,216,495
493,495,493,197,492
494,494,492,227,495
494,495,492,299,495
494,494,491,417,493
494,494,491,559,494
494,494,491,716,494
494,493,491,832,495
494,495,492,822,495
494,495,493,744,495
493,496,493,552,495
493,496,493,385,495
493,495,493,249,494
493,496,493,201,494
493,495,493,210,495
494,494,493,251,493
494,495,492,343,494
494,494,492,478,492
494,493,492,620,494
494,494,492,777,493
494,493,491,838,495
494,494,493,806,495
494,496,492,665,495
494,495,492,476,495
493,496,493,324,494
493,495,494,224,494
494,494,494,197,495
494,494,493,223,494
494,494,492,286,494
494,494,491,401,494
494,494,492,537,494
494,495,491,687,494
494,494,491,819,495
494,494,492,825,494
494,494,493,760,494
494,497,493,581,495
494,496,493,409,495
493,496,495,263,493
493,495,493,205,493
493,496,493,204,493
494,495,493,241,494
494,496,492,327,493
494,493,492,458,494
494,494,491,599,494
494,493,490,761,495
494,495,491,839,495
494,495,491,811,495
494,495,492,693,495
493,496,493,499,495
493,496,493,343,495
493,496,493,231,493
493,494,493,196,494
494,496,493,218,493
494,494,493,271,494
494,494,492,381,494
494,493,491,519,493
494,494,491,664,494
494,494,491,811,495
494,494,493,833,494
494,495,492,779,495
493,495,494,609,496
494,495,494,430,496
493,495,493,282,495
493,494,493,211,494
493,495,493,203,494
494,494,492,235,494
493,493,492,314,494
494,494,493,443,493
494,494,491,582,493
494,494,491,737,494
494,494,492,835,495
494,494,493,815,494
494,495,493,716,495
493,496,494,525,496
493,496,493,366,495
494,496,493,237,493
494,496,494,198,493
493,495,493,213,494
494,495,492,261,494
494,494,493,362,493
494,494,492,500,494
494,494,492,640,494
494,495,492,796,494
494,494,492,834,494
494,494,492,795,495
493,495,493,636,496
493,496,494,452,495
493,496,493,302,495
493,495,494,217,494
493,494,492,199,492
494,494,493,229,494
493,495,493,301,494
494,493,492,421,494
494,494,491,560,495
494,494,491,717,494
494,494,491,834,495
494,495,491,820,493
494,496,493,740,494
493,496,492,552,495
493,495,493,387,495
493,496,493,248,493
493,496,494,200,494
494,495,493,210,495
493,494,493,250,494
494,494,492,345,493
494,494,492,481,494
494,495,492,623,495
494,494,490,781,494
494,495,491,837,495
494,495,492,806,494
494,495,492,664,495
494,496,494,474,495
493,496,494,320,495
493,495,493,222,495
493,494,492,197,493
493,494,493,224,494
494,495,493,287,494
494,495,491,402,494
494,494,491,542,494
494,495,492,692,494
494,493,492,822,495
494,494,493,827,493
494,494,493,757,496
493,497,492,574,494
493,497,494,403,494
494,495,493,257,493
493,497,491,206,495
494,496,490,206,493
493,494,492,244,494
494,495,491,331,493
494,493,491,453,492
494,494,492,595,495
494,494,491,766,495
494,495,490,841,496
494,494,492,813,494
494,494,494,691,493
494,495,493,490,493
493,495,493,326,493
494,493,492,234,493
494,495,493,201,494
494,496,492,222,492
494,493,493,275,494
494,496,493,379,492
494,495,490,503,494
494,494,492,671,495
494,495,491,816,493
494,493,490,834,496
494,496,493,777,494
494,495,492,609,496
493,495,492,416,496
494,497,493,273,495
493,496,493,213,493
494,497,494,207,492
494,493,491,239,494
494,494,493,318,495
494,495,493,435,495
494,493,491,578,493
494,495,493,746,495
494,493,490,841,494
494,494,492,821,494
494,493,491,717,497
493,495,494,517,495
493,496,494,357,495
493,497,493,241,494
493,494,493,200,492
493,496,494,215,495
494,495,491,266,493
494,493,492,367,492
494,495,493,496,494
494,494,493,646,493
494,495,492,801,495
494,497,494,837,493
494,494,495,795,495
494,495,492,633,496
493,497,494,434,494
493,494,493,289,495
493,496,494,219,494
493,497,492,203,493
493,494,494,234,493
494,493,490,305,493
494,495,491,414,493
494,495,492,553,493
494,495,490,723,495
494,492,492,838,493
494,492,491,826,496
494,496,493,738,494
494,494,494,547,495
493,496,492,373,495
493,494,493,251,493
493,493,492,205,493
494,496,493,212,493
494,492,492,254,493
493,493,491,348,492
494,492,492,475,493
494,493,493,618,492
494,495,493,785,493
494,494,493,838,496
494,493,491,807,497
494,497,492,662,494
494,495,495,466,495
493,496,492,313,495
493,497,492,225,495
494,496,492,201,493
494,495,493,227,495
493,494,492,292,493
494,494,494,396,493
494,495,493,535,493
493,492,490,704,493
494,492,492,830,495
494,492,494,828,494
494,496,492,762,494
493,497,492,575,494
494,496,494,393,494
493,494,493,259,495
493,495,495,206,494
493,494,490,209,494
494,493,492,246,492
494,493,493,336,492
494,492,491,456,494
494,492,493,597,493
494,492,490,769,493
494,492,492,841,496
494,494,491,816,493
494,495,492,688,496
493,497,494,486,496
493,496,492,330,496
493,495,491,232,494
493,494,491,202,494
493,496,492,222,493
494,497,494,277,492
494,493,493,385,494
494,493,491,517,493
494,495,490,672,493
494,495,491,816,496
494,492,493,835,496
494,496,491,776,494
493,496,494,603,496
493,497,492,415,495
493,495,495,271,495
493,496,492,214,495
494,494,494,206,493
494,496,490,240,493
494,494,493,321,496
494,492,491,437,493
494,495,490,576,493
494,495,491,750,494
494,493,493,841,497
494,494,491,820,493
494,494,492,717,494
494,494,493,517,494
494,497,493,351,495
493,495,493,239,495
494,498,491,202,492
494,493,491,218,494
493,495,493,269,494
494,496,492,368,492
494,493,492,495,494
494,494,491,651,493
494,492,490,805,493
494,494,491,839,495
494,493,491,794,496
494,497,495,632,494
494,496,492,436,495
493,495,494,289,495
493,497,492,217,493
493,495,491,201,493
494,493,494,234,493
493,495,493,304,491
494,495,494,420,492
494,493,493,559,495
494,493,492,725,494
494,493,492,839,495
494,497,494,826,493
494,495,493,736,494
493,497,492,544,496
493,495,495,371,494
493,496,495,249,495
493,495,494,204,494
493,495,494,216,494
493,493,492,258,493
493,494,492,352,493
494,495,493,480,495
494,493,491,622,493
494,494,491,787,495
494,495,491,839,495
494,495,491,805,494
493,495,492,657,496
494,496,494,468,495
494,495,494,317,495
493,496,493,223,495
493,495,493,199,494
493,494,493,226,493
493,495,492,291,494
494,494,491,411,494
494,495,491,549,494
494,495,492,698,494
494,494,492,826,495
494,495,491,824,495
494,495,493,753,496
493,496,494,575,496
493,496,493,406,495
493,495,494,257,494
493,495,492,202,494
493,494,493,204,494
493,494,492,243,494
493,495,492,333,494
494,494,491,465,494
494,493,492,607,494
494,494,491,767,494
494,495,492,838,495
494,494,492,810,494
494,495,493,684,495
494,495,494,488,494
493,496,494,333,494
493,496,494,228,494
493,495,492,197,494
493,495,493,220,494
493,494,493,277,495
494,494,491,383,494
494,494,492,524,494
494,494,492,674,494
494,493,493,814,494
494,493,493,830,495
494,494,493,772,495
494,495,493,599,495
493,496,493,420,495
493,496,494,274,494
493,495,493,210,494
494,494,493,204,495
493,494,493,236,494
494,494,492,320,494
494,493,492,450,493
494,494,493,589,493
494,494,491,744,495
494,493,492,837,495
494,493,493,815,495
494,495,493,708,495
494,496,494,521,496
493,496,494,361,495
493,495,494,234,494
493,494,493,196,494
493,496,490,213,493
494,494,493,264,494
494,494,492,370,494
494,494,492,507,494
494,495,491,647,494
494,494,492,803,494
494,495,492,833,496
494,494,492,790,495
493,495,493,626,496
493,496,494,444,495
493,495,493,294,494
493,495,494,215,494
493,495,492,198,495
494,495,492,230,493
494,494,493,304,493
494,493,491,424,494
494,494,492,566,494
494,494,491,723,493
494,494,491,832,494
494,494,491,821,494
494,494,492,733,495
494,496,492,539,496
493,495,493,374,494
493,495,493,244,494
494,496,494,201,494
493,495,493,212,494
493,495,493,256,492
494,493,492,352,493
494,493,491,485,493
494,494,491,627,493
494,494,490,785,494
494,493,494,838,494
493,493,491,802,495
494,495,492,654,496
494,496,494,464,495
493,495,493,312,494
493,495,492,222,494
493,494,492,198,492
493,496,493,227,494
494,495,491,291,493
494,495,492,406,493
494,495,491,547,494
494,494,492,700,493
494,493,492,828,495
494,494,490,825,494
494,494,492,753,495
493,495,494,568,496
494,496,493,399,495
494,496,493,256,495
493,495,494,205,495
493,494,493,208,495
494,494,492,245,494
494,494,492,337,493
494,494,492,471,493
494,494,492,609,494
494,493,491,768,495
494,494,492,837,496
494,495,492,808,496
493,495,493,680,495
493,496,493,493,495
493,496,493,336,495
493,496,493,227,494
493,495,493,195,494
493,496,492,220,494
494,495,494,278,493
494,494,492,390,494
494,493,493,528,494
494,493,492,676,494
494,495,491,813,494
494,496,492,828,494
494,494,493,773,495
494,495,494,628,496
494,495,494,464,495
493,495,494,313,495
493,495,494,198,494
493,495,493,188,493
493,496,493,224,495
494,494,493,332,494
494,494,492,483,495
494,494,492,623,494
494,494,492,743,495
494,495,492,815,494
494,494,494,798,495
493,495,493,701,495
494,496,494,543,494
493,496,494,387,495
493,495,494,247,494
493,496,494,170,495
493,494,492,195,494
493,494,492,252,494
494,494,492,390,494
494,495,492,540,493
494,494,492,676,495
494,494,492,776,494
494,494,493,811,495
494,495,492,770,495
493,496,494,634,495
493,496,493,471,495
494,496,494,322,494
493,495,494,201,494
494,494,492,175,493
493,495,493,210,494
493,494,493,306,494
494,494,493,457,494
494,495,492,597,494
494,494,492,724,494
494,494,491,809,495
494,495,491,797,493
493,494,493,712,495
493,496,493,518,495
494,495,493,346,495
493,495,494,236,495
493,496,493,193,494
493,494,492,203,494
493,494,493,250,493
493,495,492,346,494
494,495,492,457,495
494,494,491,625,494
494,494,491,789,495
494,494,491,836,495
494,497,493,801,495
494,495,492,652,496
494,496,493,448,495
493,495,494,309,494
493,496,493,220,494
493,494,492,200,494
493,494,494,228,494
493,494,493,305,494
494,495,492,399,493
494,494,493,545,494
494,494,492,706,494
494,494,493,829,495
494,494,493,827,495
494,495,493,757,495
494,496,493,571,496
493,496,493,396,495
493,497,494,258,494
493,496,492,202,495
494,495,493,208,493
493,495,492,243,494
493,494,492,347,494
494,494,492,495,494
494,494,491,632,494
494,494,490,761,494
494,494,493,831,496
494,496,491,802,496
493,496,494,689,495
494,496,493,525,495
494,495,493,372,495
494,495,493,237,494
493,495,493,177,494
493,495,492,204,494
494,495,493,275,494
494,494,493,418,494
494,495,491,562,494
494,494,491,696,495
494,494,493,791,495
494,495,492,809,494
494,495,493,750,495
494,496,494,599,495
494,495,493,431,495
494,495,494,279,495
493,495,493,188,494
494,494,492,187,494
493,494,492,224,494
493,495,492,313,494
494,494,492,449,494
494,494,493,588,494
494,494,492,740,494
494,493,492,829,495
494,496,493,807,494
494,495,492,696,494
494,496,494,502,494
493,496,493,344,494
494,496,493,229,494
493,495,494,193,494
494,495,492,213,493
493,495,492,263,495
494,494,492,368,494
494,495,491,503,493
494,494,492,654,493
494,494,492,804,494
494,494,492,833,495
494,495,492,787,495
493,495,494,620,496
494,496,494,437,496
493,495,493,289,495
493,495,493,214,494
493,496,493,202,493
493,495,493,233,494
494,494,493,309,494
494,494,492,443,494
494,495,491,582,494
494,494,493,725,495
494,494,493,832,495
494,492,491,817,495
494,495,493,726,496
493,495,494,553,495
494,497,494,394,495
493,496,493,247,495
493,495,492,193,494
494,495,493,206,493
494,494,493,253,493
494,495,492,369,494
494,494,490,510,493
494,494,491,644,494
494,494,492,781,494
494,495,492,828,495
494,496,492,792,495
493,495,494,647,495
494,496,494,474,495
494,496,493,320,495
493,496,495,208,495
493,494,493,188,494
493,496,492,217,493
493,493,492,288,493
494,494,492,416,494
494,495,491,554,494
494,494,492,700,494
494,495,492,824,494
494,494,492,821,494
494,495,493,744,495
494,495,493,557,496
494,496,494,390,495
493,496,493,249,494
493,495,493,199,494
494,495,492,207,494
494,494,492,245,493
494,494,492,338,493
