Sensor0,Sensor1,Sensor2,Sensor3,Sensor4

495,495,495,492,486
495,494,495,492,487
494,494,495,493,488
494,494,495,493,488
494,494,495,493,489
494,494,495,493,489
494,494,495,493,489
494,494,495,493,488
494,494,495,493,488
494,494,495,493,487
494,494,495,493,486
494,494,495,493,486
495,494,495,493,486
494,494,495,493,486
494,494,495,493,487
494,495,495,493,488
494,494,495,493,488
494,494,495,493,489
494,494,495,493,489
494,494,495,493,489
494,494,495,493,488
494,494,495,493,488
494,494,495,493,487
494,494,495,492,486
494,494,495,493,486
494,494,495,493,486
494,494,495,493,487
494,494,495,493,488
494,494,495,493,488
494,494,495,493,489
494,494,495,492,489
494,494,495,493,489
494,494,495,493,489
494,494,495,491,488
494,494,495,492,487
494,494,496,494,487
494,494,495,492,486
494,494,495,493,486
494,494,495,493,486
494,494,495,492,487
494,494,495,492,488
494,494,495,493,489
494,494,495,492,489
494,494,495,492,489
494,494,495,492,489
494,494,495,492,488
494,494,495,492,488
494,494,495,492,487
494,494,495,493,486
494,494,495,493,486
494,494,495,493,486
494,494,495,493,487
494,494,495,493,488
494,494,495,493,488
494,494,495,493,489
494,494,495,493,489
494,494,495,493,489
494,494,495,493,489
494,494,495,493,488
494,494,495,493,487
494,494,495,493,487
493,494,495,492,486
494,494,495,493,486
493,494,495,493,487
494,494,495,492,487
494,494,495,492,488
494,494,495,493,488
494,494,495,492,489
494,494,495,493,489
494,494,495,493,489
494,494,495,493,488
494,494,495,492,488
494,494,495,493,487
494,494,495,492,486
494,494,495,493,486
494,494,495,492,486
494,494,495,492,487
494,494,495,493,487
494,494,495,493,488
494,494,495,492,489
494,494,495,493,489
494,494,495,492,489
494,494,495,493,489
494,494,495,493,488
494,494,495,492,487
494,494,495,493,487
494,495,495,493,486
494,494,495,493,486
494,494,495,493,486
494,494,495,493,487
494,494,495,493,488
494,494,495,493,488
494,494,495,493,489
494,494,495,493,489
494,494,495,493,489
494,494,495,493,488
494,494,495,493,488
493,494,495,493,487
494,494,495,492,487
494,494,495,493,486
494,494,495,493,486
494,494,495,493,486
494,494,495,493,487
494,494,495,493,488
494,494,495,493,489
494,494,495,493,489
494,494,495,493,489
493,493,495,493,489
494,494,495,492,488
494,494,495,492,487
494,494,495,492,487
494,494,495,492,486
494,494,495,492,486
494,494,495,492,486
494,494,495,492,487
494,494,495,493,487
494,494,495,493,488
494,494,495,493,489
494,494,495,493,489
494,494,495,492,489
494,494,495,493,488
494,494,495,492,488
494,495,495,493,487
494,494,495,493,487
494,494,495,493,486
494,494,495,493,486
494,494,495,493,486
494,494,495,493,487
494,494,495,492,488
494,494,495,493,488
494,494,495,493,489
494,494,495,492,489
494,494,495,493,489
494,494,495,492,488
494,494,495,493,488
494,495,495,493,487
494,494,495,492,486
494,494,495,493,486
494,494,495,493,486
494,494,495,493,487
494,494,495,493,488
494,494,495,493,488
494,494,495,493,489
494,494,495,493,489
494,494,495,493,489
493,493,495,492,489
494,494,495,493,488
494,494,495,493,487
494,494,496,492,487
494,495,495,493,486
494,495,495,491,485
494,495,495,491,485
494,495,495,493,486
494,494,495,492,487
494,494,495,493,488
494,494,495,493,488
494,495,495,493,488
494,494,495,493,489
493,494,495,492,488
494,495,495,492,487
494,494,495,492,487
494,494,495,493,486
494,494,495,493,486
494,494,495,493,486
494,494,495,493,487
494,494,495,493,487
494,494,495,493,488
494,494,495,492,489
494,494,495,493,489
494,494,495,493,489
494,494,495,493,489
494,494,495,493,488
494,494,495,493,487
494,494,495,493,487
494,494,495,493,486
494,494,495,493,486
494,494,495,493,486
494,494,495,493,487
494,494,495,493,488
494,494,495,493,488
494,494,495,493,489
494,494,495,493,489
494,494,495,493,489
494,494,495,493,488
494,494,495,493,488
494,494,495,493,487
494,494,495,492,486
494,494,495,493,486
494,494,495,493,486
494,494,495,493,486
494,494,495,493,487
494,494,495,493,488
494,494,495,493,488
494,494,495,492,489
494,494,495,493,489
494,494,495,493,489
494,494,495,492,488
494,494,495,492,488
494,494,495,492,487
494,494,495,493,486
494,494,495,493,486
494,494,495,493,486
494,494,495,493,487
494,494,495,493,488
494,494,495,493,488
493,494,495,493,489
493,494,495,492,489
494,494,495,492,489
494,494,495,493,488
494,494,495,493,488
494,494,495,493,487
494,494,495,493,487
494,494,495,492,486
494,494,495,493,486
494,494,495,493,487
494,494,495,492,487
495,495,495,492,488
494,495,495,492,488
494,494,495,493,489
494,494,495,492,489
494,494,495,493,489
494,494,495,492,488
494,494,495,493,488
494,494,495,492,487
494,494,495,492,486
494,494,495,493,486
494,494,495,493,486
494,494,495,493,487
494,494,495,493,488
494,494,495,493,488
494,494,495,493,489
494,494,495,493,489
494,494,495,493,489
494,494,495,493,489
494,494,495,493,488
494,494,495,493,488
494,494,495,493,487
494,494,495,493,487
494,494,495,493,486
494,494,495,493,487
494,494,495,493,487
494,494,495,493,488
494,494,495,493,489
493,494,495,493,489
493,494,495,493,489
493,494,495,493,489
493,494,495,492,488
494,494,495,493,488
494,494,495,492,487
495,495,495,492,486
494,495,495,493,486
494,494,495,493,486
494,494,495,493,487
494,494,495,493,487
494,494,495,492,488
493,494,495,493,489
494,495,495,493,489
495,494,495,493,489
495,494,495,493,489
494,494,495,493,488
494,494,495,492,487
494,494,495,493,487
494,494,495,492,486
494,494,495,493,486
494,494,495,492,486
494,494,495,492,487
494,494,495,493,488
494,494,495,493,488
494,494,495,493,489
494,494,495,492,489
494,494,495,492,488
494,494,495,493,488
494,494,495,493,488
494,494,495,493,487
494,494,495,493,486
494,494,495,493,486
494,494,495,493,486
494,494,495,492,486
494,494,495,492,487
494,494,495,492,488
494,494,495,491,488
494,494,495,491,488
494,494,495,494,489
494,494,495,493,488
494,494,495,493,488
493,494,496,493,487
493,494,495,493,487
494,494,495,492,486
494,495,495,492,486
494,494,495,493,486
494,494,495,492,487
494,494,495,493,488
494,494,495,492,488
494,494,495,493,489
494,494,495,493,489
494,494,495,493,489
494,494,495,492,488
494,494,495,492,488
493,493,495,493,487
494,494,495,493,487
494,494,495,492,486
494,494,495,492,486
494,494,495,493,486
494,494,495,493,487
494,494,495,493,488
494,494,495,493,488
494,494,495,493,489
493,494,495,493,489
494,494,495,492,489
494,494,495,492,488
494,494,495,493,488
494,494,495,492,487
494,494,495,492,486
494,494,495,493,486
494,494,495,493,486
494,494,495,493,487
494,494,495,492,487
494,495,495,492,488
494,495,495,493,489
494,494,495,492,489
494,494,495,493,489
494,494,495,493,489
494,494,495,492,488
494,494,495,493,487
494,494,495,494,487
494,494,495,492,486
494,494,495,492,486
494,494,495,492,486
494,494,495,493,487
494,494,495,492,488
494,494,495,492,488
494,494,495,493,489
494,494,495,493,489
494,494,495,493,489
493,494,495,492,488
494,494,495,492,488
494,494,495,492,487
494,494,495,492,487
494,494,495,493,486
494,495,495,493,486
494,494,495,492,487
494,494,495,493,488
494,494,495,493,488
494,494,495,492,489
494,494,495,492,489
494,494,495,492,489
494,494,495,492,489
494,494,495,492,488
494,494,495,492,487
494,494,495,493,487
493,494,495,492,486
494,494,495,492,486
495,494,495,492,486
494,494,495,491,486
494,494,495,492,488
494,494,495,493,488
494,494,495,492,489
494,495,495,492,489
494,494,495,492,489
494,494,495,492,488
494,494,495,493,488
494,494,495,493,487
493,494,495,492,486
494,494,495,492,486
495,495,495,492,486
494,495,495,493,486
494,494,495,492,487
494,494,495,493,488
494,494,495,492,488
494,494,495,493,489
494,494,495,493,489
494,494,495,493,489
494,494,495,492,488
494,494,495,492,487
494,494,495,493,487
493,494,495,492,486
494,494,495,492,486
494,494,495,492,486
494,494,495,492,487
494,494,495,493,488
494,494,495,492,488
494,494,495,492,489
494,494,495,493,489
494,494,495,493,489
494,494,495,493,488
494,494,495,493,488
494,494,495,492,487
494,494,495,492,486
494,494,495,492,486
494,494,495,492,486
494,494,495,492,486
494,494,495,492,487
494,494,495,492,488
494,494,495,492,488
494,494,495,492,489
494,494,496,493,489
493,494,495,492,489
494,494,495,492,488
494,494,495,492,487
494,494,495,492,487
494,494,495,493,486
494,494,495,493,486
494,494,495,492,486
494,494,495,493,487
494,494,495,493,488
494,494,495,493,488
494,494,495,492,488
494,494,495,490,488
494,494,495,493,489
494,494,495,493,488
494,494,495,493,488
494,495,495,493,487
494,494,495,493,487
493,494,495,493,486
493,494,495,492,486
494,495,495,492,486
494,495,495,492,487
494,494,495,492,488
493,494,495,492,488
493,494,495,493,489
494,494,495,493,489
494,494,495,492,489
494,494,495,492,488
494,494,495,492,487
493,494,495,492,487
493,494,495,492,486
493,494,496,493,486
493,494,495,493,486
494,494,495,492,487
494,494,495,492,487
494,494,495,493,488
494,494,495,492,489
494,494,495,492,489
494,494,495,492,489
494,494,495,493,488
494,494,495,492,488
494,494,495,492,487
494,494,495,493,487
494,494,495,492,486
494,494,495,492,486
494,494,495,493,486
494,494,495,492,487
494,494,495,493,488
494,494,495,492,488
494,494,495,492,489
494,494,495,493,489
494,494,495,493,489
494,494,495,493,488
494,494,495,492,488
494,495,495,493,487
494,494,495,493,486
494,494,495,493,486
494,494,495,493,486
494,494,495,493,487
494,494,495,493,487
494,494,495,493,488
494,494,495,493,489
494,494,495,493,489
494,494,495,493,489
494,494,495,493,489
494,494,495,493,488
494,494,495,492,488
494,494,495,493,487
494,494,495,493,486
494,494,495,493,486
494,494,495,493,486
494,494,496,493,487
494,494,495,493,488
494,494,495,492,488
494,494,495,493,489
494,493,495,493,489
493,494,495,492,489
494,495,495,493,489
494,494,495,493,488
494,494,495,492,487
494,494,495,492,487
494,494,495,493,486
494,494,495,492,486
494,494,495,493,487
494,494,495,492,487
494,494,495,492,488
494,494,495,492,488
494,494,495,492,489
494,494,495,492,489
494,494,495,492,489
494,494,495,493,488
494,494,495,492,487
494,494,495,492,487
494,494,496,492,486
494,494,495,492,486
494,494,495,492,486
494,494,495,492,487
494,494,495,492,487
494,494,495,494,488
493,494,495,492,488
493,494,495,493,489
494,494,495,490,488
494,494,495,492,488
494,494,495,493,488
494,494,495,492,487
494,494,495,492,486
494,494,495,492,486
494,494,495,493,486
494,494,495,493,486
494,494,495,492,487
494,494,495,492,488
494,494,495,492,488
494,494,495,492,489
494,494,495,492,489
494,494,495,492,489
494,494,495,492,488
494,494,495,492,487
494,494,495,492,487
494,494,495,493,486
494,494,495,492,486
494,494,495,492,486
494,494,495,492,487
494,494,495,492,487
494,494,495,493,488
494,494,495,493,488
494,494,495,493,489
494,494,495,492,489
494,494,495,492,489
494,494,495,493,488
494,494,495,492,487
494,494,495,493,487
494,494,495,492,486
494,494,495,492,486
494,494,495,493,486
494,494,495,493,487
494,494,496,493,488
493,494,495,492,488
494,495,495,493,489
494,494,495,492,489
494,495,495,492,489
494,494,495,493,488
494,494,495,493,488
494,494,496,493,487
494,494,495,493,486
494,494,495,492,486
494,494,495,493,486
494,494,495,493,487
494,495,495,493,487
494,495,495,493,488
494,494,495,492,488
494,494,495,493,489
494,494,495,493,489
494,494,495,493,489
494,494,496,493,488
493,494,495,493,488
494,494,495,493,487
494,494,495,493,486
494,494,495,492,486
494,494,495,492,486
494,494,495,493,487
494,494,495,493,488
494,494,495,491,488
494,494,495,493,489
494,494,495,493,489
494,494,495,493,489
494,494,495,492,488
494,494,495,492,488
494,494,495,493,487
494,494,495,493,487
494,494,495,493,486
494,495,495,493,486
494,494,495,493,487
494,494,495,493,487
494,494,495,493,488
494,494,495,493,489
494,494,495,493,489
494,494,496,493,489
493,494,495,493,489
494,494,495,492,488
494,494,495,492,487
494,494,495,493,487
494,494,495,493,486
494,494,495,493,486
494,494,495,493,486
494,494,495,493,487
494,494,495,493,488
494,494,495,492,488
494,494,495,492,489
494,494,495,492,489
494,494,495,493,489
494,494,495,492,488
494,494,495,492,488
494,494,495,493,487
494,494,495,493,487
493,494,495,494,486
494,494,495,492,486
494,494,495,492,486
493,494,495,493,487
494,494,495,493,488
494,494,495,493,489
494,494,495,493,489
494,494,495,493,489
494,494,495,493,489
494,494,495,493,488
494,494,495,493,488
494,494,495,493,487
494,494,496,492,486
494,494,495,493,486
494,494,495,493,486
494,494,495,493,487
494,494,495,493,488
494,494,495,493,488
494,494,495,493,489
493,494,495,493,489
494,494,495,493,489
494,494,495,493,489
494,494,495,492,488
494,494,495,491,487
494,494,495,493,487
494,494,495,494,486
494,494,495,493,486
494,494,495,492,486
494,494,495,493,487
494,494,495,494,488
493,494,495,493,489
494,494,495,492,489
494,494,495,493,489
494,494,495,493,489
494,494,495,493,488
494,494,495,493,488
493,494,495,493,487
494,494,495,493,487
494,494,495,493,486
494,494,495,493,486
494,494,495,493,487
494,494,495,493,487
494,494,495,493,488
494,494,495,493,489
494,494,495,493,489
494,494,495,493,489
494,494,495,493,489
494,494,495,492,488
494,494,495,493,487
493,494,495,492,487
494,494,495,493,486
494,494,495,492,486
494,494,495,492,486
494,494,495,493,487
494,494,495,493,488
494,494,495,492,488
494,494,495,492,489
494,494,495,493,489
494,494,495,492,489
494,494,495,491,488
494,494,495,492,488
494,494,496,493,487
493,494,495,493,486
493,493,495,493,486
493,494,495,492,486
494,494,495,492,486
494,494,495,493,487
494,494,495,493,488
494,494,495,493,489
494,494,495,493,489
494,494,495,492,489
494,494,495,493,489
494,494,495,493,488
494,494,496,492,487
494,494,495,492,487
494,494,495,492,486
494,494,495,492,486
494,494,495,492,486
494,494,496,492,487
494,494,495,494,488
494,494,496,493,488
494,494,495,493,489
494,494,495,493,489
494,494,495,493,489
494,494,495,492,488
494,494,495,493,488
494,494,495,493,487
494,494,496,493,487
494,494,495,493,486
494,494,495,493,486
494,494,495,493,486
494,494,495,492,487
494,494,495,493,488
494,494,495,493,489
494,494,495,493,489
494,494,495,493,489
494,494,495,493,489
494,494,495,493,488
494,494,495,493,488
493,494,496,493,487
494,494,495,492,486
493,494,495,492,486
494,494,495,493,486
494,494,495,493,487
494,494,495,493,488
494,494,495,493,488
493,494,495,492,489
494,494,495,492,489
494,494,495,493,489
494,494,495,493,489
494,494,495,493,488
494,494,495,493,487
494,494,496,493,487
494,494,495,492,486
494,494,495,492,486
494,494,496,492,486
494,494,495,492,487
493,494,495,492,488
494,495,495,493,489
494,494,495,493,489
494,494,495,493,489
494,494,495,492,489
494,494,495,492,488
494,494,495,493,487
494,494,496,493,487
494,494,495,492,487
494,494,495,493,486
494,494,495,493,486
494,494,495,493,487
494,494,495,493,488
494,494,495,493,488
494,494,495,493,489
494,494,495,493,489
494,494,495,493,489
494,494,495,493,489
494,493,495,493,488
494,494,495,492,487
494,494,495,493,487
494,494,495,493,486
494,494,495,492,486
494,494,495,493,486
494,494,495,493,487
494,494,495,493,488
494,494,495,493,488
494,494,496,492,489
494,494,495,493,489
494,494,495,492,489
494,494,495,492,488
494,494,495,493,488
493,494,495,492,487
494,494,495,493,487
494,494,495,492,486
494,494,495,492,486
494,494,495,492,486
494,494,495,492,487
494,494,495,492,488
494,494,495,492,488
494,494,495,493,489
494,494,495,492,489
494,494,495,493,489
494,494,495,492,488
494,494,495,492,487
494,494,495,492,487
494,494,495,492,486
494,494,495,492,486
494,494,495,493,486
494,494,495,493,487
494,494,495,493,488
494,494,495,492,488
494,494,495,493,489
494,494,495,493,489
494,494,495,493,489
494,494,495,493,488
494,494,495,493,488
493,494,495,492,487
494,494,495,491,486
494,494,495,492,486
494,494,495,493,486
494,494,495,492,486
494,494,495,492,487
494,494,495,493,488
494,494,495,493,488
494,494,495,493,489
494,494,495,493,489
494,494,495,492,489
494,494,495,492,488
493,494,495,492,487
494,494,495,491,487
494,494,495,493,486
494,494,495,493,486
493,494,495,493,486
494,494,495,493,487
494,494,496,495,488
494,494,495,492,488
494,494,495,492,489
494,494,496,493,489
494,494,495,493,489
494,494,495,492,489
494,494,495,492,488
494,494,495,493,487
493,493,495,493,487
494,494,495,493,486
494,494,495,492,486
494,494,496,493,486
494,494,495,493,487
494,494,495,493,488
494,494,495,492,488
494,494,495,493,489
494,494,495,493,489
493,494,495,493,489
494,494,495,492,488
494,494,495,492,487
494,494,495,492,487
494,494,495,492,486
494,494,495,492,486
494,494,495,492,486
494,494,495,492,486
494,494,495,493,487
493,494,495,493,488
494,494,495,492,488
494,494,495,492,489
494,494,495,492,489
494,494,495,492,489
494,494,495,493,488
494,494,495,493,487
494,494,495,493,487
494,494,495,493,486
494,494,495,493,486
494,494,495,493,486
494,494,495,492,487
494,494,495,493,488
493,494,495,493,488
494,494,495,493,489
494,494,495,493,489
494,494,495,493,489
494,494,495,493,488
494,494,495,493,488
494,494,495,492,487
494,494,495,493,486
494,494,495,493,486
494,494,495,493,486
493,494,495,493,487
493,494,495,493,487
494,494,495,493,488
494,494,495,493,489
494,494,495,493,489
494,494,496,493,489
494,494,495,493,489
494,494,495,493,488
494,494,495,492,487
495,494,495,492,487
494,494,495,493,486
494,494,495,493,486
494,494,495,493,486
494,494,495,493,487
494,494,495,493,488
494,494,495,492,488
494,494,495,492,489
494,494,495,492,489
494,494,495,493,489
494,494,495,493,488
494,494,495,492,488
494,494,495,492,487
494,494,495,493,487
494,494,495,493,486
494,494,495,492,486
494,494,496,493,487
494,494,495,493,487
494,494,495,492,488
494,494,495,493,489
494,494,495,493,489
494,494,495,493,489
494,494,495,493,489
494,494,495,492,488
494,494,495,492,488
494,494,495,492,487
494,494,495,492,486
493,494,495,494,486
494,494,495,492,486
494,494,495,493,487
494,494,495,493,488
494,494,495,493,488
494,494,495,492,489
494,494,495,492,489
494,494,495,493,489
494,494,495,493,489
494,494,495,492,488
494,494,495,492,487
494,494,495,493,487
494,494,495,492,486
494,494,495,492,486
494,494,495,493,486
495,494,495,493,487
494,494,495,492,488
494,494,495,492,488
494,494,495,492,489
494,494,495,492,489
494,494,495,492,489
494,495,495,493,488
494,494,495,493,487
494,494,495,492,487
494,494,495,492,486
494,494,495,492,486
494,494,495,493,486
494,494,495,492,487
494,494,495,492,487
494,494,495,493,488
494,494,496,493,489
494,494,495,493,489
494,494,495,493,489
494,494,495,493,489
494,494,495,493,488
494,494,495,493,487
494,494,495,493,487
494,494,495,493,486
494,494,495,493,486
494,494,495,493,486
494,494,495,493,487
494,494,496,493,488
494,494,495,493,489
494,494,495,493,489
494,494,495,493,489
494,494,495,493,489
494,494,495,493,488
494,494,495,493,488
494,494,495,492,487
494,494,495,493,486
494,494,495,493,486
494,494,495,493,486
494,494,495,493,487
494,493,495,493,487
494,494,495,492,488
494,495,495,492,489
494,495,495,493,489
494,494,495,493,489
494,494,495,493,489
494,494,495,493,488
494,494,495,492,488
494,494,495,492,487
494,494,495,493,486
494,494,495,493,486
494,494,495,492,486
494,494,495,493,487
494,494,495,493,488
494,494,495,493,488
494,494,495,493,489
494,494,495,492,489
494,494,495,493,489
494,494,495,493,488
494,494,495,492,488
494,494,495,493,487
494,494,495,493,487
494,494,495,493,486
494,494,495,493,486
494,494,495,493,487
494,494,495,493,487
494,494,495,493,488
494,494,495,492,489
494,494,495,493,489
494,494,495,493,489
494,494,495,492,489
494,494,495,493,488
494,494,495,493,488
494,495,495,493,487
494,494,495,493,486
494,494,495,492,486
494,494,495,492,486
494,494,495,492,487
494,494,495,493,487
494,494,495,493,488
494,494,495,493,489
494,494,495,493,489
494,495,495,493,489
494,495,496,493,488
494,494,495,493,488
494,494,495,493,487
494,494,495,493,487
494,494,495,493,486
494,494,495,493,486
494,494,495,492,486
494,494,495,493,487
494,494,495,493,488
494,494,495,492,489
494,494,495,492,489
494,494,495,493,489
494,494,495,493,489
494,494,495,493,488
494,494,495,492,488
494,494,495,493,487
494,494,495,492,487
494,494,495,493,486
494,494,495,492,486
494,494,495,493,487
494,494,495,493,487
494,494,495,493,488
494,494,495,493,489
494,494,495,492,489
494,494,495,492,489
494,494,495,493,489
494,494,495,491,488
494,494,495,492,487
494,494,495,493,487
494,494,495,493,486
494,494,495,493,486
494,494,495,493,486
494,494,495,493,487
494,494,495,493,488
493,494,495,493,489
494,494,495,493,489
494,494,495,493,489
494,494,495,493,489
494,494,495,493,488
494,494,495,493,488
494,494,495,493,487
494,494,495,493,487
494,494,495,493,486
494,494,495,493,486
494,494,495,492,487
494,494,495,493,487
494,494,495,493,488
494,494,495,493,489
494,495,495,493,489
494,494,495,493,489
494,494,495,493,489
494,494,495,493,488
494,494,495,493,488
494,494,495,493,487
494,494,495,492,486
494,494,495,493,486
494,494,495,493,487
494,494,495,493,487
494,494,495,493,488
494,494,495,493,489
494,494,495,493,489
494,494,495,492,489
494,494,495,493,489
494,494,495,493,488
494,494,495,493,488
494,494,495,493,487
494,494,495,493,487
494,494,495,493,486
494,494,495,493,486
494,494,495,493,487
494,494,495,493,487
494,494,495,493,488
494,494,495,493,489
494,494,495,493,489
494,494,495,493,489
494,494,495,493,489
494,494,495,492,488
494,494,495,493,487
494,494,495,493,487
494,494,495,493,487
494,494,495,493,486
494,494,495,492,486
494,494,495,493,487
494,494,495,493,488
493,494,495,493,489
494,494,495,492,489
494,494,495,493,489
494,494,495,493,489
494,494,495,493,489
494,494,495,493,488
494,494,495,493,487
495,494,495,493,487
494,494,495,493,486
494,494,495,492,486
494,495,495,493,487
494,494,495,493,487
494,494,495,493,488
494,494,495,493,489
493,494,495,493,489
494,495,495,492,489
495,494,495,493,489
494,494,495,493,488
495,494,495,493,488
494,494,495,493,487
494,494,495,493,487
494,494,495,493,486
494,494,495,493,487
494,494,495,493,487
494,494,495,493,488
494,494,495,493,488
494,494,495,493,489
494,494,495,493,489
494,494,495,493,489
494,494,495,493,489
494,494,495,493,488
494,494,495,493,487
494,494,495,493,487
494,495,495,493,486
494,494,495,493,487
494,494,495,494,487
494,494,495,492,487
494,494,495,493,488
494,494,495,493,489
494,494,495,493,489
494,494,495,493,489
494,495,495,493,489
494,494,495,493,488
494,494,495,493,488
494,494,495,493,487
494,494,495,493,487
494,494,495,493,486
494,494,495,493,487
494,494,495,493,487
494,494,495,493,488
494,494,495,493,488
494,494,495,492,489
494,494,495,493,489
494,494,495,493,489
494,494,495,493,489
494,494,495,493,488
494,494,495,493,488
494,494,495,492,487
493,494,495,493,486
494,494,495,493,486
494,494,495,493,487
494,494,495,492,487
494,494,495,492,488
494,494,495,492,488
494,494,495,493,489
494,494,495,493,489
494,494,495,493,489
494,494,495,493,488
494,494,495,493,488
494,494,495,493,487
494,494,495,493,487
494,494,495,493,486
495,494,495,493,486
495,494,495,492,487
494,495,495,492,487
493,494,495,492,488
494,494,495,493,489
494,494,495,493,489
495,494,495,493,489
494,494,495,493,489
494,495,495,493,488
494,495,495,493,488
493,494,495,493,487
495,495,495,492,486
494,495,495,492,486
494,495,495,493,487
494,494,495,493,487
494,494,495,492,488
494,494,495,493,488
494,494,495,493,489
494,495,495,492,489
494,495,495,493,489
494,494,495,493,488
494,494,495,493,488
494,494,495,493,487
494,494,495,492,486
494,494,495,492,486
493,494,495,493,486
494,494,495,493,487
494,495,495,493,487
494,495,495,493,488
494,495,495,493,489
494,495,495,493,489
494,494,495,493,489
494,495,495,493,489
494,494,495,493,488
494,494,495,493,488
494,494,495,493,487
494,494,495,493,487
494,494,495,493,486
494,494,495,493,486
494,494,495,493,487
494,495,495,493,488
494,495,495,493,488
494,495,495,493,489
494,495,495,493,489
494,494,495,493,489
494,494,495,493,489
494,494,495,493,488
494,494,495,493,487
494,494,495,493,487
494,494,495,493,486
494,495,495,493,486
494,494,495,493,487
494,494,495,493,487
494,494,495,493,488
494,494,495,493,489
494,495,495,493,489
494,495,495,493,489
494,494,495,493,489
494,494,495,493,488
494,494,495,493,488
494,494,495,493,487
494,494,495,495,487
494,494,495,492,486
494,495,495,492,487
494,494,495,493,487
494,494,495,493,488
494,495,495,493,488
494,495,495,493,489
494,495,495,492,489
494,495,495,492,489
494,494,495,493,489
494,494,495,493,488
494,495,495,493,488
494,495,495,493,487
494,494,495,493,486
494,495,495,493,486
494,494,495,493,487
494,495,495,493,487
494,494,495,493,488
494,494,495,493,489
494,494,495,493,489
494,495,495,493,489
494,494,495,493,489
494,494,495,493,489
494,495,495,493,488
494,495,495,493,487
494,494,495,493,487
494,494,495,493,486
494,494,495,493,486
494,494,495,493,487
494,494,495,493,488
494,494,495,493,488
493,494,495,493,489
494,495,495,493,489
494,494,495,492,489
494,495,495,492,489
494,495,495,493,488
494,494,495,493,488
494,494,495,493,487
495,495,495,492,486
494,494,495,493,486
494,494,495,493,487
494,494,495,493,487
494,494,495,493,488
494,494,495,493,489
494,494,495,493,489
494,494,495,493,489
494,494,495,492,489
494,494,495,493,489
494,494,495,491,488
494,494,495,492,487
494,494,495,493,487
494,494,495,493,486
494,494,495,493,486
494,495,495,493,487
494,494,495,493,487
494,494,495,493,488
494,494,495,493,489
494,494,495,493,489
494,494,495,493,489
494,494,495,493,489
494,494,495,493,488
494,494,495,493,488
494,494,495,493,487
494,494,495,493,486
494,494,495,493,486
493,494,495,493,486
494,494,495,493,487
494,494,495,493,488
494,494,495,493,488
494,494,495,493,489
494,494,495,493,489
494,494,495,492,489
494,494,495,493,489
494,495,495,492,488
494,494,495,493,487
494,494,495,493,487
494,494,495,493,486
494,494,495,493,486
494,494,495,493,487
494,494,495,493,487
494,494,495,493,488
494,494,495,493,489
494,494,495,493,489
494,494,495,493,489
494,494,495,493,489
494,494,495,493,488
494,494,495,493,488
494,494,495,493,487
494,494,495,493,487
494,494,495,493,486
494,494,495,493,487
494,494,495,493,487
494,494,495,493,488
493,494,495,493,489
493,494,495,493,489
493,494,495,493,489
494,495,495,493,489
494,494,495,493,489
494,494,495,493,488
494,495,495,493,488
494,494,495,493,487
494,494,495,493,487
494,495,495,493,487
494,494,495,494,487
494,494,495,493,487
494,494,495,493,488
494,494,495,492,489
494,494,495,492,489
495,494,495,493,489
494,494,495,493,489
494,495,495,493,489
494,495,495,493,488
494,494,495,493,487
494,494,495,493,487
494,494,495,493,486
494,495,495,493,486
494,495,495,493,487
494,494,495,493,488
493,494,495,493,488
494,494,495,493,489
494,495,495,493,489
494,494,495,492,489
494,494,495,493,489
494,494,495,493,488
494,494,495,493,487
494,494,495,493,487
494,494,495,493,487
494,494,495,493,486
494,494,495,493,486
494,494,495,493,487
494,494,495,492,488
494,494,495,493,488
494,494,495,493,489
494,494,495,493,489
494,495,495,493,489
494,494,495,493,488
494,495,495,493,488
494,495,495,493,487
494,494,495,493,487
494,494,495,493,486
494,494,495,493,487
494,494,495,493,487
494,494,495,493,487
494,494,495,493,488
494,494,495,493,489
494,494,495,493,489
494,494,495,493,489
494,494,495,493,489
494,494,495,493,488
494,495,495,493,488
494,495,495,493,487
494,495,495,493,487
494,494,495,493,487
494,494,495,493,487
494,494,495,493,487
494,494,495,493,488
494,494,495,493,489
494,494,495,493,489
494,494,495,493,489
494,495,495,493,489
494,494,495,493,489
494,495,495,493,488
493,494,495,493,488
494,494,495,493,487
494,494,495,493,487
494,494,495,493,487
494,494,495,493,487
494,494,495,493,488
494,494,495,493,488
494,494,495,493,489
494,494,496,493,489
494,494,495,493,489
494,494,495,493,489
494,495,495,493,489
494,494,495,493,488
494,494,495,493,487
494,494,495,493,487
494,494,495,493,487
494,495,495,493,487
494,495,495,493,487
494,495,495,493,488
494,494,495,493,489
494,494,495,493,489
494,494,495,493,489
494,494,495,493,489
494,494,495,493,489
494,494,495,493,488
494,494,495,493,488
494,494,495,493,487
494,494,495,493,487
494,494,495,493,487
494,494,495,493,487
495,494,495,493,488
494,494,495,493,488
494,494,495,493,489
494,494,495,493,489
494,494,495,493,489
494,494,495,493,489
494,494,495,493,489
494,494,495,493,488
494,494,495,493,487
494,495,495,493,487
494,494,495,493,486
494,494,495,493,486
494,494,495,493,487
494,494,495,493,488
494,494,495,493,488
494,494,495,493,489
494,494,495,493,489
494,494,495,493,489
494,494,495,493,489
494,494,495,493,488
494,494,496,493,487
494,494,495,493,487
494,494,495,493,486
494,494,495,493,486
494,494,495,493,486
494,495,495,492,487
494,494,495,492,488
494,494,495,493,489
494,494,495,493,489
494,494,495,493,489
494,494,496,494,489
494,494,495,492,488
494,494,495,492,488
494,494,495,493,487
494,494,495,493,487
494,494,495,493,486
494,494,495,493,486
494,494,495,492,487
494,494,495,493,487
494,494,495,493,488
494,494,495,493,489
494,494,495,493,489
494,494,495,493,489
494,494,495,493,489
494,494,495,493,488
494,494,495,493,488
494,494,495,493,487
494,494,495,493,487
494,494,495,493,487
493,494,496,493,487
494,495,495,492,487
494,494,495,493,488
494,494,495,493,489
494,494,495,493,490
494,494,495,493,490
494,494,495,493,490
494,494,495,493,489
494,494,495,493,489
494,494,495,493,488
494,494,495,493,487
494,494,495,493,487
494,494,495,493,487
494,494,495,493,487
494,494,495,493,488
494,494,495,493,489
494,494,495,493,489
494,494,495,493,489
494,494,495,493,489
494,494,495,493,489
493,494,495,493,489
493,494,495,493,488
494,494,495,493,487
494,493,495,493,487
494,494,495,494,487
494,494,495,493,487
494,495,496,493,487
494,494,495,493,488
494,494,495,493,488
494,494,495,493,489
494,494,495,493,489
494,494,495,493,489
494,494,495,493,489
494,495,495,493,488
494,495,495,493,487
494,494,495,493,487
494,494,495,493,486
494,495,495,493,486
494,494,495,493,486
494,494,495,493,487
494,494,495,493,488
494,494,495,493,488
494,494,495,493,489
494,494,495,493,489
494,494,495,493,488
494,494,495,492,488
494,494,495,493,487
494,494,495,493,487
494,494,495,493,486
494,494,495,493,486
494,494,495,493,486
494,494,495,493,487
494,494,495,493,487
494,494,495,493,488
494,494,495,493,489
494,494,495,493,489
494,494,495,493,489
494,494,495,493,489
494,494,495,493,488
494,494,495,493,487
494,494,495,493,487
493,494,495,493,486
494,494,495,493,486
494,494,495,493,486
494,494,495,493,487
494,494,495,493,488
494,494,495,493,489
494,494,495,493,489
494,494,495,493,489
494,494,495,493,489
494,494,496,493,488
494,494,496,493,488
494,494,495,493,487
494,494,495,493,486
494,494,495,493,486
494,494,495,493,486
494,494,495,493,487
494,494,495,493,487
494,494,495,493,488
494,494,495,493,489
494,494,495,493,489
494,494,495,493,489
494,494,495,493,489
494,494,495,493,488
494,494,495,493,488
494,494,495,493,487
494,494,495,492,486
494,494,495,493,486
494,494,496,494,487
494,494,495,492,487
494,494,495,493,488
494,494,495,493,489
494,494,495,493,489
494,494,495,493,489
494,494,495,493,489
494,494,495,493,489
494,494,495,493,488
494,494,495,493,487
494,494,495,493,487
493,494,495,493,486
493,494,495,493,487
494,494,495,493,487
494,494,495,493,488
494,494,495,493,488
494,494,495,493,489
494,493,495,493,489
494,494,495,493,489
494,494,495,493,489
494,494,495,493,489
494,494,495,493,488
494,494,495,493,487
494,494,495,493,487
494,494,495,493,487
494,494,495,493,487
494,494,495,493,487
494,494,495,493,488
494,494,495,493,489
494,494,495,493,489
494,494,495,493,489
493,494,495,493,489
494,494,495,493,489
494,494,495,493,488
494,494,495,493,488
494,494,495,493,487
494,494,495,493,487
494,494,495,493,487
494,494,495,493,487
494,494,495,493,488
494,494,495,493,488
494,494,495,493,489
494,494,495,493,489
494,494,495,493,489
494,494,495,493,489
494,494,495,494,489
494,494,495,493,488
494,494,495,492,488
494,494,495,493,487
494,494,495,493,486
494,494,495,493,487
494,494,495,493,487
494,494,495,493,488
494,494,495,493,489
494,494,495,493,489
494,494,495,493,489
494,494,495,493,489
494,494,495,493,489
494,494,495,493,488
494,494,495,493,488
494,494,495,493,487
494,494,495,493,487
494,494,495,493,487
494,494,495,493,487
494,494,495,493,487
494,494,495,493,488
494,494,495,493,489
494,494,495,493,489
494,493,495,493,489
494,494,495,493,489
494,494,495,493,489
494,494,495,493,488
494,494,495,493,487
494,494,495,493,487
494,494,495,493,486
494,494,495,493,487
494,494,495,493,487
494,494,495,493,488
494,493,495,493,488
494,493,495,493,489
494,494,495,493,489
494,494,495,493,489
494,493,495,493,489
494,494,495,493,488
494,494,495,493,488
494,494,495,493,487
494,493,495,493,486
494,494,495,493,486
494,494,495,493,487
494,494,495,493,487
494,494,495,493,488
494,494,495,493,489
494,494,495,493,489
494,494,495,493,489
494,493,495,493,489
494,494,495,493,489
494,494,495,493,488
494,494,495,493,487
494,494,495,493,487
494,494,495,493,486
494,493,495,493,486
494,493,495,493,487
494,493,495,493,487
494,494,495,493,488
494,494,495,493,489
494,493,495,494,489
494,493,495,493,489
495,493,495,493,489
494,493,495,493,489
494,494,495,493,488
495,493,495,493,487
494,494,495,493,487
494,494,495,493,487
494,494,495,493,487
494,494,495,493,487
494,494,495,493,488
494,494,495,493,489
494,493,495,493,489
494,493,495,493,489
494,494,495,493,489
494,493,495,493,489
494,494,495,493,488
494,494,495,493,488
494,494,495,493,487
494,493,495,493,487
494,494,495,493,487
494,494,495,493,487
494,493,495,493,488
494,494,495,493,489
494,493,495,493,489
494,494,495,493,489
494,493,495,493,490
494,493,495,493,489
494,493,495,493,489
494,493,495,493,488
494,493,495,493,488
494,493,495,493,487
494,493,495,493,487
494,493,495,493,487
494,493,495,493,487
494,493,495,493,488
494,494,495,493,489
494,494,495,493,489
494,494,495,493,489
494,494,495,493,489
494,494,495,493,489
494,493,495,493,488
494,494,495,493,488
495,494,495,493,487
494,493,495,493,487
494,494,495,493,486
494,494,495,493,487
495,493,495,493,487
494,494,495,493,488
494,493,495,493,489
494,494,495,493,489
494,493,495,493,489
494,493,495,493,489
494,493,495,493,489
494,493,495,493,488
494,493,495,493,487
494,493,495,493,487
494,494,495,493,487
494,494,495,493,487
494,494,495,493,487
494,494,495,493,488
494,493,495,493,488
494,494,495,493,489
494,494,495,493,490
494,493,495,493,489
494,493,495,493,489
494,493,495,493,488
494,493,495,493,488
494,493,495,493,487
494,493,495,493,487
494,493,495,493,486
494,493,495,493,487
494,493,495,493,487
494,493,495,493,488
494,493,495,493,489
494,493,495,493,489
494,494,495,493,489
494,493,495,493,489
496,493,495,493,489
496,493,495,493,488
495,493,495,493,488
495,493,495,493,487
494,494,495,493,486
494,493,495,493,487
494,493,495,493,487
494,493,495,493,488
494,494,495,493,489
494,493,495,493,489
494,494,495,493,489
494,493,495,493,489
494,493,495,493,489
494,493,495,493,488
494,494,495,493,488
494,493,495,493,487
494,493,495,493,487
494,493,495,493,487
494,493,495,493,487
494,493,495,493,487
494,493,495,493,488
494,493,495,493,489
495,493,495,493,489
494,493,495,493,489
494,493,495,493,489
494,493,495,493,489
494,493,495,493,488
494,493,495,493,488
494,493,495,493,487
494,493,495,493,487
494,493,495,493,487
495,493,495,493,487
494,493,495,493,488
495,493,495,493,488
494,493,495,493,489
494,493,495,493,489
494,493,495,493,489
494,493,495,493,489
494,493,495,493,489
494,493,495,493,488
494,493,495,493,487
494,493,495,493,487
494,493,495,493,486
495,493,495,493,486
495,493,495,493,487
494,493,495,494,488
494,493,495,493,488
494,493,495,493,489
495,493,495,493,489
494,493,495,493,489
494,493,495,493,489
494,493,495,493,488
494,493,495,493,487
494,493,495,493,487
495,493,495,493,486
495,493,495,493,486
495,493,495,493,486
494,493,495,493,487
494,493,495,493,488
494,493,495,493,488
494,493,495,493,489
494,493,495,493,489
494,493,495,493,489
494,493,495,493,488
494,493,495,493,487
494,493,495,493,487
494,493,495,493,486
494,493,495,493,486
494,493,495,493,486
495,493,495,493,487
495,493,495,493,487
495,493,495,493,488
495,493,495,493,489
494,493,495,493,489
494,493,495,493,489
494,493,495,493,489
494,493,495,493,488
493,493,495,493,488
494,493,495,493,487
494,493,495,493,487
496,493,495,493,486
494,493,495,493,487
494,493,495,493,487
494,493,495,493,488
495,493,495,493,489
494,493,495,493,489
494,493,495,493,489
494,493,495,493,489
494,493,495,493,489
494,493,495,493,488
495,492,495,493,487
495,493,495,493,487
495,493,495,493,486
494,493,495,493,487
494,493,495,493,487
494,493,495,493,488
494,493,495,493,489
495,493,495,493,489
495,492,495,493,489
495,492,495,493,489
495,493,495,493,489
494,493,495,493,488
494,492,495,493,487
494,493,495,493,487
494,492,495,493,486
495,493,495,493,486
495,492,495,493,486
495,493,495,493,487
494,493,495,493,488
494,493,495,493,488
494,493,495,493,489
494,492,495,493,489
494,492,495,493,489
494,493,495,493,488
494,492,495,493,488
494,492,495,493,487
494,492,495,493,487
494,492,495,493,486
494,493,495,493,486
494,493,495,493,487
494,493,495,493,487
495,493,495,493,488
495,493,495,493,489
495,493,495,493,489
494,493,495,493,489
494,493,495,493,489
494,493,495,493,488
494,492,495,493,488
494,493,495,493,487
494,493,495,493,487
494,493,495,493,486
494,493,495,493,487
494,493,495,493,487
494,493,495,493,488
494,492,495,493,489
494,493,495,493,489
494,492,495,493,489
495,492,495,493,489
494,492,495,493,489
494,492,495,493,488
494,492,495,493,488
494,492,495,493,487
494,492,495,493,487
494,492,495,493,487
494,492,495,493,487
494,492,495,493,488
495,493,495,493,488
494,492,495,493,489
494,492,495,493,489
494,492,495,493,489
495,492,495,493,489
494,493,495,493,489
494,493,495,493,488
494,492,495,493,487
494,493,495,493,487
494,493,495,493,487
494,493,495,493,487
494,492,495,493,487
494,492,495,493,488
494,492,495,493,489
494,492,495,493,489
494,492,495,493,489
495,493,495,493,489
495,492,495,493,489
495,492,495,493,488
494,492,495,493,488
494,493,495,493,487
494,493,495,493,487
494,492,495,493,487
494,492,495,493,487
495,492,495,493,487
495,493,495,493,488
495,492,495,493,489
494,492,495,493,489
494,492,495,493,489
494,492,495,493,489
494,492,495,493,489
495,492,495,493,488
495,493,495,493,487
495,492,495,493,487
495,492,495,493,486
494,492,495,493,486
494,492,495,493,487
494,492,495,493,488
494,492,495,493,488
494,492,495,493,489
494,492,495,493,489
494,492,495,493,489
494,492,495,493,489
494,492,495,493,489
494,492,495,493,488
494,492,495,493,487
494,492,495,493,487
494,492,495,493,487
494,492,495,493,487
494,492,495,493,488
495,492,495,493,488
494,492,495,493,489
494,492,495,494,490
494,492,495,493,490
494,492,495,493,490
495,492,495,493,489
495,492,495,493,488
494,492,495,494,488
494,492,495,494,487
494,492,495,495,487
494,492,495,493,487
495,492,495,494,487
494,492,495,493,488
495,492,495,493,489
494,492,495,493,489
494,492,495,493,490
494,492,495,493,490
494,492,495,493,489
494,492,495,493,489
494,492,495,493,488
494,492,495,493,488
494,492,495,493,487
495,492,495,493,487
494,492,495,493,487
494,492,495,493,487
495,492,495,493,488
494,492,495,493,489
494,492,495,493,490
494,492,495,493,490
494,492,495,493,490
494,492,495,493,489
494,492,495,493,489
494,492,495,493,488
494,492,495,493,487
495,492,495,493,487
495,492,495,493,487
494,492,495,493,487
494,492,495,493,488
494,492,495,493,489
494,492,495,493,489
494,492,496,493,490
494,492,495,493,490
494,492,495,493,490
494,492,495,493,489
494,492,495,493,488
494,492,495,493,488
494,492,495,493,487
494,492,495,493,487
495,492,495,493,487
496,492,495,493,487
495,492,495,493,488
494,492,495,493,489
494,492,495,493,489
494,492,495,493,490
494,492,495,493,489
495,492,495,493,489
494,492,495,493,488
494,492,495,493,488
494,492,495,493,487
494,492,495,493,487
494,492,495,493,487
495,492,495,493,487
494,492,495,493,488
493,492,495,493,488
494,492,495,493,489
494,492,495,493,489
494,492,495,493,489
494,492,495,493,489
494,492,495,493,489
494,492,495,493,488
494,492,495,493,488
494,492,495,493,487
495,491,495,493,487
495,492,495,493,487
495,492,495,493,487
495,492,495,493,488
494,492,495,493,489
494,492,495,493,489
494,492,495,493,489
494,492,495,493,489
494,492,495,493,489
494,492,495,493,488
494,492,495,493,488
494,492,495,493,487
494,492,495,493,487
494,492,495,493,487
494,492,495,493,487
494,492,495,493,487
495,492,495,493,488
495,492,495,493,489
494,492,495,493,489
495,492,495,493,490
494,492,495,493,489
494,492,495,493,489
494,492,495,493,488
494,492,495,493,488
494,492,495,493,487
494,492,495,493,487
494,492,495,493,487
494,491,495,493,487
494,492,495,493,488
495,492,495,493,489
494,492,495,493,489
494,492,495,493,490
495,491,495,493,490
494,491,495,493,489
494,491,495,493,489
494,492,495,493,488
494,492,495,494,488
494,492,495,494,487
494,492,495,493,487
496,492,495,493,487
496,492,495,493,488
494,492,495,493,488
495,492,495,493,489
495,492,495,493,490
495,492,495,493,490
495,492,495,493,490
495,492,495,493,489
495,492,495,493,489
494,492,495,493,488
494,491,495,493,487
494,492,495,493,487
494,492,495,493,487
494,492,495,493,487
494,492,495,493,488
495,492,495,493,489
494,491,495,493,489
495,492,495,493,489
495,491,495,493,490
495,492,495,493,489
494,491,495,493,489
494,492,495,493,488
494,491,495,493,488
494,491,495,493,487
494,491,495,493,487
494,492,495,493,487
494,492,495,493,488
495,491,495,493,488
494,491,495,493,489
495,491,495,493,489
495,491,495,494,490
494,492,495,493,490
494,492,495,493,489
494,492,495,493,489
495,492,495,493,488
494,491,495,493,487
494,492,495,493,487
494,492,495,493,487
494,491,495,493,487
494,491,495,493,488
494,492,495,493,489
494,492,495,493,489
494,491,495,493,490
495,492,495,493,490
494,492,495,493,489
494,491,495,493,489
494,492,495,493,488
494,491,495,493,488
494,491,495,493,487
494,491,495,493,487
494,491,495,493,487
495,491,495,493,487
494,492,495,493,488
493,491,495,493,489
494,492,495,493,489
494,491,495,493,490
495,492,495,493,490
495,491,495,493,489
494,491,495,493,489
494,491,495,493,488
495,491,495,493,487
495,491,495,493,487
494,491,495,493,487
494,491,495,493,487
494,491,495,493,488
494,491,495,493,488
495,491,495,493,489
494,491,495,493,490
494,491,495,493,490
494,491,495,493,490
494,491,495,493,489
494,491,495,493,489
494,491,495,493,488
495,492,495,493,487
495,491,495,493,487
494,491,495,493,487
494,491,495,493,487
496,491,495,493,488
495,491,495,493,489
495,491,495,493,489
495,491,495,493,490
495,491,495,493,489
495,491,495,493,489
495,491,495,493,489
494,492,495,493,488
494,490,495,493,487
494,491,496,494,487
493,491,495,493,487
494,491,495,494,487
493,491,495,494,488
493,491,495,493,488
495,491,495,493,489
494,491,495,493,490
494,491,495,493,490
494,491,495,493,490
495,491,495,493,489
494,491,495,494,489
495,491,495,493,488
495,491,495,493,487
494,491,495,492,487
495,491,496,494,487
494,491,495,493,487
495,491,495,493,488
494,488,491,491,490
498,493,496,494,489
494,491,495,493,490
495,491,495,493,490
494,491,495,493,490
494,491,495,493,489
494,491,495,493,488
494,491,495,493,488
494,491,495,493,487
494,491,495,493,487
494,491,495,493,487
494,491,495,493,487
495,491,495,493,488
494,491,495,493,489
494,491,495,493,489
494,491,495,493,490
494,491,495,493,489
493,491,495,493,489
494,491,495,493,489
495,491,495,493,488
495,491,495,493,487
493,489,496,493,488
496,492,495,493,487
494,491,495,493,487
494,491,495,493,488
494,491,495,493,489
494,491,495,493,489
494,491,495,493,490
495,491,495,493,490
494,491,495,494,489
494,491,495,493,489
494,491,495,493,488
494,491,495,493,488
494,491,495,493,487
494,491,495,493,487
494,491,495,493,487
494,491,495,493,487
495,491,495,493,488
494,491,495,493,489
494,491,495,493,489
494,491,495,493,490
494,491,495,493,489
494,491,495,494,489
494,491,495,493,489
494,491,495,493,488
495,491,495,493,487
495,491,495,494,487
494,491,495,493,487
494,491,495,493,487
494,491,495,493,488
493,491,495,493,488
493,491,495,493,489
495,491,495,493,489
495,491,495,493,490
494,491,495,493,489
494,491,495,493,489
494,491,495,493,488
495,491,495,493,488
495,491,495,493,487
495,491,495,493,487
495,491,495,493,487
494,491,495,494,487
494,491,495,493,488
495,491,495,493,489
495,491,495,493,489
494,491,495,494,490
493,491,495,494,490
494,491,495,494,489
494,491,495,493,489
494,491,495,493,488
494,491,495,493,488
494,491,495,493,487
495,491,495,493,487
495,491,495,493,487
494,491,495,493,487
494,491,495,493,489
495,491,495,493,489
494,491,495,493,490
494,491,495,493,490
494,491,495,493,490
494,491,495,493,489
494,491,495,493,489
495,490,495,493,488
495,491,495,493,487
495,491,495,493,487
494,491,495,493,487
494,491,495,493,487
494,491,495,493,488
494,491,495,494,489
494,491,495,495,490
494,491,495,493,490
494,491,495,493,490
494,491,495,493,489
494,490,495,493,489
494,491,495,493,488
494,491,495,493,488
494,491,495,493,487
494,490,494,492,486
492,494,498,495,487
495,491,495,493,487
494,491,495,493,488
494,491,495,493,489
494,490,495,493,489
494,490,495,493,489
494,491,495,493,489
494,491,495,493,489
495,490,495,493,488
495,490,495,493,488
495,490,495,493,487
495,490,495,493,487
495,491,495,493,487
494,490,495,493,487
495,491,495,493,488
495,491,495,493,488
493,491,495,493,489
493,491,495,493,489
494,491,495,494,490
494,490,495,493,489
494,491,495,493,489
494,491,495,493,488
494,490,495,493,488
494,491,495,493,487
494,491,495,493,487
494,490,495,493,487
494,491,495,493,487
494,491,495,493,488
494,490,495,493,489
494,491,495,493,489
494,491,495,493,490
493,491,495,493,489
494,491,495,493,489
494,491,495,493,489
494,491,495,493,488
494,491,495,493,487
494,491,495,493,487
494,491,495,493,487
494,491,495,493,487
494,491,495,493,488
495,491,495,493,488
494,491,495,493,489
493,491,495,493,489
494,490,495,493,490
494,490,495,493,489
494,491,495,493,489
494,490,495,493,488
494,490,495,493,488
494,491,495,493,487
494,491,495,493,487
494,490,495,493,487
494,491,495,493,487
494,491,495,493,488
494,491,495,494,489
494,491,495,493,489
494,490,495,493,490
495,491,495,493,490
494,491,495,493,489
494,491,495,493,489
494,491,495,493,488
494,491,495,493,487
494,491,495,493,487
494,491,495,493,487
493,491,495,493,487
494,490,495,493,487
493,490,495,493,488
493,490,495,493,489
494,491,495,493,489
494,491,495,493,490
494,491,495,493,489
495,490,495,493,489
494,491,495,493,488
494,491,495,493,488
494,490,495,493,487
494,491,495,493,487
494,490,495,493,487
494,490,495,493,487
494,490,495,493,488
494,491,495,493,488
494,491,495,493,489
494,491,495,493,489
494,491,495,493,489
494,491,495,493,489
494,491,495,493,489
495,490,495,493,488
495,491,495,493,487
494,490,495,493,487
494,491,495,493,487
493,491,495,493,487
493,491,495,493,487
494,490,495,493,488
494,491,495,493,489
494,491,495,493,489
495,491,495,493,489
495,491,495,493,489
494,491,495,493,489
493,491,495,493,488
493,490,495,493,488
494,491,495,493,487
494,491,495,493,487
494,491,495,493,487
494,490,495,493,487
494,491,495,493,488
494,490,495,493,488
494,490,495,493,489
494,490,495,493,489
494,490,495,493,489
494,490,495,493,489
494,490,495,493,489
493,491,495,493,488
493,491,495,493,487
494,491,495,493,487
494,490,495,493,487
494,490,495,493,487
494,490,495,493,487
495,491,495,493,488
494,491,495,493,489
492,491,495,493,489
492,490,495,493,489
493,490,495,493,489
496,490,495,493,489
495,490,495,493,488
495,490,495,493,488
494,491,495,493,487
493,491,495,493,487
493,491,495,493,487
494,491,495,493,487
494,491,495,493,488
494,490,495,493,488
494,491,495,493,489
493,491,495,493,489
494,491,495,493,489
495,491,495,493,489
494,490,495,493,489
494,491,495,493,488
494,491,495,493,487
494,491,495,493,487
494,491,495,493,486
494,491,495,493,487
494,491,495,493,487
494,491,495,493,488
494,491,495,493,489
494,491,495,493,489
494,490,495,493,489
494,490,495,493,489
494,491,495,493,489
494,490,495,493,488
494,490,495,494,488
493,491,495,494,488
493,491,495,493,487
494,491,495,493,487
494,491,495,493,487
494,490,495,493,488
494,490,495,493,488
494,491,495,493,489
494,491,495,493,489
493,491,495,493,489
494,491,495,493,489
494,490,495,493,489
494,491,495,493,488
494,490,495,493,488
494,491,495,493,487
494,491,495,493,487
494,491,495,493,487
494,491,495,493,487
494,491,495,493,488
494,491,495,493,489
494,491,495,493,489
494,491,495,493,489
494,491,495,493,489
494,491,495,493,489
494,491,495,493,489
494,491,495,493,488
494,491,495,493,487
494,491,495,493,487
493,491,495,493,486
494,491,495,493,487
494,491,495,493,487
494,491,495,493,488
494,490,495,493,489
494,491,495,493,489
494,491,495,493,489
494,491,495,493,489
494,491,495,493,489
494,490,495,493,488
494,491,495,493,488
494,491,495,493,487
494,491,495,493,487
493,491,495,493,487
494,491,495,493,487
494,491,495,493,488
493,490,495,493,488
493,490,495,493,489
493,491,495,493,489
495,491,495,493,489
495,491,495,493,489
495,491,495,493,489
494,491,495,493,488
494,491,495,493,487
494,491,495,493,487
494,491,495,493,486
494,491,495,493,487
494,491,495,493,487
494,491,495,493,488
494,491,495,493,489
494,491,495,493,489
494,491,495,493,489
493,491,495,493,489
494,491,495,493,489
494,491,495,493,488
494,491,495,493,488
494,490,495,493,487
494,491,495,493,487
494,491,495,493,486
493,491,495,493,487
493,491,495,493,487
494,490,495,493,488
494,490,495,493,489
494,491,495,493,489
494,491,495,493,489
494,491,495,493,489
494,491,495,493,488
494,490,495,493,488
494,491,495,493,487
494,491,495,493,487
494,490,495,493,486
494,490,495,493,487
494,490,495,493,487
494,491,495,493,488
494,491,495,493,489
493,491,495,493,489
494,491,495,493,489
494,491,495,493,489
494,491,495,493,489
494,491,495,493,488
494,490,495,493,488
494,491,495,493,487
494,491,495,493,487
494,490,495,493,487
494,490,495,493,487
494,490,495,493,487
494,491,495,493,488
494,491,495,493,489
494,490,495,493,489
493,490,495,493,489
493,490,495,493,489
494,491,496,493,489
494,491,495,493,488
494,491,495,493,488
494,491,495,493,487
494,491,495,493,487
494,491,495,493,487
494,491,495,493,487
494,490,495,493,488
494,490,495,493,488
494,491,495,493,489
494,491,495,493,489
493,490,495,493,489
494,491,495,493,489
494,491,496,493,489
494,491,495,493,488
494,490,495,493,487
494,490,495,493,487
493,490,495,493,487
494,491,495,493,487
494,490,495,493,488
494,491,495,493,488
494,491,495,493,489
494,491,495,493,489
494,491,495,493,489
493,491,495,493,489
495,491,495,493,489
494,491,495,493,488
494,490,495,493,488
494,491,495,493,487
494,491,495,493,486
494,491,495,493,486
494,491,495,493,487
494,490,495,493,488
495,490,495,493,488
495,490,495,493,489
493,491,495,493,489
494,491,495,493,489
494,491,495,493,489
494,491,495,493,488
494,491,495,493,488
494,490,495,493,487
494,490,495,493,487
494,490,495,493,486
494,490,495,493,487
494,491,495,493,487
494,490,495,493,488
494,490,495,493,489
495,490,495,493,489
495,490,495,493,489
495,490,495,493,489
494,490,495,493,489
493,490,495,493,488
493,490,495,493,488
493,490,495,493,487
493,491,495,493,487
494,490,495,493,487
493,490,495,493,487
493,490,495,493,488
494,490,495,493,488
494,490,495,493,489
494,490,495,493,489
494,490,495,493,489
494,490,495,493,489
493,490,495,493,489
494,490,495,493,488
494,491,495,493,487
494,490,495,493,487
494,490,495,493,486
494,490,495,493,487
494,490,495,493,487
494,491,495,493,488
493,490,495,493,488
494,490,495,493,489
495,490,495,493,489
495,490,495,493,489
494,490,495,493,489
493,491,495,493,488
492,490,495,493,488
494,491,495,493,487
494,490,495,493,487
494,490,495,493,486
494,491,495,493,487
494,490,495,493,488
494,490,495,493,488
494,491,495,493,489
493,490,495,493,489
494,490,495,493,489
494,491,495,493,489
494,491,495,493,489
494,490,495,493,488
494,490,495,493,487
493,490,495,493,487
494,490,495,493,487
494,491,495,493,487
494,491,495,493,487
494,490,495,493,488
494,491,495,493,488
494,490,495,493,489
494,490,495,493,489
494,491,495,493,489
494,491,495,493,489
494,490,495,493,488
494,490,495,493,488
493,490,495,493,487
493,490,495,493,487
494,490,495,493,486
494,490,495,493,487
494,490,495,493,487
494,490,495,493,488
494,491,495,493,489
494,490,495,493,489
494,491,495,493,489
494,490,495,493,489
494,491,495,493,489
494,490,495,493,488
493,490,495,493,487
494,490,495,493,487
495,490,495,493,487
494,490,495,493,487
494,491,495,492,487
493,491,495,493,487
494,490,495,493,488
494,490,495,493,489
494,490,495,493,489
494,490,495,493,489
494,491,495,493,489
494,490,495,493,488
495,490,495,493,488
494,490,495,493,487
493,490,495,493,487
494,490,495,493,487
494,490,495,493,487
494,490,495,493,487
495,490,495,493,488
494,490,495,493,489
493,490,495,493,489
493,490,495,493,489
493,490,495,493,489
494,491,495,493,489
494,491,495,493,488
494,490,495,493,488
494,490,495,493,487
494,490,495,493,487
494,490,495,493,487
494,491,495,493,487
494,490,495,493,488
494,490,495,493,488
494,491,495,493,489
494,490,495,493,489
494,490,495,493,489
494,491,495,493,489
494,490,495,492,488
494,490,495,493,488
494,490,495,493,487
494,490,495,493,487
494,491,495,493,485
487,484,490,488,487
492,488,500,498,487
492,486,491,489,491
501,490,493,494,492
501,493,495,490,489
488,485,490,489,489
488,498,507,496,492
501,494,497,494,489
494,490,495,493,488
494,490,495,493,488
494,490,495,493,487
494,490,495,493,487
494,491,495,493,487
494,491,495,493,487
494,490,495,493,488
494,490,495,493,488
494,490,495,493,489
494,490,495,493,489
494,490,495,493,489
494,490,495,493,489
494,490,495,493,489
494,490,495,493,488
494,491,495,493,487
494,490,495,493,487
494,490,495,493,487
494,490,495,493,487
494,490,495,493,487
494,491,495,493,488
494,490,495,493,488
494,490,495,493,489
494,490,495,493,489
494,490,495,493,489
493,490,495,493,489
494,490,495,493,488
494,490,495,493,488
494,490,495,493,487
494,490,495,493,486
494,491,495,493,486
494,491,495,493,486
494,490,495,493,487
494,490,495,493,488
494,491,495,493,488
494,491,495,493,489
494,490,495,493,489
494,491,495,493,489
494,491,495,493,489
494,490,495,493,488
494,491,495,493,487
494,491,495,493,487
494,491,495,493,487
494,490,495,493,487
494,490,495,493,487
494,490,495,493,488
494,491,495,493,488
494,491,495,493,489
494,491,495,493,489
494,491,495,493,489
494,490,495,493,489
494,490,495,493,488
494,490,495,493,488
494,490,495,493,487
494,490,495,493,487
494,490,495,493,487
494,490,495,493,487
494,491,495,493,487
494,491,495,493,488
494,491,495,493,489
494,490,495,493,489
495,490,495,493,489
494,490,495,493,489
495,490,495,493,489
494,490,495,493,488
494,490,495,493,488
494,490,495,493,487
493,490,495,493,487
493,490,495,493,487
494,490,495,493,487
494,491,495,493,488
494,491,495,493,488
494,491,495,493,489
494,490,495,493,489
494,490,495,493,489
494,490,495,493,489
494,490,495,493,489
494,490,495,493,488
494,490,495,493,487
493,490,495,493,487
494,491,494,490,485
487,485,491,489,488
505,499,500,495,487
495,490,495,493,487
494,490,494,490,487
495,496,499,495,488
493,490,496,494,489
494,490,495,493,489
494,489,493,492,489
495,491,495,493,488
494,490,495,493,487
493,486,492,490,487
493,491,498,496,488
498,492,496,493,486
494,490,495,493,486
493,488,493,492,488
496,492,496,493,488
494,490,495,493,489
494,490,495,493,489
494,490,495,493,489
494,490,495,493,489
494,490,495,493,488
494,490,495,493,488
494,490,495,493,487
494,490,495,493,487
494,490,495,493,486
495,490,495,493,486
494,490,495,493,487
494,490,495,493,487
492,491,496,494,488
493,491,495,493,489
492,490,495,493,489
488,489,497,494,489
495,490,495,494,489
498,490,495,491,487
490,485,491,488,487
492,488,503,505,489
500,493,497,493,487
494,490,495,493,486
493,490,495,493,487
493,490,495,493,487
494,490,495,493,488
494,490,495,493,489
494,490,495,493,489
494,490,495,493,490
494,490,495,493,489
494,490,495,493,489
494,490,495,493,488
494,490,495,493,488
494,490,495,493,487
494,490,495,493,487
494,490,495,493,487
494,490,495,493,487
494,490,495,493,488
494,491,495,493,489
494,490,495,493,489
495,491,495,493,490
497,490,495,493,490
496,490,495,493,489
495,490,495,493,489
493,490,495,493,488
492,491,495,493,488
493,490,495,493,487
493,491,495,493,487
494,490,495,493,487
494,491,495,493,488
494,490,495,493,488
494,490,495,493,489
494,490,495,493,489
494,491,495,493,490
494,490,495,493,489
494,490,495,493,489
494,490,495,493,488
494,490,495,493,488
494,490,495,493,487
494,490,495,493,487
494,490,495,493,487
494,490,495,493,487
492,491,495,493,488
495,490,495,493,489
496,490,495,493,489
496,490,495,493,489
494,490,495,493,489
494,490,495,493,489
493,490,495,493,489
493,490,495,493,488
494,490,495,493,487
494,490,495,493,487
493,490,495,493,487
494,490,495,493,487
494,490,495,493,487
494,490,495,493,488
494,490,495,493,489
493,490,495,493,489
494,490,495,493,489
495,490,495,493,489
494,490,495,493,489
494,490,495,493,488
493,490,495,493,488
493,490,495,493,487
493,490,495,493,487
495,490,495,493,487
495,490,495,493,487
496,490,495,493,488
495,490,495,493,488
494,490,495,493,489
493,490,495,493,489
493,490,495,493,489
493,491,495,493,489
493,490,495,493,489
494,490,495,493,488
494,490,495,493,487
494,490,495,493,487
494,490,495,493,486
494,490,495,493,487
494,490,495,493,487
494,490,495,493,488
494,490,495,493,488
493,490,495,493,489
493,490,495,493,489
493,490,495,493,489
494,490,495,493,489
494,490,495,493,488
494,490,495,493,488
494,490,495,493,487
494,490,495,493,487
494,490,495,493,487
494,490,495,493,487
493,490,495,493,487
493,490,495,493,488
493,490,495,493,489
494,490,495,493,489
494,490,495,493,489
494,490,495,493,489
494,490,495,493,489
494,490,495,493,488
494,490,495,493,487
494,490,495,493,487
494,490,495,493,487
494,490,495,493,487
494,490,495,493,487
494,490,495,493,488
494,490,495,493,488
495,490,495,493,489
495,490,495,493,489
494,490,495,493,489
494,490,496,493,489
492,490,495,493,488
492,490,495,493,488
493,490,495,493,487
494,490,495,493,487
494,490,495,493,487
493,490,495,493,487
493,490,495,493,487
494,490,495,493,488
493,490,495,493,489
494,490,495,493,489
494,490,495,493,489
494,490,495,493,489
494,490,495,493,489
493,490,495,493,488
494,490,495,493,488
494,490,495,493,487
495,490,495,493,486
494,490,495,493,487
493,490,495,493,487
493,490,495,493,488
493,490,495,493,489
493,490,495,493,489
494,490,495,493,489
494,490,495,493,489
494,490,495,493,489
493,490,495,493,489
494,490,495,493,488
494,490,495,493,487
493,490,495,493,487
493,490,495,493,487
493,490,495,493,487
494,490,495,493,487
494,490,495,493,488
494,490,495,493,489
494,490,495,493,489
494,490,495,493,489
494,490,495,493,489
494,490,495,493,489
494,490,495,493,488
494,490,495,493,488
494,490,495,493,487
493,490,495,493,487
494,490,495,493,487
495,490,495,493,487
495,490,495,493,488
494,490,495,493,489
494,490,495,493,489
494,490,495,493,490
494,490,495,493,490
494,490,495,493,490
494,489,495,493,489
493,490,495,493,488
494,490,495,493,488
494,490,495,493,487
494,490,495,493,487
494,490,495,493,487
493,490,495,493,488
494,490,495,493,488
493,490,495,493,489
493,490,495,493,490
494,490,495,493,490
494,490,495,493,490
494,490,495,493,490
494,490,495,493,489
494,490,495,493,488
494,490,495,493,488
494,490,495,493,487
494,490,495,493,487
494,490,495,493,487
494,490,495,493,488
494,490,495,493,489
494,490,495,493,489
493,490,495,493,490
493,489,495,493,490
494,489,495,493,490
494,490,495,493,489
494,490,495,493,489
494,490,495,493,488
494,490,495,493,487
493,490,495,493,487
494,490,495,493,487
494,490,495,493,487
494,490,495,493,488
494,490,495,493,489
494,489,495,493,489
494,490,495,493,490
494,490,495,493,490
494,490,495,493,489
494,490,495,493,489
494,490,495,493,488
494,489,495,493,487
494,490,495,493,487
494,490,495,493,487
494,490,495,493,487
494,490,495,493,487
494,490,495,493,488
494,490,495,493,489
494,489,495,493,489
495,489,495,493,489
494,490,495,493,489
494,490,495,493,489
493,490,495,493,488
494,490,495,493,488
494,490,495,493,487
494,490,495,493,487
494,489,495,493,487
494,490,495,493,487
494,490,495,493,488
493,490,495,493,489
494,490,495,493,489
494,490,495,493,489
494,490,495,493,489
494,490,495,493,489
494,490,495,493,489
494,490,495,493,488
494,490,495,493,487
494,490,495,493,487
494,490,495,493,487
494,490,495,493,487
494,490,495,493,487
494,490,495,493,488
494,490,495,493,489
493,490,495,493,489
494,490,495,493,490
494,490,495,493,490
495,490,495,493,489
494,490,495,493,489
493,490,495,493,488
493,490,495,493,488
494,490,495,493,488
494,490,495,493,488
494,490,495,493,488
494,490,495,493,489
494,490,495,493,490
494,490,495,493,491
494,490,495,493,491
494,490,495,493,491
494,490,495,493,491
493,490,496,493,491
494,490,495,493,491
494,490,495,493,490
494,490,495,493,490
494,490,495,493,489
494,490,495,493,490
494,490,495,493,490
494,490,495,493,491
494,489,495,493,492
494,489,495,493,492
494,490,495,493,492
494,490,495,493,492
494,490,495,493,492
494,490,495,493,491
494,490,495,493,490
494,490,495,493,490
494,490,495,493,489
494,490,495,493,489
494,490,495,493,489
494,490,495,493,490
494,490,495,493,490
494,490,495,493,491
494,490,495,493,491
494,490,495,493,491
494,490,495,493,491
494,489,495,493,491
494,490,495,493,490
493,490,495,493,489
494,490,495,493,489
494,490,495,493,488
494,490,495,493,488
494,490,495,493,489
494,490,495,493,490
495,489,495,493,490
494,490,495,493,491
494,490,495,493,491
494,490,495,493,491
494,490,495,493,491
494,490,495,493,490
494,490,495,493,489
494,490,495,493,489
494,490,495,493,488
494,490,495,493,488
494,490,495,493,488
494,490,495,493,489
494,490,495,493,489
494,490,495,493,490
494,490,495,493,491
494,490,495,493,491
494,489,495,493,491
494,490,495,493,490
493,490,495,493,490
493,490,495,493,489
493,490,495,493,488
493,490,495,493,488
495,490,495,493,488
494,490,495,493,488
494,490,495,493,489
494,490,495,493,490
496,490,495,493,490
494,490,495,493,491
493,490,495,493,491
494,490,495,493,490
494,490,495,493,490
494,490,495,493,489
494,490,495,493,489
494,490,495,493,488
494,490,495,493,488
494,490,495,493,488
494,490,495,493,488
494,490,495,493,489
494,489,495,493,490
494,490,495,493,490
494,490,495,493,490
494,490,495,493,490
494,490,495,493,490
494,490,495,493,489
494,490,495,493,488
494,490,495,493,488
494,490,495,493,487
494,490,495,493,487
494,490,495,493,488
494,490,495,493,488
494,490,495,493,489
494,490,495,493,490
494,490,495,493,490
494,490,495,493,490
493,490,495,493,490
494,490,495,493,489
494,490,495,493,489
494,490,495,493,488
494,490,495,493,487
494,490,495,493,487
494,490,495,493,487
494,490,495,493,488
494,490,495,493,489
494,490,495,493,490
494,490,495,493,490
494,490,495,493,490
494,490,495,493,490
494,490,495,493,490
494,490,495,493,489
494,490,495,493,489
494,490,495,493,488
494,490,495,493,488
494,490,495,493,488
494,490,495,493,488
494,490,495,493,489
494,490,495,494,490
494,490,495,493,490
494,490,495,493,490
494,490,495,493,491
494,490,495,493,490
494,490,495,493,490
494,490,495,493,489
494,490,495,493,488
494,490,495,493,488
494,490,495,493,488
494,490,495,493,488
494,490,495,493,488
494,489,495,493,489
494,490,495,493,489
494,490,495,493,490
494,490,495,493,490
494,490,495,493,490
494,489,495,493,490
494,489,495,493,489
494,489,495,493,488
494,489,495,493,488
494,489,495,493,487
494,490,495,493,487
494,490,495,493,487
494,490,495,493,488
494,490,495,493,489
494,490,495,493,489
494,490,495,493,490
494,490,495,493,490
494,490,495,493,490
494,490,495,493,489
493,490,495,493,489
493,489,495,494,488
494,489,495,493,488
494,490,495,493,487
494,490,495,493,487
494,489,495,493,488
494,490,495,493,489
494,490,495,493,489
494,490,495,493,490
494,490,495,493,490
494,489,495,493,490
494,489,495,493,490
494,490,495,493,489
494,489,495,493,489
494,489,495,494,488
494,489,495,493,487
495,490,495,493,487
494,490,495,493,487
494,490,495,493,488
494,490,495,493,489
494,490,495,493,489
494,490,495,493,489
494,490,495,493,490
494,490,495,493,490
494,489,495,493,489
494,490,495,493,488
494,490,495,493,488
494,490,495,493,487
494,490,495,493,486
494,490,495,493,486
494,489,495,493,487
494,489,495,493,487
494,489,495,493,488
494,489,495,493,489
494,489,495,493,489
494,489,495,493,489
494,489,495,493,489
494,489,495,493,488
494,490,495,493,488
494,490,495,493,487
494,490,495,493,487
494,490,495,493,487
494,490,495,493,487
494,489,495,493,487
494,490,495,493,488
494,490,495,493,489
494,489,495,493,489
494,490,495,493,489
494,489,495,493,489
494,489,495,493,489
494,489,495,493,489
494,489,495,493,488
494,489,495,493,487
494,489,495,493,487
494,490,495,493,487
494,489,495,493,487
494,489,495,493,488
494,489,495,493,488
494,489,495,493,489
494,489,495,493,489
494,489,495,493,490
494,489,495,493,489
494,489,495,493,489
494,489,495,493,488
494,489,495,493,488
494,489,495,493,487
494,489,495,493,487
494,489,495,493,487
494,490,495,493,488
494,489,495,493,488
494,489,495,493,489
494,489,495,493,490
494,490,495,493,490
494,489,495,493,490
494,489,495,493,490
494,489,495,493,489
494,489,495,493,488
494,488,495,493,488
494,489,495,493,487
494,489,495,493,487
494,489,495,493,487
494,489,495,493,488
494,489,495,493,489
494,489,495,495,490
494,489,495,493,490
494,489,495,493,490
494,489,495,493,490
494,490,495,493,489
495,490,495,493,489
494,489,495,493,488
494,489,495,493,487
494,489,495,493,487
494,489,495,493,487
494,489,495,493,488
494,489,495,493,488
494,489,495,493,489
494,489,495,493,490
494,489,495,493,490
494,489,495,493,490
494,489,495,493,490
494,489,495,492,489
494,489,496,493,488
494,489,495,493,488
494,489,495,493,487
494,489,495,493,487
494,489,495,493,487
495,489,495,493,488
494,489,495,493,488
494,489,495,493,489
494,489,495,493,489
493,489,495,493,489
494,489,495,493,489
494,489,495,493,489
494,489,495,493,488
494,489,495,493,488
494,489,495,493,487
494,489,495,493,486
494,489,495,493,487
494,489,495,493,487
494,489,495,493,488
494,489,495,493,488
494,489,495,493,489
494,489,495,493,489
495,489,495,493,489
494,489,495,493,489
494,489,495,493,488
494,489,495,493,488
494,489,495,493,487
494,489,495,493,486
494,489,495,494,486
494,488,495,493,486
494,488,495,493,487
494,489,495,493,488
494,489,495,493,488
494,489,495,493,489
494,489,495,493,489
494,489,495,493,489
494,489,495,493,488
494,489,495,494,488
494,489,495,494,487
494,489,495,493,486
494,489,495,493,486
494,489,495,493,486
494,489,495,493,486
494,489,495,493,487
494,489,495,493,487
494,489,495,493,488
494,489,495,493,488
494,489,495,493,488
494,489,495,493,488
494,489,495,493,487
494,489,495,493,487
494,488,495,493,486
494,489,495,493,486
494,489,495,493,485
494,488,495,493,486
494,489,495,493,486
494,489,495,493,487
494,488,495,493,488
494,488,495,493,488
494,488,495,493,488
494,488,495,493,489
494,488,495,493,488
494,488,495,493,488
494,488,495,493,487
493,488,495,493,487
494,488,495,493,486
494,488,495,493,486
494,488,495,493,486
494,489,495,493,487
494,489,495,493,488
494,489,495,493,489
494,489,495,493,489
494,488,495,494,489
494,488,495,493,489
494,488,495,493,489
494,488,495,493,488
494,488,495,493,487
494,488,495,493,487
494,488,495,493,487
494,488,495,493,487
494,488,495,493,487
494,488,495,493,488
494,488,495,493,489
494,488,495,493,489
494,488,495,493,490
494,488,495,493,490
494,488,495,493,489
494,488,495,494,489
494,488,495,493,488
494,488,495,493,488
494,488,495,493,487
494,488,495,493,487
494,488,495,493,488
494,488,495,493,488
494,488,495,493,489
494,488,495,493,490
494,488,495,493,490
494,488,495,493,490
494,488,495,493,490
494,488,495,493,490
494,488,495,493,489
494,488,495,493,488
494,488,495,493,488
494,488,495,493,487
494,488,495,493,487
494,488,495,493,488
494,488,495,493,488
494,488,495,493,489
494,488,495,493,490
494,488,495,493,490
494,488,495,493,490
494,488,495,493,490
494,488,495,493,489
494,488,495,493,488
494,488,495,493,487
494,488,495,493,487
494,488,495,493,486
494,488,495,493,487
494,488,495,493,487
494,488,495,493,488
494,488,495,493,488
494,488,495,493,489
494,488,495,493,489
494,488,495,493,489
494,488,495,493,488
494,488,495,493,488
494,488,495,493,487
494,487,495,493,486
494,488,495,493,486
494,488,495,493,486
494,488,495,493,486
494,488,495,493,487
494,488,495,493,487
494,488,495,493,488
494,488,495,493,489
494,488,495,493,489
494,488,495,493,488
494,488,495,493,488
494,488,495,493,488
494,488,495,493,487
494,488,495,493,486
494,488,495,493,486
494,488,495,493,487
494,488,495,493,487
494,488,495,493,488
494,488,495,493,489
494,488,495,493,489
494,488,495,493,489
494,488,495,493,489
494,488,495,493,489
494,488,495,493,488
494,488,495,493,488
494,488,495,493,487
494,488,495,493,486
494,487,495,493,486
494,488,495,493,486
494,488,495,493,487
494,488,495,493,488
494,487,495,493,488
494,488,495,493,489
494,488,495,493,489
494,488,495,493,489
494,488,495,493,488
494,488,495,493,487
494,488,495,493,487
494,487,495,493,486
494,487,495,493,486
494,487,495,493,486
494,488,495,493,487
494,488,495,493,488
493,488,495,493,488
494,488,495,493,489
494,488,495,493,489
494,488,495,493,489
494,488,495,493,489
494,488,495,493,488
494,488,495,493,487
494,488,495,494,487
494,488,495,493,486
493,487,495,493,486
494,488,495,493,487
494,488,495,493,487
494,488,495,493,488
494,487,495,493,489
494,487,495,493,489
494,488,495,493,489
494,487,495,493,489
493,487,495,493,488
493,487,495,493,488
493,487,495,493,487
494,487,495,493,486
494,487,495,493,486
494,488,495,493,486
494,487,495,493,487
494,487,495,493,487
494,487,495,493,488
494,487,495,493,489
494,487,495,493,489
494,487,495,493,489
494,487,495,493,489
494,487,495,493,488
494,487,495,493,487
494,487,495,493,487
494,487,495,493,486
494,487,495,493,486
494,487,495,493,486
494,487,495,493,487
494,487,495,493,488
494,487,495,493,488
494,487,495,493,489
494,487,495,493,489
494,487,495,493,489
494,487,495,493,489
494,488,495,493,489
494,487,495,493,488
494,487,495,493,487
494,487,495,493,487
494,487,495,493,487
494,487,495,493,487
494,487,495,493,488
494,487,495,493,489
494,488,495,493,489
494,488,495,493,490
494,487,495,493,490
494,487,495,493,490
494,488,495,493,489
494,487,495,493,489
494,487,495,493,488
494,487,495,493,487
494,487,495,493,487
494,487,495,493,487
494,487,495,493,488
494,488,495,493,489
494,488,495,493,489
494,487,495,493,490
493,487,495,493,490
493,487,495,493,490
493,487,495,493,490
494,487,495,493,489
494,487,495,493,488
494,487,495,493,488
494,487,495,493,487
494,487,495,493,487
494,487,495,493,487
494,487,495,493,488
494,487,495,493,489
493,487,495,493,490
494,487,495,493,490
494,487,495,493,490
494,487,495,493,490
493,487,495,493,489
494,487,495,493,488
494,487,495,493,488
494,487,495,493,487
494,487,495,493,487
494,487,495,493,487
494,487,495,493,487
494,487,496,493,488
494,487,495,493,488
493,487,495,493,489
494,487,495,493,489
494,487,495,493,489
494,487,495,493,488
494,487,495,493,488
494,487,495,493,487
494,487,495,493,486
494,487,495,494,486
494,487,495,493,485
494,487,495,493,486
494,487,495,493,486
494,487,495,493,487
494,487,495,493,487
494,487,495,493,487
494,487,495,493,487
494,487,495,493,487
493,487,495,493,487
494,487,495,493,486
494,487,495,493,485
494,487,495,493,485
493,487,495,493,485
493,487,495,493,485
494,487,495,493,485
494,487,495,493,486
494,487,495,493,487
494,487,495,493,487
494,488,495,493,487
494,487,495,493,487
494,487,495,493,487
494,488,495,493,486
494,487,495,493,486
493,487,495,493,485
494,487,495,493,484
494,487,495,493,484
494,487,495,493,484
494,487,495,493,485
494,487,495,493,486
493,487,495,493,486
493,487,495,493,487
494,487,495,493,487
494,487,495,493,487
494,487,495,493,486
494,487,495,493,486
493,487,495,493,485
494,487,495,493,485
494,487,495,493,484
494,487,495,493,485
494,487,495,493,485
494,487,495,493,486
494,487,495,493,487
494,487,495,493,487
494,487,495,493,488
493,487,495,493,488
494,487,495,493,488
494,487,495,493,487
494,487,495,493,486
493,487,495,493,486
493,487,495,493,485
493,487,495,493,485
494,487,495,493,485
494,487,495,493,486
494,487,495,493,487
494,487,495,493,488
494,487,495,493,488
493,487,495,493,488
494,487,495,493,488
494,487,495,493,488
494,487,495,493,487
493,487,495,493,487
494,487,495,493,486
493,487,495,493,485
494,487,495,493,486
493,487,495,493,486
494,487,495,493,487
494,487,495,493,487
493,487,495,493,488
493,487,495,493,488
493,487,495,493,488
493,487,495,493,488
494,486,495,493,488
493,487,495,493,487
493,487,495,493,487
493,487,495,493,486
494,487,495,493,486
494,487,495,493,486
493,487,495,493,486
493,487,495,493,487
493,487,495,493,488
494,487,495,493,488
494,487,495,493,489
494,487,495,493,488
493,486,495,493,488
493,487,495,493,487
493,487,495,493,487
494,487,495,493,486
493,487,495,493,486
494,487,495,493,486
494,487,495,493,486
493,486,495,493,487
494,487,495,493,488
493,487,495,493,488
493,486,495,493,489
493,487,495,493,489
493,487,495,493,489
493,486,495,493,488
494,486,495,493,487
494,486,495,493,487
494,487,495,493,486
493,487,495,493,486
493,487,495,493,486
493,487,495,493,486
494,487,495,493,487
494,486,495,493,488
493,486,495,493,488
493,486,495,493,489
493,486,495,493,489
494,487,495,493,489
493,486,495,493,488
493,486,495,493,487
493,486,495,493,486
493,486,495,493,486
494,487,495,493,486
494,487,495,493,486
494,487,495,493,486
494,486,495,493,487
494,486,495,493,487
493,486,495,493,487
493,486,495,493,487
494,487,495,493,487
494,487,495,493,487
493,486,495,493,486
493,486,495,493,486
494,486,495,493,485
494,487,495,493,484
494,486,495,493,485
493,486,495,493,485
493,486,495,493,486
493,487,495,493,486
494,487,495,493,487
494,487,495,493,487
493,486,495,493,487
494,486,495,493,487
494,487,495,493,487
494,486,495,493,486
494,486,495,493,486
494,486,495,493,485
494,486,495,493,485
493,486,495,493,486
494,486,495,493,486
494,486,495,493,487
493,486,495,493,487
493,486,495,493,488
494,486,495,493,489
494,487,495,493,488
493,486,495,493,488
493,485,495,493,487
493,486,495,493,487
494,486,495,493,486
494,486,495,493,486
494,486,495,493,486
493,486,495,493,486
494,485,495,493,487
493,486,495,493,487
493,485,495,493,488
494,486,495,493,488
493,486,495,493,487
493,486,495,493,487
493,486,495,493,487
494,487,495,493,486
494,487,495,493,486
494,486,495,493,485
494,486,495,493,485
493,486,495,493,485
493,486,495,493,486
493,486,495,493,487
494,486,495,493,488
494,486,495,493,488
494,486,495,493,489
494,486,495,493,489
493,486,495,493,488
493,486,495,493,488
493,486,495,493,487
493,486,495,493,487
494,486,495,493,486
493,486,495,493,486
493,486,495,493,487
493,486,495,493,487
493,486,495,493,488
493,486,495,493,489
493,486,495,493,489
493,486,495,493,489
493,486,495,493,489
493,486,495,493,489
494,486,495,493,488
494,486,495,493,488
494,486,495,493,487
494,486,495,493,487
493,486,495,493,487
493,486,495,493,487
494,486,495,493,488
493,486,495,494,489
493,486,495,493,489
493,486,495,493,489
493,486,495,493,489
493,486,495,493,489
494,486,495,493,488
493,486,495,493,488
493,486,495,493,487
493,485,495,493,487
493,485,495,493,487
493,485,495,493,487
493,486,495,493,488
494,486,495,493,488
494,486,495,493,489
494,486,495,493,490
493,486,495,493,490
493,485,495,493,490
494,486,495,493,489
494,485,495,493,489
493,485,495,493,488
494,485,495,493,488
493,486,495,493,487
493,486,495,493,487
493,486,495,493,488
493,485,495,493,489
494,486,495,493,489
493,485,495,493,490
493,485,495,493,490
494,486,495,493,490
493,486,495,493,490
493,485,495,493,489
493,485,495,493,489
493,485,495,493,488
493,486,495,493,487
493,486,495,493,487
493,486,495,493,487
493,486,495,493,488
493,485,495,493,489
493,485,495,493,489
493,485,495,493,490
493,486,495,493,490
493,486,495,493,490
493,486,495,493,489
493,485,495,493,489
494,485,495,493,488
494,485,495,493,487
493,486,495,493,487
493,485,495,493,487
493,485,495,493,487
493,485,495,493,488
493,485,495,493,489
493,485,495,493,489
494,485,495,493,490
493,485,495,493,490
494,486,495,493,489
493,486,495,493,489
493,485,495,493,488
493,485,495,493,488
493,485,495,493,487
493,486,495,493,487
493,485,495,493,487
493,485,495,493,487
493,485,495,493,488
493,485,495,493,489
493,485,495,493,489
493,485,495,493,489
493,485,495,493,489
493,485,495,493,489
493,485,495,493,488
493,485,495,493,488
493,485,495,493,487
493,485,495,493,487
493,485,496,493,487
493,485,495,493,487
492,485,495,493,487
493,485,495,493,488
493,485,495,493,489
494,485,495,493,489
494,485,495,493,489
494,485,495,493,489
494,485,495,493,488
494,485,495,493,488
493,485,495,493,487
493,485,495,493,487
493,485,495,493,486
493,485,495,493,486
493,485,496,493,487
493,485,495,493,487
493,485,495,493,488
493,485,495,493,489
493,485,495,493,489
493,485,495,493,489
493,485,495,493,488
493,485,495,493,488
494,485,495,493,487
493,485,495,493,486
493,485,495,493,486
493,485,495,493,485
493,485,495,493,486
493,485,495,493,486
493,485,495,493,487
494,485,496,493,488
493,485,495,493,488
493,485,495,493,488
493,485,495,493,488
493,485,495,493,488
493,485,495,493,487
493,485,495,493,487
493,485,495,493,486
493,485,495,493,486
493,484,495,493,486
493,485,495,493,487
493,485,495,493,488
493,485,495,493,489
493,485,495,493,489
493,485,495,493,490
493,485,495,493,490
493,485,495,493,489
493,484,495,493,489
493,485,495,493,488
494,485,495,493,487
494,485,495,493,487
493,485,495,493,487
493,485,495,493,487
493,485,495,493,488
493,485,495,493,488
493,485,495,493,489
493,485,496,494,490
493,485,496,494,490
493,485,496,493,489
493,485,495,493,489
493,485,495,493,489
493,484,495,494,488
492,485,496,492,487
493,485,495,493,487
494,485,495,493,487
494,485,495,493,487
494,485,495,493,488
494,485,495,493,489
493,485,495,493,489
493,484,495,493,490
493,485,495,493,489
493,485,495,493,489
493,485,495,493,489
492,485,496,495,489
492,485,496,494,488
493,484,495,492,487
493,484,496,492,487
493,485,495,494,487
493,484,495,493,488
493,485,495,493,488
493,485,495,493,489
493,485,495,494,490
493,485,495,492,490
494,485,495,492,489
493,485,496,492,489
493,485,495,494,489
494,484,495,493,488
493,484,495,493,487
493,484,495,493,487
493,484,495,493,487
493,484,495,493,487
493,484,495,493,488
493,484,495,493,489
493,485,495,493,489
493,484,495,493,490
493,484,495,493,490
493,484,495,493,489
493,484,495,493,489
494,484,495,493,488
493,484,495,493,488
493,484,495,494,487
493,484,495,493,487
493,484,495,493,487
494,484,495,493,487
493,484,495,493,488
493,484,495,493,489
493,484,495,493,489
493,484,495,493,490
493,484,495,493,489
493,484,495,493,489
493,484,495,493,488
493,484,495,493,488
493,484,495,493,487
493,485,495,493,487
493,485,495,493,486
494,485,495,493,487
493,485,495,493,488
493,484,495,493,488
493,484,495,493,489
493,484,495,493,489
493,484,495,493,489
493,484,495,493,489
493,484,495,493,489
493,484,495,493,488
493,484,495,493,488
493,484,495,493,487
493,484,495,493,487
493,484,495,493,487
493,484,495,493,487
493,484,495,493,488
493,484,495,493,489
492,484,495,494,489
493,484,495,493,490
493,484,495,493,490
493,484,495,493,489
494,484,495,493,489
493,484,495,493,488
493,484,495,493,488
493,484,495,493,487
493,484,495,493,487
493,484,495,493,487
493,484,495,493,488
493,484,495,493,489
493,484,495,492,489
492,484,496,494,490
493,484,496,495,490
493,484,495,493,490
494,484,495,493,489
493,484,495,493,489
493,484,495,493,489
493,484,495,493,488
494,484,495,493,487
493,484,495,493,487
493,484,495,493,488
493,484,495,493,489
493,484,495,493,489
493,484,495,493,490
493,484,495,493,490
493,484,495,493,490
494,484,495,493,490
493,484,495,493,489
493,484,495,493,489
493,484,495,493,488
493,484,495,493,487
493,484,495,493,487
493,484,495,493,487
493,484,495,493,488
493,484,495,493,489
493,484,495,493,489
493,484,495,494,490
493,484,495,493,490
494,484,495,493,490
493,483,495,494,490
493,484,495,493,489
493,484,495,493,489
493,484,495,493,488
493,484,495,493,487
493,484,495,493,487
493,484,495,493,488
494,484,495,493,488
493,484,495,493,489
493,484,495,493,490
493,484,495,493,490
493,483,495,493,490
493,484,496,493,490
493,484,495,493,489
493,484,495,493,489
493,484,495,493,488
493,484,495,492,487
493,484,495,493,487
493,484,495,494,487
493,484,495,494,488
493,484,495,493,489
493,484,495,493,489
493,484,495,493,490
494,484,495,493,490
494,484,495,493,490
493,484,495,493,490
493,483,495,493,489
493,483,495,493,488
493,484,495,493,488
493,484,495,493,487
493,484,495,493,487
493,483,495,493,487
493,484,495,493,488
493,483,495,493,489
493,484,495,493,489
493,484,495,493,490
493,484,495,493,490
494,484,495,493,490
493,484,495,493,489
493,484,495,493,488
493,483,495,493,488
493,483,495,493,487
493,483,495,493,487
493,483,495,493,487
493,483,495,493,488
493,484,495,493,488
493,484,495,493,489
493,483,495,493,490
493,483,495,493,490
493,483,496,493,490
493,483,495,493,489
493,484,495,493,489
493,484,495,493,488
493,483,495,493,488
493,483,495,493,487
493,483,495,493,487
493,484,495,493,487
493,484,495,493,488
494,484,495,493,489
493,484,495,493,489
493,484,495,493,490
493,484,495,493,490
494,483,495,493,489
493,483,495,493,489
493,483,495,493,489
493,483,495,493,488
493,483,495,493,487
493,484,495,493,487
493,484,495,493,487
493,483,495,493,487
493,484,495,493,488
493,484,495,493,489
493,483,495,493,489
493,484,495,493,490
493,484,495,493,490
493,483,495,493,490
493,483,496,493,489
493,484,495,493,488
493,484,495,493,488
493,483,495,493,487
493,483,495,493,487
493,484,495,493,487
493,483,495,493,488
493,483,495,493,488
493,483,495,493,489
493,483,495,494,490
493,483,495,493,490
493,483,495,493,490
493,483,495,493,489
493,483,495,493,489
493,483,495,493,488
493,483,495,493,488
493,483,495,493,487
493,484,495,493,487
493,483,495,493,487
493,483,496,493,488
493,483,495,493,489
493,483,495,493,489
493,483,495,493,490
493,483,495,493,490
493,483,495,493,489
493,483,495,493,489
493,483,495,493,488
493,483,495,493,487
493,483,495,493,487
493,483,495,493,486
493,483,495,494,487
493,483,495,493,487
493,483,495,493,488
493,483,495,493,488
493,483,495,493,489
493,483,495,493,489
493,483,495,493,489
493,483,495,493,489
493,483,495,493,488
493,483,495,493,487
493,483,495,493,487
493,483,495,493,486
493,483,495,493,486
493,483,495,493,486
493,483,496,493,487
493,483,495,493,488
493,483,496,493,489
493,483,495,493,489
493,483,495,493,489
493,483,495,493,489
493,483,495,493,489
493,483,495,493,488
493,483,495,493,487
493,483,495,493,487
493,483,495,493,487
493,483,495,493,487
493,483,495,493,487
493,483,495,493,488
493,483,495,493,489
493,483,495,493,489
493,483,495,493,490
493,483,495,493,490
493,483,495,493,490
493,483,495,494,489
493,483,495,495,489
493,483,495,493,488
494,483,495,492,487
493,483,495,493,487
493,483,495,493,488
493,483,495,493,488
493,483,495,493,489
493,483,495,493,489
493,483,495,493,490
494,483,495,493,490
493,483,495,493,490
493,483,495,493,489
493,483,495,493,489
493,483,495,493,488
493,483,496,493,487
494,483,495,493,487
494,483,495,493,487
493,483,495,493,487
493,483,495,493,487
493,483,495,493,488
493,483,495,493,488
493,483,495,493,489
493,483,495,493,488
493,483,495,493,488
493,483,495,493,487
493,483,495,493,487
493,483,495,493,486
493,483,495,493,485
493,483,495,493,485
493,483,495,493,486
494,483,495,493,486
493,483,495,493,487
494,483,495,493,488
493,483,495,493,489
493,483,495,493,489
493,483,495,493,489
493,483,495,493,489
493,483,495,493,488
493,483,495,493,488
493,483,495,493,487
493,483,495,493,487
493,483,495,493,487
493,483,495,493,487
493,483,495,493,488
493,483,495,493,488
493,483,495,493,489
493,483,495,493,489
493,483,495,493,489
493,483,495,493,489
493,483,495,493,489
493,483,495,493,488
493,483,495,493,487
493,483,495,493,487
493,483,495,493,487
493,483,495,493,487
493,483,495,493,487
493,483,495,493,488
494,483,495,493,489
493,483,495,493,489
493,482,495,493,489
493,483,495,493,489
493,483,495,493,489
494,483,495,493,488
493,483,495,493,488
493,483,495,493,487
493,483,495,493,487
493,483,495,493,487
493,482,495,493,487
493,483,495,493,488
494,483,495,493,488
494,483,495,493,489
493,483,496,493,489
493,483,495,493,489
493,483,495,493,489
493,483,495,493,488
493,483,495,493,488
494,483,495,493,487
494,483,495,493,486
494,483,495,493,486
493,483,495,493,486
493,483,495,493,486
493,483,495,493,487
493,483,495,493,488
494,483,495,493,488
494,483,495,493,488
493,483,495,493,488
493,483,495,493,488
493,483,495,493,487
493,483,495,493,487
493,483,495,493,486
493,483,495,493,485
493,483,495,493,485
493,483,495,493,486
493,483,495,493,486
493,483,495,493,487
493,483,495,493,488
493,483,495,493,488
493,483,495,493,488
493,483,495,493,488
493,484,495,493,488
494,483,495,493,487
493,483,495,493,487
493,483,495,493,486
493,483,495,493,486
494,483,495,493,486
494,483,495,493,486
493,483,495,493,487
493,483,495,493,488
493,483,495,493,488
493,483,495,493,489
493,483,495,493,489
493,483,495,493,488
494,483,495,493,488
494,483,495,493,487
494,483,495,493,487
493,483,495,493,486
493,483,495,493,486
493,483,495,493,486
493,483,495,493,487
493,483,495,493,488
493,483,495,493,488
493,483,495,493,489
493,483,495,493,489
493,483,495,493,489
493,483,495,493,488
494,483,495,493,488
493,483,495,493,487
493,484,495,493,487
494,484,495,493,486
494,483,495,493,486
494,483,495,493,486
493,483,495,493,487
493,483,495,493,487
493,483,495,493,488
493,483,495,493,488
494,483,495,493,488
493,483,495,493,487
493,483,495,493,487
493,483,495,493,486
494,483,495,493,486
494,483,495,493,485
493,483,495,493,484
494,483,495,493,485
493,483,495,493,485
494,483,495,493,486
494,483,495,493,486
493,483,495,493,487
493,483,495,493,487
494,483,495,493,487
493,483,495,493,486
494,484,495,494,486
493,483,495,492,485
494,483,496,493,484
494,483,495,493,484
494,483,495,493,484
493,483,495,493,485
493,483,495,493,485
493,483,495,493,486
493,483,495,493,487
494,483,495,493,487
494,483,495,493,488
493,483,495,493,487
494,483,495,493,487
493,483,495,493,487
493,483,495,493,486
493,483,495,493,486
493,483,495,493,485
493,483,495,493,485
493,483,495,493,486
493,483,495,493,487
493,483,495,493,487
494,483,495,493,488
494,484,495,493,488
494,483,495,493,488
493,483,495,493,488
493,483,495,493,487
493,483,495,493,486
494,483,495,493,486
493,483,495,493,485
493,483,495,493,485
493,484,495,493,485
493,483,495,493,486
493,483,495,493,487
494,483,495,493,487
494,483,495,493,488
493,483,495,493,488
493,484,495,493,487
493,484,495,493,487
494,484,495,493,486
493,484,495,493,485
493,483,495,493,485
493,483,495,493,484
494,484,495,493,484
494,484,495,493,485
493,484,495,493,485
493,483,495,493,486
493,483,495,493,487
493,483,495,493,487
493,483,495,493,487
494,483,495,493,487
493,484,495,493,486
493,483,495,493,486
494,483,495,493,485
494,483,495,493,485
493,484,495,493,485
493,483,495,493,485
493,483,495,493,486
493,483,495,493,487
494,484,495,493,487
493,484,495,493,488
493,483,495,493,488
493,484,495,493,488
494,484,495,493,487
494,483,495,493,487
494,484,495,493,486
494,483,495,493,486
493,483,495,493,485
493,483,495,493,486
494,483,495,493,486
494,483,495,493,487
493,483,495,493,488
493,483,495,493,488
494,483,495,493,489
494,483,495,493,489
493,483,495,493,489
494,483,495,493,488
494,484,495,493,488
494,484,495,493,487
493,483,495,493,487
493,484,495,493,487
494,484,495,493,487
493,484,495,493,487
494,483,495,493,488
494,484,495,493,489
494,484,495,493,489
493,484,495,493,490
493,484,495,493,489
493,484,495,493,489
494,483,495,493,489
494,484,495,493,488
493,483,495,493,487
494,484,495,493,487
494,484,495,493,487
494,484,495,493,487
494,484,495,493,488
493,484,495,493,488
493,484,495,493,489
494,484,495,493,489
494,483,495,493,489
494,484,495,493,488
494,484,495,493,488
494,484,495,493,487
494,484,495,493,486
493,484,495,493,486
494,484,495,493,485
494,484,495,493,485
494,483,495,493,486
494,484,495,493,486
494,484,495,493,487
494,484,495,493,487
493,484,495,493,488
494,484,495,493,487
494,484,495,493,487
494,484,495,493,487
494,484,495,493,486
493,483,495,493,485
493,484,495,493,485
493,484,495,493,485
494,484,495,493,485
494,484,495,493,486
493,483,495,493,487
494,483,495,493,487
494,484,495,493,488
494,484,495,493,488
494,484,495,493,487
494,484,495,493,487
494,484,495,493,486
494,484,495,493,486
494,484,495,493,485
494,484,495,493,485
494,484,495,493,485
493,484,495,493,485
494,484,495,493,486
494,484,495,493,487
494,484,495,493,487
493,483,495,493,488
494,484,495,493,487
494,484,495,493,487
494,484,495,493,487
493,484,495,493,486
493,484,495,493,485
493,483,495,493,485
493,483,495,493,485
494,484,495,493,485
494,484,495,493,486
494,484,495,493,487
494,484,495,493,488
494,484,495,493,488
494,484,495,493,488
494,484,495,493,488
493,484,495,493,488
494,484,495,493,487
494,484,495,493,486
494,484,495,493,486
494,484,495,493,485
493,484,495,493,485
494,484,495,493,486
493,484,495,493,487
494,484,495,493,487
494,484,495,493,488
494,484,495,493,488
494,484,495,493,488
493,484,495,493,488
494,484,495,493,487
494,484,495,493,487
494,484,495,493,486
494,484,495,493,485
494,484,495,493,485
494,484,495,493,486
494,484,495,493,486
494,484,495,493,487
494,484,495,493,488
494,484,495,493,488
494,484,495,493,488
494,484,495,493,488
494,484,495,493,488
494,484,495,493,487
494,484,495,493,486
494,484,495,493,486
494,484,495,493,485
494,484,495,493,486
493,484,495,493,486
494,484,495,493,486
494,484,495,493,487
494,484,495,493,488
494,485,495,493,488
493,484,495,494,488
494,484,495,493,488
494,484,495,494,487
494,484,495,493,487
494,484,495,493,486
494,484,496,493,485
494,484,495,493,485
494,484,495,493,486
494,484,495,493,486
494,484,495,493,487
494,485,495,493,487
494,484,495,493,488
494,484,495,493,488
494,484,495,493,488
494,484,495,493,488
493,484,495,493,487
494,484,495,493,487
494,484,495,493,486
494,485,495,493,486
494,484,495,493,486
494,485,495,493,486
494,484,495,493,487
494,485,495,493,488
494,485,495,493,489
494,484,495,493,489
494,484,495,493,489
494,485,495,493,489
494,485,495,493,489
494,484,495,493,488
494,485,495,493,487
494,485,495,493,487
494,484,495,493,487
494,484,495,493,487
494,484,495,493,487
494,484,495,493,488
493,484,495,493,489
494,484,495,493,489
494,484,495,493,489
494,485,495,493,489
494,485,495,493,489
494,485,495,493,489
494,485,495,493,488
494,485,495,493,488
494,485,495,493,487
494,484,495,493,487
494,484,495,493,488
493,484,495,493,488
494,485,495,493,489
493,484,495,493,490
494,484,495,493,491
494,484,495,493,491
494,485,495,493,491
494,486,495,493,491
494,485,495,493,490
494,485,495,493,489
494,485,495,493,488
494,485,495,493,487
494,485,495,493,488
494,485,495,493,488
494,485,495,493,489
494,485,495,493,489
494,485,495,493,490
494,485,495,493,490
494,485,495,493,490
494,485,495,493,489
494,485,495,493,489
494,485,495,493,488
494,485,495,493,487
494,485,495,493,486
494,485,495,493,486
493,485,495,493,486
493,485,495,493,486
494,485,495,493,486
494,485,495,493,486
494,485,495,493,486
494,485,495,493,486
494,485,495,493,485
494,485,495,493,485
494,485,495,493,484
494,485,495,493,483
493,484,495,493,483
494,484,495,493,482
494,484,495,493,482
494,485,495,493,482
493,485,495,493,483
494,485,495,493,484
494,485,495,493,485
494,485,495,493,485
494,485,495,493,486
494,485,495,493,486
494,485,495,493,485
494,485,495,493,485
494,485,495,493,484
494,485,495,493,484
494,485,495,493,484
494,485,495,493,484
494,485,495,493,484
494,485,495,493,485
494,485,495,493,485
494,485,495,493,486
494,485,495,493,486
494,485,495,493,486
494,485,495,493,486
494,485,495,493,485
494,485,495,493,484
494,485,495,493,484
494,485,495,493,483
494,485,495,493,483
494,485,495,493,483
494,485,495,493,484
493,485,495,493,485
493,484,495,493,485
494,485,495,493,485
494,485,495,493,485
494,485,495,493,485
494,485,495,493,484
494,485,495,493,484
494,485,495,493,483
494,485,495,493,482
494,486,495,493,482
494,485,495,493,483
494,485,495,493,483
494,485,495,493,484
494,485,495,493,484
494,485,495,493,485
494,485,495,493,485
494,485,495,493,485
494,485,495,493,484
494,485,495,493,483
494,485,495,493,483
494,485,495,493,482
494,486,495,493,481
494,486,495,493,481
494,485,495,493,481
494,485,495,493,482
494,485,495,493,482
494,485,495,493,483
494,486,495,493,483
494,485,495,493,483
494,485,495,493,482
494,485,495,493,481
494,485,495,493,481
494,486,495,493,480
494,485,495,493,479
494,485,495,493,479
494,485,495,493,479
494,485,495,493,479
494,486,495,493,480
494,486,495,493,481
494,486,495,493,481
494,485,495,493,482
494,485,495,493,482
494,485,495,493,482
494,485,495,493,481
494,486,495,493,481
494,486,495,493,480
494,486,495,493,480
494,486,495,493,480
494,486,495,493,480
494,485,495,493,481
494,485,495,493,482
494,486,495,493,482
494,486,495,493,483
494,486,495,493,483
494,485,495,493,483
494,486,495,493,482
494,486,495,493,482
494,486,495,493,481
494,486,495,493,480
494,485,495,493,480
494,486,495,493,480
494,486,495,493,481
494,486,495,493,481
494,486,495,493,482
494,486,495,493,483
495,486,495,493,483
494,486,495,493,483
494,486,495,493,483
494,486,495,493,482
494,486,495,493,481
494,486,495,493,481
494,486,495,493,480
494,486,495,493,480
494,486,495,493,480
494,485,495,493,480
494,485,495,493,481
494,485,495,493,481
494,486,495,493,482
494,486,495,493,484
494,486,495,493,484
494,486,495,493,485
494,486,495,493,485
494,486,495,493,485
494,486,495,494,485
494,486,495,493,485
494,486,495,493,485
494,486,495,493,486
494,486,495,493,487
494,486,495,493,488
494,486,495,493,489
494,486,495,493,489
494,486,495,493,490
494,486,495,493,489
494,486,495,493,489
494,486,495,493,488
494,486,495,493,488
494,486,495,493,487
494,486,495,493,487
494,486,495,493,487
494,486,495,493,487
494,486,495,493,488
494,486,495,493,489
494,486,495,493,489
494,486,495,493,489
494,486,495,493,489
494,486,495,493,489
494,486,495,493,488
494,487,495,493,487
494,487,495,493,487
494,487,495,493,486
494,486,495,493,486
494,486,495,493,486
494,486,495,493,487
495,486,495,493,488
494,486,495,493,488
494,486,495,493,489
494,486,495,493,489
494,486,495,493,489
494,486,495,493,488
494,486,495,493,488
494,486,495,493,487
494,486,495,493,486
494,486,495,493,486
494,486,495,493,486
494,486,495,493,487
494,486,495,493,487
494,486,495,493,488
494,487,495,493,489
494,486,495,493,489
494,486,495,493,489
494,486,495,493,489
494,486,495,493,488
494,486,495,493,487
494,486,495,493,487
494,486,495,493,486
494,486,495,493,486
494,486,495,493,487
494,487,495,493,487
494,487,495,493,488
495,487,495,493,488
494,486,495,493,489
494,486,495,494,489
494,487,495,493,489
494,486,495,493,489
494,486,495,493,488
495,486,495,493,487
495,486,495,493,487
494,486,495,493,486
494,486,495,493,487
495,487,495,493,487
494,487,495,493,488
494,487,495,493,488
494,487,495,493,489
494,487,495,493,489
494,487,495,493,489
494,487,495,493,489
494,487,495,493,488
495,486,495,493,488
494,486,495,493,487
494,486,495,493,487
494,486,495,493,487
494,487,495,493,487
494,487,495,493,487
494,486,495,493,488
494,486,495,493,489
494,486,495,493,489
494,487,495,493,489
494,486,495,493,489
494,487,495,493,489
494,487,495,493,488
494,487,495,493,488
494,487,495,493,487
494,487,495,493,487
494,487,495,493,487
494,487,495,493,487
494,487,495,493,488
494,487,495,493,489
494,487,495,493,489
494,486,495,493,489
494,486,495,493,490
494,487,495,493,489
494,487,495,493,489
494,487,495,493,488
494,487,495,493,488
494,487,495,493,487
494,487,495,493,487
494,487,495,493,487
494,487,495,493,487
494,487,495,493,488
494,487,495,493,489
494,487,495,493,489
494,487,495,493,489
494,487,495,493,489
494,487,495,493,489
494,487,495,493,488
494,487,495,493,488
494,487,495,493,487
494,487,495,493,487
494,487,495,493,487
494,487,495,493,487
495,487,495,493,488
494,487,495,493,488
494,487,495,493,489
494,487,495,493,489
494,487,495,493,489
494,487,495,493,489
495,487,495,493,488
494,486,495,493,488
494,487,495,493,487
494,487,495,493,487
494,487,495,493,486
494,487,495,493,486
494,487,495,493,487
494,487,495,493,488
494,487,495,493,488
494,487,495,493,489
494,487,495,493,489
494,487,495,493,489
493,487,495,493,489
494,487,495,493,488
494,487,495,493,487
494,487,495,493,487
494,487,495,493,486
494,487,495,493,486
494,487,495,493,487
494,487,495,493,487
494,487,495,493,488
494,487,495,493,488
494,487,495,493,489
494,487,495,493,489
494,487,495,493,489
494,487,495,493,489
495,487,495,493,488
494,487,495,493,487
494,487,495,493,487
494,487,495,493,486
494,487,495,493,487
494,487,495,493,487
494,487,495,493,488
494,487,495,493,488
494,487,495,493,489
494,487,495,493,489
494,487,495,493,489
495,487,495,493,489
494,487,495,493,488
494,487,495,493,488
494,487,495,493,487
494,487,495,493,487
494,488,495,493,487
494,487,495,493,487
494,487,495,493,487
494,487,495,493,488
494,487,495,493,489
494,487,495,493,489
495,488,495,493,489
494,487,495,493,489
494,487,495,493,489
495,487,495,493,488
495,487,495,493,488
494,487,495,493,487
494,487,495,493,487
494,487,495,493,487
494,487,495,493,487
494,487,495,493,488
494,487,495,493,489
494,487,495,493,489
494,487,495,493,489
494,487,495,493,489
494,487,495,493,489
495,488,495,493,489
494,487,495,493,488
495,487,495,493,487
494,488,496,493,487
494,487,495,493,486
494,487,495,493,487
494,488,495,493,487
494,487,495,493,488
494,488,495,493,489
494,488,495,493,489
494,488,495,493,489
494,488,495,493,489
494,487,495,493,489
495,488,495,493,488
494,488,495,493,488
494,488,495,494,487
494,488,495,493,487
494,488,495,493,487
494,488,495,493,487
494,488,495,493,488
494,488,495,493,488
494,488,495,493,489
494,487,495,493,489
494,488,495,493,489
494,487,495,493,489
495,487,495,493,488
495,487,495,493,488
495,487,495,493,487
494,488,495,493,486
494,488,495,493,486
494,488,495,493,486
494,488,495,493,487
494,488,495,493,487
494,488,495,493,488
494,487,495,493,488
494,487,495,493,489
494,487,495,493,488
494,487,495,493,488
494,488,495,493,488
494,488,495,493,487
494,488,495,493,486
494,488,495,493,486
494,488,495,493,486
494,488,495,493,486
494,488,495,493,487
494,488,495,493,488
494,488,495,493,488
494,488,495,493,489
494,488,495,493,489
494,488,495,493,488
494,488,495,493,488
494,488,495,493,487
494,488,495,493,487
494,488,495,493,486
494,488,495,493,486
494,488,495,493,486
494,488,495,493,487
494,487,495,493,487
494,487,495,493,488
494,487,495,493,488
494,487,495,493,489
494,488,495,493,489
494,489,496,494,489
494,490,496,493,488
494,489,495,493,488
494,488,495,493,487
494,488,495,493,486
494,488,495,493,486
494,488,495,493,487
495,488,495,493,487
494,488,495,493,488
494,488,495,493,489
494,488,495,493,489
494,489,495,493,489
494,489,495,493,489
494,489,495,493,489
494,489,495,493,488
495,488,495,493,487
494,488,495,493,487
495,489,495,493,486
495,489,495,493,487
495,489,495,493,487
495,489,495,493,488
494,488,495,493,488
494,488,495,493,489
494,489,495,493,489
494,488,495,493,489
494,488,495,493,489
494,488,495,493,488
494,488,495,493,488
495,489,495,493,487
494,488,495,493,487
494,488,495,493,486
494,488,495,493,486
494,489,495,493,487
494,489,495,493,488
494,488,495,493,488
494,488,495,493,489
494,488,495,493,489
495,488,495,493,489
495,488,495,493,488
495,488,495,493,488
494,488,495,493,487
494,488,495,493,487
494,489,495,493,486
495,489,495,493,486
495,489,496,493,486
496,488,495,493,487
495,488,495,493,487
495,488,495,493,488
495,488,495,493,488
494,488,495,493,489
493,489,495,494,488
493,489,495,493,488
494,489,495,493,487
494,489,495,493,487
494,488,495,493,486
494,488,495,493,486
494,488,495,493,486
494,488,495,493,487
495,488,495,494,488
494,488,495,493,488
494,489,495,493,489
494,489,496,493,489
494,489,495,493,489
494,488,495,493,489
494,489,495,493,488
494,489,495,493,488
495,489,495,493,487
495,489,495,493,486
494,489,495,493,486
494,488,495,493,487
494,488,495,493,487
494,488,495,493,488
494,489,495,493,489
494,489,495,493,489
494,489,495,493,489
495,489,495,493,489
495,489,495,493,488
494,489,495,493,488
495,489,495,493,487
494,489,495,493,487
494,489,495,493,486
494,489,495,493,487
495,489,495,493,487
494,488,495,493,488
494,488,495,493,488
494,489,495,493,489
494,489,495,493,489
494,489,495,493,489
495,489,495,493,489
495,489,495,493,488
494,488,495,493,488
494,488,495,493,487
494,489,495,493,486
494,489,495,493,486
494,490,495,493,486
495,489,495,493,487
495,489,495,493,488
495,489,495,493,488
495,489,495,493,489
494,489,495,493,489
494,488,495,493,489
494,488,495,493,488
495,489,495,493,488
495,489,495,493,487
495,489,495,493,487
494,489,495,493,486
494,489,495,493,486
494,489,495,493,487
495,489,495,493,487
495,489,495,493,488
495,489,495,493,489
495,489,495,493,489
495,489,495,493,489
494,489,495,493,489
494,489,495,493,488
494,489,495,493,488
494,489,495,493,487
494,489,495,493,487
494,489,495,493,486
494,489,495,493,487
495,489,495,493,487
494,489,495,493,488
494,489,495,493,489
494,489,495,493,489
494,489,495,493,489
494,489,495,493,489
494,489,495,493,489
494,489,495,493,488
495,489,495,493,487
495,489,495,493,487
495,490,495,493,486
494,489,495,493,487
495,489,495,493,487
494,489,495,493,488
495,489,495,493,488
495,489,495,493,489
494,489,495,493,489
494,490,495,493,489
494,489,495,493,489
494,490,495,493,488
495,489,495,493,488
495,489,495,493,487
494,489,495,493,487
495,489,495,493,486
495,490,495,493,487
494,490,495,493,487
494,489,495,493,488
494,489,495,493,488
494,490,495,493,489
494,490,495,493,489
494,489,495,493,489
495,489,495,493,489
495,490,495,493,488
495,489,495,493,487
494,489,495,493,487
495,489,495,493,486
494,489,495,493,486
494,489,495,493,486
495,489,495,493,487
494,489,495,493,488
495,490,495,493,488
494,489,495,493,489
495,490,495,493,489
495,490,495,493,488
494,489,495,493,488
494,489,495,493,488
494,489,495,493,487
494,489,495,493,486
494,489,495,493,486
495,490,495,493,486
495,489,495,493,487
494,489,495,493,487
495,490,495,493,488
494,490,495,493,489
494,490,495,493,489
494,489,495,493,489
495,490,495,493,489
494,490,495,493,488
494,489,495,493,487
495,490,495,493,487
494,490,495,493,486
494,489,495,493,486
494,490,495,493,486
494,490,495,493,487
494,490,495,493,488
494,490,495,493,489
494,489,495,493,489
494,490,495,493,489
495,490,495,493,489
494,489,495,493,489
494,489,495,493,488
494,489,495,493,487
494,490,495,493,487
494,490,495,493,486
494,490,495,493,487
494,490,495,493,487
494,490,495,493,488
495,490,495,493,488
495,490,495,493,489
495,490,495,493,489
494,490,495,493,489
495,490,495,493,489
495,490,495,493,488
495,490,495,493,488
496,490,495,493,487
496,490,495,492,486
495,490,495,493,486
494,490,495,493,486
494,490,495,493,487
494,490,495,493,488
495,490,495,493,488
494,490,495,493,489
494,490,495,493,489
495,490,495,493,489
494,490,495,493,488
494,490,495,493,488
495,490,495,493,487
494,490,495,493,487
494,490,495,493,486
494,490,495,493,486
494,490,495,493,487
494,490,495,493,488
495,490,495,493,488
494,490,495,493,489
494,490,495,493,489
494,490,495,493,489
494,490,495,493,489
494,490,495,493,488
494,490,496,493,488
494,490,495,493,487
494,490,495,493,486
494,490,495,493,486
494,490,495,493,486
494,490,495,493,487
495,490,495,493,488
495,490,495,493,488
495,489,495,493,489
494,490,495,493,489
494,490,495,493,489
495,491,495,493,489
494,490,495,493,488
495,490,495,493,487
494,490,495,493,487
494,490,495,493,486
494,490,495,493,486
495,490,495,493,487
495,490,495,493,487
495,490,495,493,488
494,490,495,493,489
494,490,495,493,489
495,491,495,493,489
494,490,495,493,489
495,490,495,493,488
494,490,495,493,487
495,490,495,493,487
494,491,495,493,486
494,491,495,493,486
494,490,495,493,486
494,490,495,493,487
495,490,495,493,488
495,490,495,493,488
495,490,495,493,489
495,489,495,493,489
495,488,495,493,489
494,489,495,493,489
494,489,495,493,488
494,490,495,493,487
494,491,495,493,487
494,492,495,493,486
494,493,495,493,486
494,492,495,493,487
494,491,495,493,487
495,491,495,493,488
494,491,495,493,488
494,490,495,493,489
494,490,495,493,489
494,490,495,493,489
494,490,495,493,489
494,490,495,493,488
494,490,495,493,487
495,490,495,493,487
495,490,495,493,486
495,490,495,493,487
495,490,495,493,487
495,491,495,493,488
494,490,495,493,488
494,490,495,493,489
494,490,495,493,489
494,490,495,493,489
494,490,495,493,489
494,490,495,493,488
494,490,495,493,488
494,491,495,493,487
495,491,495,493,487
494,491,495,493,487
495,491,495,493,487
495,491,495,493,487
494,490,495,493,488
494,491,495,493,489
495,490,495,493,489
495,490,495,493,489
495,491,495,493,489
495,491,495,493,489
494,491,495,493,488
494,491,495,493,487
494,491,495,493,487
494,490,495,493,486
494,490,495,493,487
494,491,495,493,487
495,491,495,493,488
494,491,495,493,488
494,491,495,493,489
495,490,495,493,489
495,490,495,493,489
495,491,495,493,489
495,491,495,493,488
495,490,496,493,488
494,491,495,493,487
494,491,495,493,487
494,491,495,493,486
494,491,495,493,487
494,491,495,493,487
494,491,495,493,488
494,491,495,493,488
494,491,495,493,489
494,491,495,493,489
495,491,495,493,489
495,491,495,493,488
495,491,495,493,488
495,491,495,493,487
494,491,495,493,487
494,491,495,493,486
494,491,495,493,486
494,491,495,493,487
494,491,495,493,487
494,491,495,493,488
494,491,495,493,489
494,491,495,493,489
494,491,495,493,489
495,491,495,493,489
495,491,495,493,489
495,491,495,493,488
495,490,495,493,487
495,492,496,493,487
495,491,495,493,486
494,491,495,493,487
494,491,495,493,487
494,491,495,493,488
494,491,495,493,489
495,491,495,493,489
495,491,495,493,489
495,491,495,493,489
494,491,495,493,489
494,491,495,493,488
495,491,495,493,488
495,491,495,493,487
494,491,495,493,487
494,491,495,493,487
495,491,495,493,487
494,491,495,493,488
494,491,495,493,488
495,491,495,493,489
494,492,495,493,489
494,491,495,493,489
494,491,495,493,489
494,491,495,493,489
495,490,495,493,488
495,491,495,493,487
494,491,495,493,487
494,491,495,493,487
494,491,495,493,487
494,491,495,493,487
494,491,495,493,488
495,491,495,493,489
495,491,495,493,489
495,491,495,493,489
494,491,495,493,489
495,491,495,493,489
495,491,495,493,488
494,491,495,493,488
494,491,495,493,487
494,491,495,493,487
494,491,495,493,487
494,491,495,493,487
494,490,495,493,488
494,490,495,493,488
494,490,495,493,489
494,491,495,493,489
494,492,496,493,489
495,492,495,493,489
495,492,495,493,489
494,492,495,493,488
495,492,495,493,487
494,492,495,493,487
494,491,495,493,486
494,492,495,493,486
494,491,495,493,487
495,492,495,493,487
495,492,495,493,488
494,491,495,493,489
494,491,495,493,489
495,491,495,493,489
494,491,495,493,489
494,491,495,493,488
494,491,495,493,488
495,491,495,493,487
494,492,495,493,487
494,492,495,493,486
494,491,495,493,487
494,491,495,493,487
495,491,495,493,488
495,492,495,493,489
495,491,495,493,489
494,491,495,493,489
494,492,495,493,489
494,491,495,493,489
494,492,495,493,488
495,492,495,493,487
494,492,495,493,487
494,491,495,493,487
495,491,495,493,487
495,492,495,493,487
494,491,495,493,487
494,491,495,493,488
494,492,495,493,489
494,492,495,493,489
495,492,495,493,489
495,491,495,493,489
494,491,495,493,488
494,491,495,493,488
495,491,495,493,487
494,492,495,493,486
495,492,495,493,486
494,492,495,493,486
495,492,495,493,487
495,492,495,493,488
495,492,495,493,488
495,492,495,493,489
494,492,495,493,489
494,491,495,493,489
494,491,495,493,488
495,492,495,493,488
495,492,495,493,487
494,492,495,493,487
495,492,495,493,486
495,491,495,493,486
495,492,495,493,486
494,491,495,493,487
494,492,495,493,488
494,492,495,493,488
494,492,495,493,489
494,491,495,493,489
494,491,495,493,489
494,491,495,493,488
495,491,495,493,487
495,491,495,493,487
495,492,495,493,486
495,492,495,493,486
494,492,495,493,486
494,492,495,493,487
495,492,495,493,487
494,492,495,493,488
495,492,495,493,489
495,492,495,493,489
495,492,495,493,489
494,492,495,493,489
495,492,495,493,488
495,492,495,493,487
495,492,495,493,487
495,492,495,493,486
494,492,495,493,486
494,492,495,493,487
494,492,495,493,487
495,492,495,493,488
495,492,495,493,489
495,491,495,493,489
494,492,495,493,489
495,492,495,493,489
495,492,495,493,488
495,492,495,493,488
495,492,495,493,487
495,492,495,493,486
495,492,495,493,486
495,492,495,493,486
495,492,495,493,487
495,492,495,493,487
495,493,495,493,488
495,492,495,493,489
495,492,495,493,489
495,492,495,493,489
495,492,495,493,489
495,492,495,493,488
495,492,495,493,487
494,492,495,493,487
494,492,495,493,486
495,492,495,493,486
494,492,495,493,486
495,492,495,493,487
495,492,495,493,488
495,492,495,493,488
495,492,495,492,489
495,492,495,492,489
494,492,495,493,489
494,492,495,493,488
494,492,495,493,488
494,492,495,493,487
495,492,495,493,487
495,492,495,493,486
495,492,495,493,486
495,492,496,493,487
494,492,495,493,487
495,493,495,493,488
495,492,495,493,489
495,492,495,493,489
494,492,495,493,489
494,492,495,493,489
494,492,496,493,488
494,492,495,493,488
494,490,495,493,487
496,492,496,493,487
495,492,495,493,486
495,492,495,493,487
495,492,495,493,487
495,492,495,493,488
495,493,495,493,488
495,493,495,493,489
495,493,495,493,489
495,493,495,493,489
495,493,495,493,488
495,493,495,493,488
495,493,495,493,487
495,493,495,493,487
495,492,495,493,486
495,493,495,493,486
495,493,495,492,486
495,493,495,493,487
495,493,495,493,488
495,493,495,493,488
495,493,495,493,489
495,493,495,493,489
495,493,495,493,489
495,492,495,493,488
496,492,495,493,488
495,492,495,493,487
494,492,495,492,486
494,492,495,493,486
495,492,496,493,486
495,493,495,493,487
495,493,495,493,488
495,493,495,493,488
495,492,495,493,489
495,492,495,493,489
495,492,495,493,489
495,493,495,493,489
495,493,495,493,488
495,493,495,493,487
495,492,495,493,487
495,492,495,493,487
495,492,495,493,487
495,492,495,493,487
495,493,495,493,487
495,493,495,493,488
495,492,495,493,489
495,493,495,493,489
495,493,495,493,489
495,493,495,493,489
495,493,495,493,488
495,493,495,493,488
495,493,495,493,487
495,493,495,493,487
494,492,495,493,486
494,492,495,493,487
495,492,495,493,487
494,493,495,493,488
494,493,495,493,488
495,493,495,493,489
495,493,495,493,489
495,493,495,493,489
495,493,495,493,489
495,493,495,493,488
495,493,495,493,488
495,492,495,493,487
495,493,495,493,486
495,493,495,493,486
495,493,495,493,486
495,493,495,493,487
495,493,495,493,488
495,493,495,493,488
495,493,495,493,489
495,493,495,493,489
495,493,495,493,489
494,493,495,493,489
495,493,495,493,488
495,493,495,493,487
495,493,495,493,487
495,493,495,493,487
495,493,495,493,487
495,493,495,493,487
494,493,495,493,488
495,493,495,493,488
495,493,495,493,489
495,493,495,493,489
495,493,495,493,489
495,493,495,493,489
495,493,495,493,488
494,493,495,493,488
495,493,495,493,487
495,493,495,493,486
495,493,495,493,486
495,493,495,493,486
495,493,495,493,487
495,493,495,493,488
494,493,495,492,488
494,493,495,493,489
494,493,495,493,489
495,493,495,493,489
495,493,495,493,488
495,493,495,493,488
495,493,495,493,487
495,493,495,493,487
495,493,495,493,486
495,493,495,492,486
494,493,495,493,486
494,493,495,493,487
495,493,496,493,488
494,493,495,493,488
494,493,495,493,489
495,493,495,493,489
496,493,495,493,489
495,493,495,493,488
495,493,495,493,488
495,493,495,493,487
494,493,495,493,486
495,493,495,493,486
495,493,495,493,486
495,493,495,493,487
495,493,495,493,488
495,494,495,493,488
495,493,495,493,489
495,493,495,493,489
495,493,495,492,489
495,493,495,493,489
495,493,495,493,488
495,493,495,493,488
495,493,495,493,487
494,493,495,493,486
494,493,495,493,486
495,494,495,493,487
495,494,495,493,487
495,493,495,493,488
495,493,495,493,489
495,493,496,493,489
494,493,495,493,489
495,494,495,493,489
495,493,495,493,488
495,493,495,493,488
495,494,495,493,487
495,494,495,493,486
495,493,495,493,486
494,493,495,493,486
495,494,495,493,487
495,494,495,493,487
495,494,495,493,488
495,494,495,493,489
495,494,495,493,489
494,493,495,493,489
494,493,495,493,489
494,494,495,493,488
495,493,495,493,488
495,493,495,493,487
495,493,495,493,487
495,494,495,493,486
495,494,495,493,487
495,493,495,493,487
495,494,495,493,488
495,494,495,493,489
494,494,495,493,489
495,494,495,493,489
495,494,495,493,489
495,494,495,493,489
495,494,495,493,488
495,494,495,493,487
495,494,495,493,487
495,494,495,493,486
494,493,495,493,486
494,493,496,493,487
494,494,495,493,488
495,494,495,493,488
495,494,495,493,489
495,494,495,493,489
495,494,495,493,489
494,494,495,493,489
495,494,495,493,488
495,494,495,493,488
495,494,495,493,487
494,494,495,493,487
494,493,495,493,486
495,494,495,493,486
494,493,495,493,487
495,494,495,493,488
495,494,495,493,489
495,494,495,493,489
494,494,495,493,489
495,494,495,493,489
495,494,496,493,489
495,495,495,493,488
495,495,495,493,487
494,494,495,493,487
495,494,495,493,486
495,494,495,493,486
495,494,495,493,486
495,494,495,493,487
495,494,495,493,488
495,494,495,493,489
495,494,495,493,489
494,494,495,493,489
495,495,495,493,488
495,494,495,493,488
495,494,495,493,487
495,494,495,493,487
494,494,495,493,486
494,494,496,493,486
494,494,496,493,486
494,495,495,493,487
495,495,495,493,488
495,494,495,493,488
494,494,495,493,489
495,495,495,493,489
495,495,495,493,489
495,494,495,493,488
495,495,495,493,488
495,495,495,493,487
495,494,495,493,487
495,494,495,493,486
494,494,495,493,486
495,494,495,493,486
495,494,495,493,487
494,494,495,493,488
494,494,495,493,489
495,494,495,493,489
495,495,495,493,489
495,494,495,493,489
494,494,495,493,488
494,494,495,493,488
495,494,495,493,487
495,494,495,493,486
494,494,495,493,486
495,494,495,493,486
495,494,495,493,487
495,494,495,493,488
495,495,495,493,488
495,495,495,493,489
495,494,495,493,489
495,494,495,493,489
495,494,495,493,489
494,494,495,493,488
495,495,495,493,488
495,494,495,493,487
495,494,495,493,487
495,495,496,493,487
494,494,495,493,487
495,494,495,493,488
495,495,495,493,489
494,495,495,493,489
494,495,495,493,489
495,495,495,493,490
495,494,495,493,489
494,495,495,493,489
494,494,495,493,488
495,494,495,493,488
495,494,495,493,487
495,494,495,493,487
495,495,495,493,487
495,495,495,493,487
495,495,495,493,488
495,495,495,493,489
495,494,495,493,489
494,494,495,493,489
495,494,495,493,489
495,494,495,493,489
495,494,495,493,488
495,495,495,493,487
494,494,495,493,487
495,494,495,493,486
495,495,495,493,486
495,494,495,493,486
495,495,495,493,487
495,495,495,493,488
494,494,496,493,488
494,494,495,493,489
494,494,495,493,489
495,495,495,493,489
495,494,495,493,488
495,495,496,493,488
495,494,495,493,487
495,494,495,493,487
495,494,495,493,486
495,495,495,493,486
495,495,495,493,487
495,494,495,493,487
494,495,495,493,488
495,494,495,493,489
494,494,495,493,489
494,494,496,493,489
495,494,495,493,489
494,494,495,493,488
495,495,495,493,487
495,495,495,493,487
495,494,495,493,486
495,495,495,493,486
495,494,495,493,486
495,495,495,493,487
495,495,495,493,488
495,495,495,493,488
494,495,495,493,489
495,495,495,493,489
495,495,495,493,489
495,495,495,493,489
495,495,495,493,488
495,495,495,493,487
494,495,495,493,487
495,495,495,493,486
494,495,495,493,486
495,495,495,493,487
494,494,495,493,487
495,495,495,493,488
494,494,495,493,489
494,495,495,493,489
495,495,495,493,489
495,495,495,493,489
494,494,495,493,488
495,495,495,493,488
495,494,495,493,487
495,495,495,493,487
494,494,496,493,487
494,495,495,493,487
495,494,495,493,487
495,494,495,493,488
495,495,496,493,488
494,495,495,493,489
494,495,495,493,489
495,495,495,493,489
495,495,495,493,489
495,495,495,493,488
495,495,495,493,487
495,495,496,493,487
494,495,495,493,486
495,495,495,493,486
495,495,495,493,486
495,495,495,493,487
495,495,495,493,488
495,495,495,493,489
494,495,495,493,489
494,495,495,493,489
495,495,495,493,489
495,495,495,493,488
495,495,495,493,488
495,495,495,493,487
495,495,495,493,486
495,495,495,493,486
494,495,495,493,486
494,495,496,493,487
495,495,495,493,487
494,495,495,493,488
495,495,496,493,488
495,495,495,493,488
494,495,495,493,488
494,495,496,493,488
495,495,495,493,487
495,495,495,493,487
494,495,495,493,486
495,495,495,493,486
495,495,495,493,486
495,495,495,493,486
495,495,495,493,486
495,495,495,493,487
495,495,495,493,488
495,495,495,493,488
495,495,495,493,488
494,495,495,493,488
