Sensor0,Sensor1,Sensor2,Sensor3,Sensor4

495,494,487,494,492
495,493,488,494,492
497,493,489,494,493
500,493,489,495,493
502,493,489,494,493
501,493,489,494,493
498,493,488,494,493
494,493,488,494,493
494,493,487,494,493
496,493,487,494,493
496,493,486,494,493
496,493,487,494,493
497,493,487,494,493
496,493,488,494,493
496,493,489,494,493
496,493,489,494,493
496,493,489,494,493
496,493,489,494,492
496,493,489,494,493
496,493,488,494,492
496,493,488,494,492
496,493,487,494,492
496,493,486,494,492
496,493,486,494,493
496,493,486,494,493
496,493,487,495,492
496,493,488,494,493
496,493,489,494,493
496,493,489,494,493
496,493,490,494,493
496,493,489,494,492
496,493,489,494,493
496,493,488,494,492
496,494,488,494,493
497,493,487,494,493
496,494,487,494,492
496,493,487,494,492
496,493,487,494,492
497,493,488,494,493
497,493,489,494,493
496,493,489,494,492
496,493,490,494,492
496,493,490,494,492
497,493,489,494,493
497,493,489,494,492
496,493,488,494,493
497,493,487,494,493
497,493,487,494,493
496,493,487,494,492
496,493,487,494,493
496,493,487,494,493
496,492,488,494,493
496,493,489,494,493
496,493,489,494,493
496,492,490,494,493
497,493,489,494,492
496,494,489,494,492
496,493,488,494,492
496,493,488,494,493
496,493,487,495,493
496,493,486,494,493
496,493,486,494,493
496,493,487,494,492
497,493,488,494,492
498,493,489,494,492
499,493,489,494,492
499,493,490,495,492
495,493,489,494,493
495,493,489,495,493
496,492,488,494,493
496,493,488,494,493
496,493,487,494,493
497,493,487,495,493
496,493,487,494,493
496,493,487,495,492
496,493,487,494,493
496,493,488,494,493
496,493,489,494,493
496,493,489,494,493
496,493,490,494,493
496,493,489,494,493
496,493,489,494,493
496,493,488,494,493
496,493,487,494,492
496,493,487,494,492
496,493,486,494,493
496,493,486,494,492
496,493,487,494,492
496,493,487,494,492
497,493,488,494,493
496,494,489,494,492
496,493,490,494,492
496,493,489,494,493
496,494,489,494,493
496,493,489,494,493
496,493,488,494,493
496,493,487,495,493
496,493,487,494,493
496,493,486,494,493
496,493,486,494,493
496,493,487,494,493
496,493,488,494,493
497,493,489,494,493
497,493,490,494,493
496,494,490,495,493
496,492,489,494,493
496,493,489,494,493
497,493,488,494,493
497,493,487,494,493
497,493,487,494,493
496,493,486,494,493
496,493,486,494,493
496,493,487,494,492
496,493,487,494,493
497,494,488,494,492
496,493,489,494,493
496,493,489,494,493
496,493,489,494,493
496,493,489,494,493
496,493,489,494,492
496,493,488,494,493
496,493,487,494,493
496,493,487,494,493
498,493,487,494,493
499,493,487,494,493
498,492,487,494,493
498,493,488,494,493
497,493,488,494,493
493,493,489,494,493
494,493,489,495,493
496,493,489,494,493
497,493,489,494,493
496,493,488,494,493
496,493,487,494,493
496,493,487,494,493
496,493,486,494,493
496,492,486,494,493
496,493,486,494,493
496,493,487,494,493
496,493,488,494,493
496,493,489,494,493
496,493,489,494,493
496,493,489,494,493
496,493,489,494,493
496,493,488,494,493
496,493,488,494,493
497,493,487,494,493
496,493,487,494,493
496,493,486,494,493
496,493,486,494,493
496,493,487,494,493
496,493,487,494,493
496,493,488,494,493
496,493,489,494,493
496,493,489,494,493
496,492,489,494,493
496,493,489,494,493
496,492,488,494,493
497,493,488,494,493
497,493,487,494,493
497,492,486,494,493
497,493,486,494,493
496,494,487,494,493
496,493,487,494,493
496,493,488,494,493
496,493,489,494,493
496,493,489,494,493
496,493,489,495,493
496,494,489,494,493
496,493,489,494,493
496,494,488,494,493
495,492,487,494,493
495,493,487,494,493
495,493,486,494,493
496,493,486,494,493
496,493,487,494,493
498,492,487,494,493
498,493,488,494,493
497,493,489,494,493
496,492,489,494,493
496,493,489,494,493
496,493,489,494,493
496,493,488,494,493
497,493,488,494,493
497,493,487,494,493
496,493,486,494,493
499,493,486,495,493
500,493,487,494,493
500,493,487,494,493
500,493,488,494,493
496,493,489,494,493
493,493,489,495,493
494,493,489,494,493
496,493,489,494,493
496,493,489,494,493
496,493,488,494,493
497,493,488,494,493
496,493,487,494,493
497,492,486,494,493
497,493,486,494,493
497,493,487,494,493
497,493,488,494,493
496,492,488,494,493
497,493,489,494,493
496,493,489,494,493
496,494,490,494,493
496,493,489,494,493
496,493,489,494,493
496,493,488,495,493
496,493,487,494,493
496,493,487,494,493
496,493,486,494,493
496,493,487,494,493
496,494,487,494,493
496,494,488,494,493
496,493,489,494,493
496,493,489,494,493
497,493,490,494,493
496,493,489,494,493
496,493,489,494,493
496,493,488,494,493
496,493,488,494,493
497,493,487,494,493
496,493,486,494,493
496,493,486,494,493
496,493,487,494,493
496,493,487,494,493
496,493,488,494,493
496,493,489,494,493
497,493,489,494,493
496,493,489,494,493
496,493,489,494,493
496,493,489,495,493
496,493,488,494,493
496,493,487,494,493
496,493,486,494,493
496,493,486,494,493
496,494,486,494,493
496,493,487,494,493
496,493,488,494,493
496,493,488,494,493
496,494,489,494,493
497,494,490,494,493
497,492,489,495,493
496,493,489,494,493
495,493,488,495,493
495,493,488,494,493
497,493,487,494,493
500,493,487,494,493
502,493,487,495,493
500,493,487,494,493
496,492,487,494,493
492,493,488,494,493
495,493,489,494,493
496,493,489,494,494
496,493,490,494,493
496,493,489,494,493
496,493,489,494,493
496,493,488,494,493
496,493,487,494,493
496,493,487,494,493
496,493,487,494,493
496,493,487,494,493
496,493,487,494,493
496,493,488,494,493
496,493,488,494,493
496,493,489,494,493
496,493,489,494,493
496,493,489,494,493
496,493,489,494,493
496,493,488,494,493
496,493,488,494,493
496,493,487,494,493
496,493,487,494,493
496,492,486,494,493
496,493,487,494,493
496,493,487,494,493
496,493,488,494,493
496,493,489,494,493
496,493,489,494,493
496,493,490,494,493
496,493,489,494,493
496,493,489,494,493
497,494,488,494,493
496,493,488,494,493
496,493,487,494,493
496,493,486,494,493
496,493,486,494,493
496,493,487,494,493
496,493,487,494,494
496,493,488,494,493
496,493,489,494,493
496,493,489,494,493
496,493,489,494,493
496,493,489,494,493
496,493,489,494,493
496,493,488,494,493
496,494,487,494,493
496,493,487,495,493
496,493,486,494,493
496,493,487,494,493
496,493,487,494,493
496,493,488,494,493
496,493,489,494,493
496,493,489,494,493
496,493,489,494,493
496,493,489,494,493
496,493,489,494,493
496,493,488,494,493
496,493,488,494,493
496,493,487,495,493
496,493,487,494,493
496,493,486,494,493
496,493,487,494,493
496,494,488,494,493
497,493,488,495,493
499,493,489,494,493
500,493,490,494,493
500,493,490,494,493
498,493,489,494,493
493,493,489,494,493
491,493,488,494,493
494,493,488,494,493
496,493,487,494,493
498,493,487,494,493
497,493,487,494,493
496,493,487,495,493
497,493,488,494,493
497,493,489,494,493
496,493,489,494,493
497,493,490,494,493
497,493,490,494,493
497,493,489,494,493
496,493,489,494,493
496,493,488,494,493
496,493,487,494,493
496,493,487,494,493
496,493,487,494,493
496,493,487,494,493
496,493,487,494,493
496,493,488,494,493
496,493,489,494,493
496,493,489,494,493
496,493,490,494,493
496,493,489,494,493
496,494,489,494,493
496,493,488,494,493
496,493,487,494,493
496,493,487,495,493
496,493,486,495,493
497,493,487,495,493
496,493,487,494,493
496,493,488,494,493
496,493,489,494,493
496,493,489,494,493
496,493,490,494,493
496,493,490,494,493
497,493,489,494,493
496,493,489,494,493
496,493,488,494,493
497,494,488,494,493
496,493,487,494,493
496,493,487,495,493
496,492,487,494,493
496,493,487,494,493
496,493,488,494,493
496,493,489,494,493
496,493,489,494,493
496,493,490,495,493
496,493,489,494,493
497,493,489,494,493
497,494,489,494,493
496,493,488,495,493
496,493,487,494,493
498,493,487,494,493
499,493,487,494,493
498,493,487,494,493
497,493,488,494,493
496,493,489,494,493
492,494,489,494,493
494,494,490,494,493
496,493,490,494,493
497,493,490,494,493
497,492,489,494,493
496,493,488,494,493
496,493,487,494,493
496,493,487,494,493
496,493,486,494,493
496,493,487,494,493
496,493,487,494,493
497,493,488,494,493
496,494,489,494,493
496,493,490,494,493
497,493,490,494,493
496,493,489,494,493
496,493,489,494,493
496,493,488,495,493
496,493,488,494,493
496,493,487,494,493
496,493,487,494,493
496,493,487,494,493
497,494,487,494,493
496,493,488,495,493
496,493,489,494,493
497,493,489,494,493
496,493,490,494,493
496,493,490,494,493
497,493,490,494,493
496,493,489,495,493
496,493,488,494,493
496,493,488,494,493
496,493,487,494,493
496,493,487,494,493
496,493,487,494,493
496,493,487,494,493
496,493,488,494,493
496,493,489,494,493
496,493,489,494,493
496,493,490,494,493
496,493,490,494,493
496,493,489,494,493
496,493,489,495,493
496,493,488,495,493
495,494,487,495,493
495,492,486,495,493
496,492,486,495,493
496,493,487,494,493
499,493,488,494,493
501,493,489,494,493
500,493,489,494,493
500,493,490,494,493
500,493,490,494,493
495,493,489,495,493
493,493,489,495,493
495,493,488,495,493
496,493,488,495,493
496,493,487,494,493
496,493,487,495,493
497,493,487,494,493
496,493,487,494,493
496,493,488,494,493
497,493,489,495,493
496,493,489,494,493
497,493,490,494,493
497,493,489,494,493
496,493,489,494,493
496,493,489,494,493
496,493,488,494,493
496,493,487,494,493
496,494,487,494,493
496,494,487,494,493
496,492,487,494,493
496,492,487,494,493
497,493,488,494,493
496,494,489,494,493
497,493,490,494,493
496,493,489,494,493
496,493,489,494,493
496,493,489,494,493
496,492,488,494,493
497,493,488,494,493
496,493,487,494,494
497,493,487,494,494
496,493,487,494,493
496,493,487,494,493
496,493,488,494,493
496,493,489,494,493
496,493,489,494,493
497,493,489,494,493
497,493,489,494,493
496,493,489,494,493
496,493,489,494,493
496,493,488,494,493
496,493,487,494,493
496,493,487,494,493
496,493,486,494,493
496,493,487,494,494
496,493,487,494,494
496,493,488,494,493
497,493,489,494,493
496,493,489,494,493
497,493,490,494,493
496,493,489,495,493
496,493,489,494,493
496,493,488,494,493
496,493,488,494,494
497,493,487,494,493
496,493,487,494,493
496,493,486,494,493
496,493,487,494,493
496,493,487,494,493
496,493,488,494,493
496,493,489,494,493
496,493,489,494,493
496,493,490,494,493
496,493,489,494,493
496,493,489,495,493
496,493,488,494,493
496,493,487,495,493
496,493,487,494,493
496,493,486,494,493
496,493,487,494,493
496,493,487,494,493
497,493,488,495,493
498,493,489,494,493
498,492,489,494,493
497,492,489,494,493
497,493,489,495,493
493,494,489,496,494
494,494,489,496,493
497,493,488,494,493
497,493,487,495,493
496,493,487,494,493
496,493,487,493,493
496,493,487,493,493
496,493,488,494,493
496,493,488,494,493
497,493,489,494,493
496,493,490,494,493
496,494,490,494,493
496,494,490,494,493
497,492,489,494,494
497,492,488,494,493
496,492,487,494,493
496,492,487,494,490
493,496,487,496,494
496,490,487,491,493
500,493,487,491,497
501,492,487,494,490
493,489,491,503,493
494,489,489,489,490
493,488,489,489,490
493,489,490,490,491
494,489,489,490,492
494,489,489,490,492
494,489,488,491,493
494,489,487,491,493
494,489,486,491,493
495,490,486,491,493
495,490,486,492,493
495,490,487,492,493
495,490,488,492,494
495,490,488,492,494
495,490,488,492,493
495,490,488,493,494
495,490,488,493,494
495,490,488,493,494
495,490,487,493,494
494,490,486,492,493
494,489,485,491,493
494,489,485,491,493
494,489,485,491,493
494,490,485,492,493
495,489,486,492,493
495,490,487,492,494
494,490,487,492,493
495,490,488,492,493
495,490,488,492,493
495,490,487,493,493
495,491,487,493,493
495,490,486,492,493
495,490,485,492,493
495,490,485,491,494
494,490,484,492,493
495,490,485,492,493
494,490,485,492,493
495,490,486,492,493
495,490,487,492,493
494,490,487,492,493
495,490,488,492,493
494,490,487,492,493
495,491,487,493,493
495,491,486,493,493
495,491,486,494,493
495,491,485,494,493
495,491,485,492,493
494,490,484,490,493
494,490,485,490,493
495,491,485,491,493
495,490,486,492,493
495,491,487,492,493
495,491,488,492,493
495,491,488,493,493
495,491,487,492,493
494,490,487,491,493
495,490,486,491,493
495,491,485,492,493
495,491,485,492,493
495,491,485,492,493
494,490,485,491,493
495,490,485,492,493
495,491,486,492,493
495,491,487,492,493
495,491,488,493,493
495,491,488,493,493
495,492,488,492,493
495,490,487,491,493
495,490,486,491,493
495,490,486,492,492
495,491,485,492,493
495,492,485,492,492
495,492,485,493,493
495,491,485,492,493
495,491,486,492,493
494,490,487,492,493
495,490,487,492,493
495,490,487,493,493
495,490,488,492,493
494,490,487,493,493
495,492,487,493,493
495,492,487,494,493
495,492,486,494,493
495,492,485,493,493
495,491,485,492,492
494,491,485,491,493
495,491,486,492,493
495,491,487,493,493
495,491,487,492,493
495,491,488,492,492
495,491,488,492,493
495,490,488,492,492
495,491,488,493,600
560,530,486,505,493
499,498,482,494,489
496,497,483,494,489
496,496,483,494,490
496,496,484,494,490
496,495,485,493,490
497,496,486,493,491
497,496,488,494,491
497,495,489,494,491
497,495,490,494,491
497,495,490,494,491
497,496,490,495,492
497,495,490,495,492
497,495,489,496,492
497,494,489,495,491
497,495,488,495,491
497,496,488,496,492
498,496,489,496,492
498,495,489,495,492
497,492,489,495,492
497,494,490,496,493
497,496,491,495,492
498,496,492,495,492
497,495,491,495,493
497,495,491,495,492
497,496,491,495,492
497,495,490,495,492
497,495,489,495,493
497,494,488,495,492
497,493,488,494,492
497,493,488,494,492
497,494,488,495,492
497,494,489,495,493
497,493,490,495,493
497,494,490,495,492
497,494,490,495,493
497,495,491,496,493
497,494,490,496,493
497,495,489,496,492
497,494,489,495,493
497,493,487,494,492
496,494,487,494,492
497,495,487,495,493
497,494,488,496,493
497,494,488,495,492
497,494,489,496,493
497,494,490,494,492
497,494,490,494,493
497,495,491,495,493
497,494,491,496,493
497,493,489,497,493
497,493,488,494,493
497,493,488,494,493
497,493,487,495,493
497,493,487,496,493
497,493,487,495,492
496,492,487,495,492
497,493,488,495,492
497,494,489,495,493
497,494,490,496,493
497,494,490,495,493
497,494,490,496,493
497,494,490,495,492
497,493,489,495,493
497,495,488,496,493
497,494,488,495,492
497,494,487,495,493
497,495,488,496,493
497,495,488,495,492
497,494,489,496,493
497,495,490,497,493
498,495,490,497,493
497,492,490,496,492
496,493,490,495,492
496,494,490,495,493
497,494,490,494,492
497,493,489,494,493
497,493,488,494,492
497,494,487,495,493
497,494,487,494,493
497,494,487,495,492
497,494,488,495,492
497,494,489,496,492
497,495,490,495,493
497,494,490,495,493
497,494,490,496,493
497,492,490,496,493
497,493,490,496,493
497,495,489,496,493
497,493,488,495,492
496,493,488,496,492
497,495,487,496,493
497,494,487,495,492
497,493,487,495,492
497,493,488,495,492
497,492,488,495,493
497,494,490,496,493
497,496,490,496,492
496,494,490,495,492
497,494,490,495,493
497,494,490,496,492
497,494,489,495,492
497,495,488,496,493
497,493,487,495,492
496,493,487,495,492
496,492,487,496,493
497,494,487,495,492
496,493,488,495,492
497,493,489,495,491
494,488,488,489,488
493,488,489,491,489
494,489,489,491,490
494,489,489,492,490
494,489,488,492,491
494,490,488,492,491
495,490,487,492,491
494,490,487,493,492
495,490,486,493,492
495,490,486,493,492
495,489,487,493,492
495,490,488,493,492
495,490,488,493,493
495,488,488,491,492
494,485,487,491,492
495,491,488,493,493
495,492,488,493,493
495,490,487,493,492
495,490,486,493,492
495,489,485,492,492
495,489,484,492,492
495,490,485,493,493
495,491,485,493,492
495,492,486,493,492
495,492,487,493,492
495,492,488,493,492
495,490,488,492,492
494,489,487,492,492
494,488,487,492,492
495,491,487,493,492
495,491,486,493,492
495,490,485,493,492
495,490,485,493,492
495,491,485,493,492
495,491,485,493,492
495,491,486,492,492
495,491,486,492,492
495,490,487,492,492
495,490,487,492,491
494,490,488,492,492
495,491,488,492,492
495,490,487,492,492
495,491,487,492,492
495,491,486,492,492
495,491,485,493,492
495,491,485,492,491
495,491,485,493,492
495,491,485,493,492
495,491,486,493,492
495,490,487,493,492
495,489,487,492,492
495,490,487,492,491
495,492,488,492,491
495,491,487,493,492
495,491,487,493,492
495,491,486,493,492
495,491,486,493,492
495,491,485,493,492
495,491,485,493,492
495,491,485,493,492
495,491,486,492,491
495,491,486,492,492
495,491,487,492,491
495,491,488,493,492
495,491,488,493,492
495,492,488,493,491
495,493,488,494,491
495,491,487,493,491
495,491,486,493,491
495,491,486,493,491
494,490,485,492,492
495,493,485,492,491
495,492,486,492,491
495,490,485,492,491
495,490,486,492,491
495,491,487,492,492
495,490,488,493,492
495,490,488,493,492
495,492,487,492,492
495,491,487,492,492
495,492,486,492,491
495,492,486,492,491
495,493,486,492,492
495,492,485,492,492
495,492,485,493,492
495,490,485,493,492
494,489,486,493,491
495,490,487,492,609
568,536,487,506,493
500,498,484,494,487
497,496,485,494,487
496,496,485,494,488
497,496,486,494,489
497,496,486,495,489
497,496,486,494,489
497,495,485,494,489
497,495,485,494,490
497,496,486,495,490
497,495,487,495,490
498,495,488,495,490
497,495,489,495,490
498,495,490,495,490
498,495,490,495,491
498,495,490,495,490
497,496,490,495,490
497,496,489,496,491
497,495,488,495,491
497,492,487,494,491
496,492,487,495,491
497,496,488,495,491
497,494,488,495,491
497,494,489,496,491
497,495,490,495,491
497,495,490,495,491
497,495,491,495,491
497,495,491,495,491
497,494,490,494,490
496,493,490,494,489
496,493,489,493,490
498,496,489,499,493
498,494,488,496,492
497,494,487,495,491
497,494,488,495,491
497,493,488,494,490
496,491,488,490,488
494,491,489,492,488
494,489,490,499,509
509,498,490,492,486
492,488,489,489,486
493,489,489,490,488
494,490,489,491,489
494,490,488,491,490
494,490,487,492,490
494,489,486,492,490
494,489,487,492,491
495,490,487,492,491
495,490,487,492,491
495,489,488,493,491
495,489,488,493,492
495,490,489,492,491
495,490,489,493,491
495,490,488,493,491
495,491,488,493,491
495,490,487,493,491
495,490,486,492,491
495,492,486,492,491
495,490,485,493,491
495,490,486,493,491
495,491,486,493,491
495,490,487,493,492
495,489,487,493,491
495,490,488,493,492
495,490,488,493,491
495,491,488,492,491
495,491,488,492,491
495,491,487,492,491
496,491,486,493,491
495,491,486,493,491
495,490,485,493,492
496,491,485,493,492
495,492,485,493,491
495,491,486,492,491
495,490,486,493,491
495,491,487,493,491
495,491,488,493,491
495,492,488,492,491
495,493,488,493,491
495,490,487,493,491
495,491,487,493,491
495,491,486,493,491
495,490,485,493,491
495,491,485,493,491
495,491,485,492,491
495,490,485,492,491
495,491,486,492,491
495,491,487,493,491
495,490,487,492,491
495,490,487,493,491
495,491,488,493,491
495,491,487,492,491
495,491,487,492,491
495,491,486,493,491
495,490,485,493,491
495,491,485,492,491
495,491,485,493,491
495,491,485,493,491
495,491,485,492,491
495,489,486,493,491
495,492,487,493,491
495,491,488,494,491
495,491,488,494,491
495,491,488,494,491
495,491,487,492,491
495,490,486,492,491
495,489,485,492,491
495,491,485,492,491
495,491,485,493,491
495,491,485,492,491
553,589,497,522,500
502,501,487,496,488
497,497,487,494,487
496,497,488,494,487
497,497,490,494,488
497,497,490,494,489
497,496,490,494,489
497,495,489,494,489
497,494,489,495,490
497,495,488,495,489
497,495,488,495,490
498,495,487,495,490
498,495,488,494,489
497,495,488,494,490
497,495,489,495,490
498,495,490,496,490
498,495,491,495,491
497,494,491,495,490
497,493,490,495,490
497,494,490,495,490
498,494,489,495,490
497,495,489,495,490
498,494,488,495,491
498,494,487,495,490
497,495,488,496,490
497,495,488,495,490
497,494,489,495,491
497,494,489,496,491
497,494,490,496,491
498,494,490,496,491
497,493,490,495,490
497,493,490,495,491
497,494,489,495,491
497,494,489,496,491
498,494,488,495,491
497,494,488,495,491
497,494,487,496,491
497,493,487,496,491
497,494,488,495,491
498,494,489,496,491
498,495,490,497,491
498,495,491,497,491
498,495,491,498,491
498,494,491,497,491
497,493,490,494,490
497,493,489,494,491
498,494,489,496,491
498,495,488,497,491
498,495,488,497,491
498,495,488,497,491
497,494,488,495,490
497,494,489,496,491
498,495,490,498,491
497,496,491,498,492
497,493,490,496,491
497,493,490,495,491
497,493,490,494,491
497,493,489,495,491
497,493,489,497,491
498,495,489,498,491
497,495,488,497,491
497,493,487,495,490
497,494,487,495,490
497,493,487,494,491
497,492,487,494,491
497,490,488,494,491
497,493,489,495,491
497,495,489,495,492
497,493,489,495,492
497,494,489,495,491
497,493,488,495,490
497,493,487,495,490
497,494,486,496,490
497,493,485,495,491
497,493,485,495,491
497,492,485,494,491
497,492,486,495,492
497,493,487,495,492
497,493,487,495,492
497,493,488,495,491
497,493,488,495,491
497,493,487,495,492
497,493,487,495,491
497,494,486,495,491
497,493,485,495,491
497,492,485,495,491
496,492,484,496,492
499,492,484,496,492
500,492,484,496,491
500,493,485,494,489
501,493,486,495,490
500,493,486,495,490
494,494,487,495,491
494,495,487,495,491
496,493,487,495,492
496,493,486,495,493
497,493,485,496,494
497,494,485,496,492
497,495,485,496,491
496,495,484,496,491
497,496,485,495,492
497,494,485,494,492
497,494,486,495,492
497,493,486,494,492
497,493,487,495,492
497,495,487,495,492
497,495,487,495,492
497,493,486,495,492
497,493,485,495,492
497,492,484,495,492
497,493,483,495,492
497,492,483,495,492
497,492,483,495,492
497,492,483,496,492
497,493,484,496,492
497,493,485,496,492
497,494,486,496,492
497,494,486,495,491
497,492,486,495,491
497,492,486,495,492
497,493,485,495,492
497,493,485,496,492
497,493,484,496,492
497,493,484,495,492
497,493,484,495,492
497,492,484,495,492
497,492,484,495,492
497,493,486,496,492
497,493,486,496,492
497,493,487,494,492
497,492,487,495,491
497,492,487,494,491
497,492,486,494,491
497,493,486,494,492
497,492,485,494,492
497,492,485,495,492
497,492,484,495,492
497,493,484,495,492
497,493,485,495,492
497,493,485,496,492
497,493,486,496,492
497,492,487,496,492
497,493,487,495,492
497,493,487,494,492
497,492,487,495,492
497,492,486,494,492
497,493,485,494,492
497,491,484,495,492
497,492,484,495,492
497,494,484,495,492
497,492,484,495,492
497,493,484,495,492
497,493,485,495,492
497,492,486,496,492
497,492,487,495,492
497,492,487,494,492
497,492,487,495,492
496,492,486,495,492
497,493,486,495,492
497,493,485,495,492
497,493,484,495,492
497,493,484,495,492
497,492,484,495,492
497,493,484,494,491
497,492,484,494,491
496,492,485,495,489
497,493,486,495,489
496,493,486,495,490
497,493,486,496,491
497,493,486,496,491
497,493,486,496,491
497,493,485,496,492
496,493,484,495,493
497,493,484,495,493
497,492,483,495,493
496,492,484,494,493
497,492,484,494,494
497,493,485,494,493
497,492,486,495,492
497,491,486,495,492
497,492,486,495,493
497,493,486,495,492
497,492,486,495,492
497,493,486,495,492
497,492,485,495,492
497,492,484,495,492
497,492,484,495,492
497,492,484,495,492
497,493,484,495,492
497,493,485,496,493
497,493,486,496,493
497,493,487,496,492
497,492,487,495,492
497,492,487,494,492
497,493,487,494,492
497,493,486,494,492
497,493,486,495,492
497,492,485,495,492
497,493,484,495,493
497,493,484,495,492
497,493,484,495,492
497,493,484,495,492
497,492,485,495,492
497,493,486,495,492
497,493,487,495,492
497,493,487,495,493
497,493,487,495,493
497,492,487,495,492
497,491,486,495,493
497,493,486,495,493
497,493,485,495,492
497,493,484,495,492
497,493,484,495,492
497,492,484,495,492
497,492,485,496,492
497,493,486,495,493
497,492,486,495,492
497,492,487,495,493
497,492,487,495,492
497,493,487,496,493
497,494,488,496,493
497,493,487,495,492
497,493,486,494,492
497,494,486,494,493
497,494,486,495,492
496,493,486,495,492
497,493,486,495,492
497,494,487,495,493
497,492,488,495,493
497,491,488,495,493
497,492,489,496,492
497,492,489,495,493
497,492,489,496,493
497,492,488,496,493
497,492,487,495,493
497,493,487,495,492
497,492,486,493,492
496,492,485,494,493
496,492,486,495,493
497,492,486,495,493
496,492,487,495,493
497,492,488,495,493
497,493,488,494,492
496,493,489,495,492
497,493,489,495,492
497,492,488,495,493
497,493,488,495,493
497,495,488,495,493
497,494,487,495,493
497,494,486,495,493
497,493,486,495,493
497,493,487,496,493
497,492,487,495,493
497,492,488,495,493
497,492,488,495,493
497,492,489,494,493
497,493,489,494,493
497,492,488,495,493
497,492,488,494,493
497,492,487,494,493
497,493,486,495,493
497,493,486,494,493
497,493,486,495,493
497,493,486,495,493
497,493,486,495,493
497,492,487,495,493
497,492,488,495,493
497,492,488,495,493
497,492,489,495,493
497,492,488,495,493
497,493,488,495,493
497,493,488,494,493
497,493,487,495,493
497,492,486,495,493
496,490,485,495,493
497,493,486,495,493
497,493,486,495,493
497,493,487,495,493
497,493,487,495,493
497,492,488,495,493
497,492,489,495,493
497,492,489,495,493
497,493,488,495,493
497,492,488,495,493
496,493,487,495,493
496,493,486,494,493
497,493,485,495,493
497,492,485,495,493
497,492,485,495,493
497,494,486,496,493
497,494,487,496,493
497,494,488,496,493
497,494,489,496,493
497,493,489,495,493
497,492,489,494,493
496,492,488,494,493
497,492,488,494,493
496,491,487,495,493
496,491,486,494,493
496,493,486,494,493
496,494,486,495,493
497,496,488,495,493
497,497,489,495,493
497,496,490,496,493
497,497,491,495,493
497,495,491,495,493
497,492,490,494,493
497,490,490,494,493
497,492,489,495,493
497,493,489,495,493
497,492,488,495,493
496,492,487,495,493
496,492,487,494,493
496,494,487,495,493
497,492,487,494,493
497,491,488,495,493
496,491,488,495,493
496,489,488,494,493
497,491,488,494,493
496,492,488,494,493
497,491,488,495,493
497,491,487,494,493
497,491,487,494,493
497,492,487,494,493
497,493,486,494,493
497,492,486,495,493
497,492,486,495,493
496,491,487,495,494
496,491,487,495,494
497,492,488,494,493
497,492,489,495,493
497,491,489,495,493
496,490,488,495,494
497,493,488,494,493
496,492,487,495,494
497,493,487,495,493
496,493,486,494,493
496,493,486,494,493
497,492,486,494,493
497,493,486,495,494
497,492,487,495,494
497,492,487,495,494
497,491,488,495,493
497,492,488,494,493
497,492,489,494,493
497,493,488,494,493
497,493,488,494,493
497,493,487,494,493
497,492,486,494,493
497,492,486,495,493
497,493,486,495,493
496,493,486,495,493
496,492,486,495,493
497,492,487,495,493
497,492,488,495,493
497,493,488,494,494
497,492,488,494,494
497,492,488,494,494
497,493,488,494,494
497,492,487,494,493
497,493,487,494,493
497,493,486,494,494
497,492,486,494,493
496,493,486,495,494
496,493,486,495,494
497,492,486,495,493
496,492,487,495,494
497,492,488,495,493
497,492,488,495,494
497,492,488,495,494
497,492,488,495,494
497,493,487,494,494
497,493,487,494,494
497,492,486,495,494
497,493,485,494,494
497,492,485,494,493
496,493,485,494,493
497,492,486,495,493
497,493,487,494,493
497,495,488,494,494
496,492,488,495,494
496,492,489,495,494
497,491,488,494,494
496,490,488,495,494
497,493,488,495,494
497,493,487,494,494
497,492,487,494,494
497,493,486,495,494
497,492,486,496,494
497,492,486,496,494
497,491,487,495,494
497,494,488,495,494
497,492,488,494,494
496,492,489,494,493
496,491,489,494,494
496,492,489,494,493
496,492,489,494,494
497,492,488,494,494
497,492,487,494,494
496,492,487,494,493
497,493,486,494,493
496,493,486,494,494
496,493,487,494,494
497,493,488,494,494
496,492,488,495,494
497,491,489,495,494
497,492,489,495,494
497,493,489,494,494
497,493,489,494,494
496,492,488,494,494
497,492,487,494,493
496,491,487,495,493
497,492,486,495,493
497,492,486,494,493
497,492,486,495,493
497,492,487,494,494
497,492,487,494,495
497,493,488,494,495
497,493,489,494,495
496,493,489,494,494
497,493,489,494,494
496,493,489,495,495
497,493,488,494,495
497,493,487,495,494
497,492,487,495,494
497,493,486,494,494
497,494,487,494,494
496,492,486,494,494
496,492,487,494,494
497,493,488,494,494
497,492,488,495,494
497,492,489,494,494
497,492,489,494,494
497,492,488,494,494
497,493,488,494,494
497,492,487,495,494
497,492,486,495,494
497,493,486,495,494
497,493,486,495,494
497,493,486,494,494
497,493,486,494,494
497,493,487,494,494
497,493,488,494,494
497,493,489,494,494
497,494,489,494,494
497,494,489,495,494
496,493,488,495,494
497,492,488,495,494
496,492,487,494,494
497,493,486,494,494
497,491,485,494,494
496,489,485,495,494
497,492,486,494,494
497,493,486,494,494
497,493,487,494,494
497,492,488,494,494
497,493,488,495,494
497,492,488,495,494
497,492,488,495,494
497,492,488,495,494
497,492,487,494,494
496,492,486,494,494
497,492,486,494,494
497,492,485,494,494
497,493,486,495,494
496,493,486,494,494
496,494,487,495,494
496,493,488,495,494
496,493,489,495,494
496,493,489,495,494
497,492,488,496,494
497,491,488,495,494
497,492,487,494,494
497,492,487,494,494
497,492,486,494,494
497,493,486,495,494
496,494,486,495,494
496,492,486,495,494
497,491,486,495,494
496,492,487,494,494
497,493,488,493,494
496,492,488,494,494
497,492,488,495,494
496,492,488,495,493
496,493,488,495,494
497,494,488,495,494
497,495,487,495,494
497,495,487,495,494
497,493,486,494,494
497,491,486,495,494
497,491,486,494,494
497,492,487,494,494
497,493,488,494,494
497,493,489,494,494
497,494,489,494,494
496,494,489,494,494
497,493,489,494,494
497,493,488,494,494
497,493,488,493,494
497,492,487,495,494
496,493,486,495,494
497,492,486,496,494
496,492,486,495,494
496,492,486,495,494
496,492,487,494,494
496,493,488,494,494
496,492,488,495,494
496,490,488,495,493
497,494,489,495,493
497,491,488,495,493
497,492,487,495,493
496,492,487,495,494
497,492,486,495,494
497,493,486,495,495
496,493,486,494,495
496,493,486,494,495
496,493,487,494,495
497,494,489,494,495
497,494,489,494,495
497,496,491,495,495
497,496,491,494,495
497,495,491,494,494
497,492,489,494,494
497,490,488,495,494
496,491,487,495,495
497,491,487,495,494
496,490,486,494,494
497,491,486,494,494
497,492,487,494,494
497,492,487,494,494
497,491,488,494,493
497,492,489,494,493
497,493,489,495,493
497,492,489,495,493
496,492,489,495,495
496,492,488,494,495
497,492,487,494,495
497,492,486,494,495
497,492,486,495,495
497,492,486,494,494
496,492,486,495,494
496,492,487,495,494
496,492,488,494,495
497,493,489,494,494
497,494,489,494,494
497,495,490,494,494
496,494,489,494,494
496,493,489,494,494
496,492,488,494,494
497,491,487,495,495
497,492,486,494,494
497,493,486,494,493
496,492,486,495,493
496,492,486,495,494
497,493,487,495,494
497,493,488,494,494
496,493,489,494,495
497,492,489,495,495
496,491,488,495,495
497,491,488,494,495
497,494,488,494,495
497,493,487,494,493
497,493,486,494,493
497,493,486,494,493
496,492,486,494,494
497,493,486,494,494
496,493,487,495,495
496,492,488,495,495
496,492,488,495,496
497,492,489,494,495
496,493,489,495,495
497,493,489,495,494
496,492,488,495,494
496,492,487,495,494
496,492,487,494,494
496,492,486,494,494
496,493,486,494,494
497,492,486,494,494
497,492,486,494,494
497,492,487,495,494
497,493,488,494,494
496,492,489,494,494
497,493,489,494,494
497,492,489,495,494
497,492,489,494,494
496,492,488,494,494
496,492,487,494,494
497,492,486,494,494
496,492,486,494,494
497,493,486,494,494
496,493,486,494,495
496,492,487,494,496
497,493,488,494,495
497,493,488,494,494
496,493,489,495,493
497,494,489,495,492
496,493,489,496,492
497,494,489,496,492
496,493,488,495,492
496,492,487,493,494
497,492,486,493,495
496,492,486,494,496
497,492,486,494,497
497,491,486,494,497
497,492,487,494,496
497,493,488,494,496
496,494,489,494,495
496,493,489,494,494
497,493,489,494,494
496,493,489,494,495
496,493,488,494,495
497,493,487,494,495
497,493,487,495,495
497,493,486,494,494
496,492,486,494,494
498,493,486,495,495
500,493,487,496,495
500,493,488,496,495
500,493,488,496,494
499,492,488,494,494
496,489,488,494,494
493,492,488,494,495
495,494,488,493,495
496,492,487,494,495
497,493,487,494,495
496,493,486,494,495
497,492,486,494,494
497,492,486,494,494
497,492,486,495,494
497,493,487,494,494
496,493,488,494,495
497,492,488,495,495
496,492,489,494,494
497,493,489,495,495
497,493,489,494,495
496,493,488,495,495
496,493,487,494,494
496,493,487,495,494
497,493,486,494,494
496,493,486,494,493
496,493,486,494,494
496,493,486,494,494
496,493,487,494,494
496,492,488,495,495
497,492,488,495,493
496,492,489,495,493
497,493,489,495,493
496,494,489,494,493
496,492,487,494,494
496,493,487,495,493
497,493,486,494,494
497,493,486,494,495
496,492,486,494,495
496,492,486,494,496
497,492,487,494,496
497,491,487,494,496
497,490,488,494,495
497,493,488,494,493
497,493,489,494,493
496,493,488,494,494
496,493,488,494,497
496,492,487,494,497
497,493,487,494,496
497,492,486,494,496
496,492,486,494,495
497,493,486,494,495
497,493,487,494,495
497,493,487,494,495
496,493,488,494,495
496,493,489,494,495
496,493,489,494,495
496,492,489,494,495
496,492,489,494,495
498,492,488,494,494
499,493,487,494,494
499,494,487,495,494
499,493,486,495,495
498,491,486,494,494
494,492,486,495,495
494,493,487,494,495
495,493,488,494,495
496,493,489,494,495
496,493,489,494,495
497,492,489,494,494
497,492,489,494,494
497,493,488,494,495
497,493,488,495,495
497,493,487,494,495
497,493,487,495,495
497,493,486,494,495
496,493,486,494,494
496,493,487,494,495
496,493,487,494,495
496,493,488,494,494
496,492,489,494,494
496,491,488,494,494
496,494,489,494,495
497,494,489,494,494
497,492,488,495,494
496,492,487,494,494
496,493,487,494,495
496,493,486,494,495
496,493,486,494,495
496,493,486,494,495
496,493,487,494,495
496,493,488,494,495
496,493,488,494,494
496,493,489,494,494
496,493,489,494,495
496,493,489,494,494
496,493,489,494,495
496,493,488,495,495
497,494,488,495,495
497,495,488,496,495
497,495,488,496,495
497,495,488,496,495
497,494,488,495,495
496,492,488,494,495
496,492,488,493,495
497,491,489,493,494
497,492,489,494,494
497,492,489,493,494
497,492,489,494,494
496,492,488,495,494
497,493,488,494,495
496,493,487,494,496
496,493,486,494,496
496,493,486,494,495
496,492,486,494,495
497,493,487,494,495
496,493,488,495,494
496,493,488,494,493
496,493,489,494,494
496,492,489,494,494
497,492,489,494,494
496,492,488,494,494
497,493,488,494,495
496,493,487,494,495
497,494,487,494,495
496,494,487,494,495
496,494,486,494,495
496,494,487,494,495
496,494,488,494,495
496,493,488,494,495
497,492,489,494,495
497,492,489,494,495
497,495,490,494,495
497,494,489,494,495
496,492,488,495,495
496,491,488,495,495
497,491,487,494,495
497,492,486,493,494
496,494,486,493,495
496,493,486,494,495
496,492,487,494,495
496,492,487,494,495
496,492,488,494,494
496,493,489,494,495
496,494,489,494,495
496,494,489,494,494
496,493,489,494,495
496,492,488,494,495
496,493,488,495,494
496,492,487,495,494
496,493,487,496,495
497,492,486,494,495
497,493,487,494,495
496,494,487,494,495
496,493,488,494,495
496,493,489,494,495
496,493,489,495,495
496,492,489,494,494
497,491,489,493,494
496,494,488,493,493
496,493,487,494,493
497,492,487,494,493
496,494,487,494,493
496,494,486,494,494
496,493,486,494,494
496,493,487,494,496
496,493,488,494,498
497,493,489,494,496
496,493,489,494,495
497,493,489,494,496
496,493,489,494,496
497,493,489,494,495
497,493,488,494,495
497,493,488,494,495
497,493,487,494,495
497,493,486,494,495
497,493,486,494,494
496,493,487,494,494
496,492,487,494,493
496,492,488,495,494
496,493,488,494,495
497,493,489,494,495
497,494,490,494,495
497,493,489,494,495
496,493,489,494,495
496,493,488,494,495
496,493,487,493,494
497,493,487,494,495
497,493,486,494,495
496,494,487,494,495
496,493,487,494,495
496,493,487,494,495
496,493,488,494,495
497,492,489,494,495
496,492,489,494,495
496,493,489,494,494
496,495,489,494,495
496,492,488,494,495
496,493,488,494,495
496,493,487,494,495
497,493,487,494,495
496,493,486,494,495
497,494,487,494,494
496,494,487,494,494
497,494,488,494,494
496,492,489,494,494
497,492,489,495,494
496,494,490,494,495
496,493,489,495,495
496,493,489,495,495
496,494,488,495,495
496,493,488,494,495
497,492,486,493,494
497,492,486,494,494
496,493,486,494,495
497,493,486,494,494
496,493,487,494,495
496,493,488,494,495
496,492,488,494,494
496,493,489,494,495
496,493,489,494,494
496,493,489,494,494
496,493,488,494,494
496,492,488,494,494
497,493,487,494,495
496,493,487,494,495
496,492,486,494,494
496,492,486,494,493
496,492,486,494,492
497,491,487,495,493
497,494,488,494,494
496,494,489,494,494
496,493,489,495,495
496,493,489,495,498
497,493,489,495,497
497,492,488,494,495
497,492,487,494,495
497,494,487,494,495
496,493,486,494,495
496,493,486,494,496
497,494,487,494,495
497,493,487,494,494
496,493,488,493,494
496,494,489,494,494
496,493,489,494,495
497,491,489,494,495
497,493,489,494,495
496,493,489,494,495
496,493,488,494,495
497,493,487,494,495
496,493,487,494,494
496,493,486,494,494
496,493,486,495,494
496,493,487,494,494
496,493,487,494,495
496,493,488,494,495
496,493,489,494,495
496,494,489,494,495
496,494,489,494,495
496,495,490,494,495
497,494,489,494,494
496,493,488,494,495
496,493,487,494,494
497,492,487,494,495
497,493,486,494,495
496,492,486,494,495
496,493,487,494,494
496,493,488,494,494
497,492,489,494,494
497,493,489,494,494
496,493,489,494,495
497,493,489,494,495
497,493,489,494,495
497,491,488,494,495
496,493,487,494,495
496,493,487,494,495
497,493,486,494,495
496,493,486,494,495
497,493,487,494,495
497,493,487,494,495
497,493,488,495,495
497,493,489,494,494
497,493,489,494,495
497,493,489,494,495
496,493,489,494,495
497,493,488,494,495
496,493,488,494,495
496,493,487,494,495
496,493,486,494,495
496,493,486,494,494
496,493,487,494,494
497,493,487,494,494
496,492,488,494,493
497,491,488,494,493
496,493,489,494,492
497,493,489,495,493
496,494,489,494,494
497,493,489,494,494
496,492,488,494,493
496,492,487,494,494
496,492,487,494,495
497,493,486,494,495
496,494,486,494,495
496,493,487,494,495
496,494,488,494,496
496,493,489,494,496
496,493,489,494,495
496,493,489,494,495
496,493,489,493,494
497,493,489,494,494
496,493,489,494,494
496,493,488,494,494
496,492,487,494,495
497,493,487,494,495
496,493,486,494,494
496,493,487,494,495
496,492,487,494,495
496,492,488,494,494
496,493,489,494,494
496,494,489,494,494
496,493,490,494,494
496,493,489,494,494
496,493,489,494,494
496,493,488,495,495
496,492,487,494,494
496,493,487,494,494
496,493,486,494,494
496,494,486,493,494
496,493,487,494,494
497,491,487,494,494
496,493,488,494,495
496,493,489,494,495
496,493,489,494,494
496,493,489,495,494
496,493,489,494,494
496,493,488,494,494
496,493,488,494,494
497,493,487,494,494
496,493,487,494,494
497,493,486,494,494
496,493,486,494,494
496,493,487,494,495
496,493,488,494,495
496,494,489,494,495
496,493,489,494,494
496,493,489,494,494
496,493,489,494,494
496,493,489,494,494
496,493,488,494,494
496,493,488,494,494
496,493,487,494,494
496,493,487,494,495
496,493,486,494,494
497,493,487,494,492
496,493,487,494,493
496,493,488,494,493
496,493,489,494,494
496,493,489,494,494
497,493,489,494,495
496,493,489,494,496
496,494,489,494,495
496,494,488,494,494
496,493,487,494,494
496,493,487,494,494
496,493,487,494,493
496,493,487,494,493
496,490,486,495,493
497,492,487,494,494
496,493,488,494,495
496,493,489,494,496
496,493,489,494,496
496,493,489,494,495
496,492,489,494,495
497,493,488,494,495
497,494,488,494,494
496,492,487,494,494
496,493,486,494,494
496,494,486,494,494
496,493,487,494,494
497,493,487,494,494
496,493,488,494,494
496,493,489,494,494
496,493,489,494,494
496,493,490,494,495
496,493,489,494,494
496,493,489,494,494
497,493,488,495,494
496,493,488,495,494
496,494,487,494,494
496,495,487,494,494
496,493,487,494,494
496,491,487,495,494
497,493,488,494,494
496,493,488,494,494
496,493,489,494,494
496,493,489,494,494
496,492,489,494,495
496,492,489,494,494
496,492,489,494,493
496,494,488,494,494
496,493,487,494,494
496,493,487,494,494
497,493,487,494,494
496,493,487,494,493
497,493,487,494,494
496,493,488,494,494
496,493,489,494,495
497,493,489,494,494
497,493,490,494,494
497,493,489,494,495
496,493,489,494,494
496,493,488,494,494
496,493,488,495,494
496,494,487,494,494
496,493,487,494,494
496,493,486,494,494
496,493,487,494,494
496,493,487,494,494
496,493,488,495,494
496,493,489,494,494
496,493,490,494,494
496,494,490,494,494
496,493,489,494,494
496,492,489,495,494
496,493,488,494,494
496,493,488,495,494
496,493,487,494,494
496,493,486,493,494
496,492,486,493,494
496,494,487,494,493
497,493,488,494,492
497,493,489,494,493
497,492,489,494,493
496,493,489,494,494
496,493,489,494,494
496,493,489,494,495
496,493,489,494,496
496,493,488,494,495
496,493,487,494,494
496,493,487,494,494
497,494,487,494,494
496,493,487,494,494
496,493,488,494,494
496,493,488,494,494
496,492,489,494,494
496,493,489,494,494
497,494,490,494,494
496,493,489,494,493
497,493,489,495,494
497,493,488,494,493
496,493,487,494,494
497,493,487,494,493
497,493,486,494,494
496,493,486,494,495
496,493,487,494,495
497,494,488,494,495
496,493,489,494,494
496,493,489,495,495
497,493,489,495,494
497,492,489,494,494
497,492,489,495,493
497,495,489,494,493
496,493,488,494,493
496,493,487,494,494
496,493,486,494,494
496,493,486,494,495
497,492,487,494,495
497,492,487,494,495
496,493,488,494,494
496,493,489,494,494
496,493,489,494,494
496,493,489,494,495
497,493,489,495,495
496,493,489,494,494
496,493,488,494,494
496,493,488,494,493
496,493,487,494,493
496,493,486,494,493
496,493,487,494,494
496,493,487,494,493
496,493,488,494,493
496,492,488,494,494
497,493,489,494,494
496,493,489,493,493
496,493,489,494,493
496,493,489,494,494
496,493,489,494,494
496,493,488,494,494
496,493,487,494,495
497,493,487,494,495
496,493,486,494,495
497,493,487,494,494
496,493,487,494,494
496,493,488,494,494
496,494,489,494,494
496,494,489,494,494
496,493,490,494,494
496,492,489,494,494
497,492,489,494,494
496,493,488,495,494
497,494,488,494,494
496,492,487,493,494
497,491,486,493,494
496,491,486,493,495
496,493,487,494,495
496,493,487,493,493
497,493,488,494,493
496,493,489,494,493
496,493,489,494,494
496,493,489,494,495
496,493,489,494,495
497,492,488,494,495
497,493,488,494,494
496,493,487,494,493
496,493,487,494,493
497,493,486,494,493
496,493,487,494,494
497,492,487,494,495
497,493,488,494,495
496,493,488,494,495
496,492,489,494,495
496,493,489,494,495
497,493,489,494,494
496,493,489,494,494
496,492,488,494,494
496,493,487,494,494
496,493,487,494,494
496,493,487,494,494
496,493,486,494,494
496,493,486,494,494
496,493,487,495,493
496,493,488,495,493
496,493,489,495,493
497,493,489,494,494
497,493,489,494,494
496,493,489,494,495
496,493,489,494,496
496,493,488,494,495
496,493,487,494,494
496,493,487,494,494
496,493,486,494,494
496,492,486,494,494
496,494,487,494,494
496,493,488,494,494
496,493,488,494,494
496,493,489,494,494
496,493,489,494,494
496,493,489,494,494
496,493,489,494,494
496,493,488,494,494
496,493,488,494,494
496,493,487,494,494
496,493,486,494,494
496,493,486,494,494
496,493,487,494,494
497,493,487,494,494
496,493,488,494,494
496,493,489,494,494
496,493,489,494,494
496,493,489,494,494
496,493,489,494,493
496,493,489,494,493
497,493,488,494,493
496,494,488,494,493
496,493,487,494,494
496,493,487,494,493
497,494,487,494,494
496,493,487,494,495
497,492,488,494,494
496,492,488,494,494
497,493,489,494,495
497,492,489,493,495
496,491,489,494,495
496,493,489,494,494
496,494,488,494,494
496,493,488,494,494
497,493,487,494,494
496,493,486,494,494
496,492,486,493,494
496,492,486,494,494
496,493,487,493,494
496,493,488,494,494
497,493,489,494,494
496,493,489,494,494
496,493,490,494,494
496,493,489,494,494
496,493,489,494,494
496,493,488,494,495
497,492,487,494,494
496,494,487,494,493
496,493,486,494,494
496,491,486,494,495
497,493,487,494,494
496,493,487,494,494
496,493,488,494,493
496,493,489,494,493
496,494,490,494,493
496,495,490,494,493
496,493,489,494,493
496,493,489,495,494
496,493,488,494,495
497,492,487,493,495
496,493,487,493,495
496,493,486,494,495
496,493,487,494,494
496,493,487,494,494
496,493,488,494,494
496,493,489,494,494
496,493,489,494,494
496,493,489,494,495
496,493,489,494,494
496,493,489,494,494
496,493,488,494,494
497,493,488,494,494
496,493,487,494,494
496,493,487,494,494
496,493,486,494,494
496,493,487,494,494
496,495,488,494,493
497,493,488,494,494
497,492,489,494,494
496,493,489,494,494
496,493,490,494,494
497,493,489,494,494
497,493,489,494,494
496,493,488,494,493
496,493,488,494,494
497,494,487,494,494
497,494,487,494,494
496,492,487,494,494
497,492,487,494,495
497,493,488,494,494
496,493,488,493,494
497,492,489,492,494
496,493,490,494,494
496,493,489,495,495
496,491,489,495,494
496,494,488,494,493
496,493,488,494,493
496,493,487,494,494
496,493,486,494,494
496,493,486,494,494
496,493,487,494,494
496,493,487,494,495
496,493,488,494,494
496,493,489,494,494
496,493,489,494,494
497,493,489,494,493
497,493,489,494,493
496,493,489,494,493
497,492,488,494,493
497,493,488,494,494
497,494,487,493,494
497,493,486,494,495
497,494,487,494,495
496,494,487,493,494
496,493,488,495,494
496,493,489,494,494
497,493,489,494,494
496,493,489,495,494
497,493,490,494,494
497,493,489,494,494
496,493,489,494,495
496,493,488,494,495
497,492,487,494,495
496,493,487,494,494
497,493,486,494,494
496,493,487,494,493
497,493,487,494,494
496,493,488,494,494
496,493,489,494,494
496,494,489,494,494
497,494,490,494,494
496,493,489,494,494
496,493,489,494,494
496,493,488,494,494
496,493,487,494,494
496,493,487,494,493
496,492,486,494,493
496,493,486,494,493
496,493,487,494,494
496,493,487,494,494
496,493,488,494,494
496,493,489,494,495
497,493,489,494,494
496,493,490,494,494
496,493,489,494,494
496,493,489,494,494
496,493,488,493,494
496,493,487,493,494
497,494,487,494,494
497,492,486,494,494
496,493,487,493,494
496,493,487,494,494
496,493,488,494,494
497,493,488,494,494
497,492,489,494,494
496,492,489,494,493
496,494,489,494,494
496,493,489,494,494
496,493,488,494,493
496,494,488,495,492
496,493,487,495,493
497,493,486,494,493
496,493,486,494,494
497,492,486,494,495
496,492,487,494,496
496,493,488,494,496
497,494,489,494,495
497,494,490,494,494
496,493,490,494,494
496,493,489,494,494
496,492,489,494,494
496,493,488,494,494
496,493,487,494,494
496,494,487,493,494
496,494,487,494,494
496,492,486,495,495
497,493,487,494,494
496,492,488,494,493
496,493,489,494,494
496,494,489,494,494
496,492,489,493,494
496,492,489,494,494
497,492,489,494,494
496,493,488,494,494
496,493,488,494,494
496,493,487,494,493
496,494,487,494,494
496,494,487,494,494
496,493,487,494,494
496,493,487,494,493
496,493,488,494,494
496,494,489,494,494
496,493,489,494,494
496,493,489,494,494
496,492,489,494,494
496,493,489,494,494
496,492,488,494,494
496,493,487,494,494
497,493,487,494,494
497,493,486,494,494
496,493,486,494,493
496,493,487,494,494
496,493,488,494,494
496,493,489,494,494
496,492,489,494,494
496,493,489,494,494
496,493,489,494,493
497,493,489,494,493
497,493,488,494,493
497,493,488,494,493
496,493,487,494,493
496,493,487,494,494
496,493,486,494,495
496,493,487,494,494
497,493,487,493,493
496,493,488,495,494
497,493,489,494,493
497,491,489,495,494
496,494,490,494,494
496,494,489,494,493
496,493,489,494,494
496,493,488,494,495
497,493,487,494,495
497,493,487,494,495
497,492,486,494,494
496,493,486,494,494
496,493,487,494,494
496,493,487,494,494
496,493,488,494,493
496,494,489,494,493
496,493,489,494,492
496,492,489,494,493
497,493,489,494,493
496,493,489,494,495
497,493,488,494,495
497,493,487,494,495
496,493,487,494,494
496,492,486,494,494
496,493,486,494,494
497,494,487,494,494
496,495,488,494,493
496,494,489,494,493
496,493,489,494,494
496,493,490,494,494
496,492,489,494,494
497,492,489,494,494
496,493,488,494,494
496,493,487,494,493
496,493,487,494,494
496,493,486,494,493
496,493,486,494,493
496,493,487,495,493
496,493,487,495,494
496,492,488,495,494
497,493,489,494,494
496,493,489,493,495
497,494,490,494,494
496,493,489,494,494
496,492,489,494,494
496,493,488,494,494
497,493,487,494,494
496,492,486,494,493
496,493,486,494,494
496,492,486,494,493
496,493,487,494,494
496,493,488,494,494
496,493,488,493,494
496,492,489,494,494
496,493,489,494,494
497,493,489,494,494
496,493,489,494,494
496,493,488,495,494
497,493,488,495,494
496,493,487,495,493
496,493,487,494,494
497,493,486,494,494
497,494,487,494,493
497,493,487,494,494
497,492,488,494,494
497,492,489,494,494
496,494,489,493,494
497,494,490,494,493
496,494,489,494,493
496,494,489,494,493
496,493,488,494,494
497,492,487,494,494
496,492,487,494,494
497,492,486,494,494
496,494,487,494,493
496,493,487,494,494
496,493,488,494,494
496,493,488,494,493
496,493,489,494,494
497,493,490,494,494
496,493,490,494,494
496,493,489,494,493
497,493,489,494,491
497,493,488,494,492
497,493,487,494,493
497,493,487,494,494
497,493,486,494,495
497,493,487,494,496
496,493,487,494,496
497,494,488,494,495
496,494,489,494,494
496,493,489,494,493
496,493,490,494,493
496,493,489,494,494
496,493,489,494,493
496,494,489,494,494
496,493,488,494,493
496,492,487,494,494
496,493,487,494,494
496,493,487,494,493
497,494,487,494,494
496,492,488,495,494
497,492,488,494,494
496,493,489,494,494
497,493,490,494,494
496,493,490,494,494
496,493,489,494,494
496,493,489,494,494
497,494,488,494,493
496,493,487,494,494
496,493,486,495,494
496,492,486,494,494
496,493,487,494,493
496,493,487,494,494
497,493,488,494,493
496,493,489,494,494
497,493,489,494,494
496,493,489,494,494
496,493,489,494,493
496,493,489,494,494
496,492,488,494,494
496,493,488,494,494
496,493,487,494,494
497,493,486,494,494
497,493,486,494,493
496,493,486,494,494
496,493,487,494,493
496,493,488,494,494
496,491,488,495,494
496,493,489,494,494
496,494,489,494,494
496,493,489,494,494
496,493,489,494,494
496,493,488,494,493
496,493,487,494,493
496,493,487,494,493
497,493,486,494,493
497,493,487,494,493
497,494,487,494,493
497,493,488,494,493
496,493,489,494,494
496,493,489,494,494
496,493,489,493,495
496,493,489,494,495
497,493,489,494,494
496,493,489,494,494
496,493,488,494,494
496,493,487,494,494
497,492,486,494,494
496,494,486,494,493
497,494,487,493,494
497,494,488,494,494
497,494,489,494,494
497,493,489,494,494
496,492,489,494,494
496,493,489,494,493
496,493,489,494,494
496,493,489,494,493
497,492,488,493,494
496,494,488,494,494
497,493,487,494,494
497,492,486,494,493
496,493,487,494,493
496,493,487,495,493
496,493,488,495,494
496,493,488,494,495
497,493,489,493,494
496,492,489,494,494
497,493,489,494,492
497,494,489,494,492
497,493,488,494,493
496,493,488,494,493
496,493,487,494,494
497,493,487,495,496
497,493,486,495,496
496,493,487,494,495
496,493,487,494,494
496,493,488,494,494
496,493,489,494,493
496,493,489,494,493
496,493,489,494,493
496,493,489,494,493
497,493,489,494,493
497,493,488,494,494
496,493,487,494,494
497,493,487,494,494
497,493,486,494,493
497,493,486,494,493
496,493,487,494,493
496,493,487,494,494
496,493,488,494,494
496,493,489,494,493
496,494,490,494,494
496,493,489,494,493
497,493,489,494,494
496,493,489,494,493
496,493,488,494,494
496,493,487,494,494
496,493,486,494,493
496,493,486,494,493
496,493,487,494,493
497,494,487,494,493
497,495,489,494,494
497,495,489,494,494
496,493,489,494,494
496,493,490,494,495
497,493,490,494,494
496,492,489,494,493
496,491,488,494,493
497,492,487,494,494
496,495,487,494,493
496,493,486,494,494
497,493,486,494,494
496,493,487,494,493
497,493,488,494,494
497,493,488,494,493
496,493,489,493,494
496,492,489,494,494
497,493,489,494,494
497,493,489,493,493
497,494,489,494,493
496,494,488,494,494
497,493,487,494,494
496,493,487,494,494
497,493,487,494,493
496,494,487,494,493
496,492,487,494,494
496,493,488,494,494
496,493,489,494,494
496,493,489,494,494
497,493,489,494,494
496,493,489,494,494
497,495,489,494,493
497,493,488,494,493
496,493,488,494,493
496,493,487,494,493
496,493,486,494,493
496,493,486,494,494
497,493,487,494,494
496,493,487,495,494
497,493,488,494,493
497,493,489,494,492
497,493,489,494,492
496,493,490,494,492
497,496,490,495,493
497,496,490,495,494
496,494,489,494,495
497,493,488,494,496
497,491,486,494,494
497,492,486,493,494
496,493,486,493,494
496,493,487,493,494
496,493,488,494,494
497,493,489,494,494
496,493,489,494,493
497,493,490,494,494
497,493,490,494,494
497,493,489,494,494
496,493,488,494,494
496,493,488,494,493
496,493,487,494,493
496,493,487,494,493
496,493,487,494,493
496,493,487,494,493
497,493,487,494,494
496,493,488,494,494
497,493,489,494,494
497,493,489,494,494
497,493,490,494,495
497,493,489,494,494
497,493,489,494,494
496,494,488,494,494
496,493,488,494,494
496,493,487,494,493
496,493,487,494,493
496,493,487,494,494
496,493,487,494,494
496,493,488,494,493
496,493,489,494,493
496,493,489,494,493
497,493,490,494,494
497,493,489,494,494
497,490,489,494,494
497,493,488,494,493
497,494,488,494,494
496,493,487,494,494
496,493,487,494,493
497,494,486,494,494
496,493,487,494,494
496,493,487,494,493
496,493,488,494,494
496,493,489,494,493
496,493,489,494,494
496,493,490,494,494
497,493,489,494,494
496,494,489,494,494
496,493,488,494,494
496,493,487,494,494
497,493,487,494,494
496,493,487,494,493
496,493,487,494,493
496,494,487,494,493
496,493,487,494,493
496,493,489,494,493
497,494,489,494,494
496,492,489,494,494
497,491,489,494,494
497,493,489,494,493
496,492,488,495,493
496,493,488,494,493
496,493,487,494,493
497,493,486,493,493
497,493,486,494,493
496,494,487,494,494
496,494,487,494,494
496,493,488,494,494
496,493,489,494,494
497,493,489,494,494
497,493,490,494,494
496,493,489,494,494
497,493,489,494,494
496,493,488,494,494
496,493,488,494,494
496,493,487,495,494
496,493,486,495,494
496,493,486,494,493
496,493,487,495,493
496,493,487,495,494
496,493,488,494,494
497,493,489,493,493
497,493,489,494,494
497,493,489,494,493
497,493,489,494,493
497,493,489,494,494
497,493,488,494,493
496,494,488,494,493
496,493,487,494,493
496,493,486,494,493
497,493,487,494,494
497,493,487,494,494
496,493,487,494,494
497,491,488,494,493
497,492,489,494,493
497,494,490,494,493
496,493,489,494,494
496,493,489,494,494
497,493,488,494,494
496,493,488,494,494
496,493,487,494,494
496,493,487,494,493
497,493,486,494,493
497,493,487,494,493
496,493,487,494,493
497,494,488,494,493
497,493,489,494,493
496,493,489,494,494
497,492,490,494,494
496,493,489,494,494
497,493,489,494,494
496,493,488,494,494
497,493,487,494,493
496,493,487,494,494
496,493,486,494,494
496,493,486,494,494
497,493,487,494,494
497,493,488,494,494
497,493,489,494,494
496,493,489,494,494
496,492,489,494,494
496,493,490,494,494
496,493,489,494,493
497,493,489,494,493
497,494,488,494,493
497,494,487,494,493
496,493,487,494,494
496,493,486,494,494
496,492,487,494,493
497,493,487,494,493
497,493,488,494,494
496,493,489,494,493
496,493,489,494,494
497,493,490,494,494
497,493,489,494,494
497,493,489,494,494
497,493,488,494,494
497,494,488,494,493
497,493,487,494,493
496,493,487,494,493
496,493,487,494,493
496,492,487,494,494
496,493,488,494,494
497,493,489,494,494
497,493,489,494,494
497,493,490,494,493
497,494,490,494,493
497,493,489,494,493
497,492,488,494,494
496,492,488,494,494
496,493,487,494,494
497,493,487,494,494
497,493,486,494,494
496,493,486,494,494
496,493,487,494,494
496,493,488,494,494
496,492,488,494,494
496,493,489,494,493
496,493,489,494,494
496,491,489,494,494
496,494,489,494,494
497,494,488,494,494
497,493,488,494,494
497,493,487,494,494
496,493,486,494,494
496,493,486,494,494
496,493,487,494,493
496,493,487,494,493
497,493,488,494,493
496,493,489,494,493
496,493,489,494,494
496,493,489,494,494
496,492,489,494,494
496,493,489,494,493
496,493,488,495,493
497,493,487,494,493
497,493,487,494,493
497,493,486,494,493
496,493,487,494,494
496,493,487,494,494
497,493,488,494,494
497,493,489,494,494
497,493,489,494,494
497,493,490,494,494
497,493,489,494,494
497,493,489,494,493
496,493,488,494,493
496,493,488,494,493
496,493,487,494,493
497,493,487,494,494
496,493,486,494,493
497,493,487,494,493
497,493,487,494,493
497,494,489,494,494
497,496,490,494,493
497,493,490,494,494
497,492,490,494,493
497,493,489,494,493
497,494,489,494,494
497,493,488,493,493
497,492,487,494,494
496,492,487,495,494
496,492,486,494,494
497,493,486,494,494
497,493,487,494,493
496,493,487,495,494
497,493,488,494,494
497,492,489,494,494
497,493,489,494,494
497,492,489,494,494
497,493,489,494,494
496,493,488,494,494
496,493,487,494,493
497,493,487,494,494
497,493,486,494,494
496,493,486,494,493
496,492,486,494,493
497,493,487,494,493
497,493,488,494,493
497,493,489,494,493
497,493,489,494,493
497,493,489,494,493
497,493,489,494,493
497,493,489,494,493
497,493,488,494,493
497,493,487,494,492
496,493,487,494,493
497,493,486,494,493
496,493,486,494,493
497,493,487,494,494
497,492,487,494,494
497,493,488,494,494
497,493,489,494,495
497,492,489,494,494
496,491,489,494,494
496,494,489,494,494
497,494,489,494,494
496,494,488,494,494
497,493,487,494,494
496,493,487,494,494
497,493,486,494,493
496,493,486,494,494
497,493,487,494,493
496,493,488,494,493
496,493,489,494,493
496,493,489,494,493
497,493,490,494,494
497,493,489,494,494
497,493,489,494,494
497,493,488,494,494
496,492,487,494,494
496,493,487,494,494
496,493,486,494,493
496,493,486,494,493
497,493,487,494,494
497,493,487,494,493
497,494,488,494,493
497,493,489,493,493
497,493,489,494,493
497,493,490,494,494
497,493,489,494,494
496,493,489,494,494
497,493,488,494,493
497,493,487,494,493
496,493,487,494,493
496,493,486,494,493
496,493,487,494,493
496,493,487,494,494
496,493,488,494,493
497,492,489,495,493
497,493,489,494,492
497,496,490,494,492
497,493,490,494,492
497,494,490,494,492
496,493,489,495,493
496,493,488,495,494
496,492,487,493,495
497,492,487,493,495
497,492,486,494,494
497,491,486,494,494
497,493,487,494,494
496,493,488,494,494
497,493,489,494,494
497,493,490,494,493
497,493,489,494,493
497,493,489,494,493
496,493,489,494,493
496,493,488,494,494
497,493,487,494,494
497,492,486,494,494
496,492,486,494,493
497,493,486,494,494
496,494,487,494,494
496,494,488,494,493
497,493,489,494,493
497,493,489,494,493
496,493,490,494,492
496,494,490,494,492
496,493,489,494,493
497,493,489,494,493
497,493,488,494,494
497,493,487,494,494
496,492,486,494,495
496,493,486,494,494
497,493,487,494,494
497,493,487,494,493
497,493,488,494,493
497,490,488,495,493
496,494,489,494,493
497,494,489,494,493
496,493,489,494,493
496,493,489,494,493
496,493,488,494,494
496,493,487,494,493
496,493,487,494,493
496,493,486,494,493
497,493,487,494,493
496,493,487,494,493
496,493,488,494,494
497,493,489,494,493
497,493,489,494,493
497,493,490,494,493
497,493,490,494,493
497,493,489,493,493
497,493,489,494,493
496,493,488,494,493
496,494,487,494,493
496,493,487,494,493
496,493,486,494,493
496,493,487,494,493
496,493,487,494,493
496,493,488,494,493
496,493,489,494,493
496,493,489,495,493
496,493,490,494,493
496,493,489,494,493
496,494,489,494,493
496,493,488,493,494
497,493,488,494,493
497,494,487,494,493
496,493,487,494,493
496,493,487,494,493
496,493,487,494,493
496,493,488,494,493
496,493,489,493,493
496,493,489,493,494
497,492,489,493,494
496,494,490,494,494
496,492,489,494,493
496,494,489,494,494
497,494,488,494,494
496,494,488,494,493
497,493,487,494,494
497,493,486,494,493
496,493,487,494,494
496,493,487,494,493
496,493,488,494,493
496,493,489,494,494
496,493,489,494,493
496,493,490,494,493
497,494,490,494,493
496,493,489,495,493
496,493,488,494,494
497,493,488,494,494
496,493,487,494,494
496,493,486,494,494
496,492,486,494,494
496,492,486,494,493
497,493,487,494,493
496,494,488,494,493
496,493,489,494,493
496,493,489,494,493
497,493,490,494,493
496,493,489,494,493
496,494,489,494,493
496,494,488,494,493
496,494,488,494,493
496,493,487,494,494
497,493,486,494,493
497,493,487,494,494
496,493,487,494,493
496,493,488,494,493
496,493,489,494,493
496,493,489,494,493
496,493,490,494,493
496,493,489,494,494
496,493,489,494,493
496,493,488,494,493
496,493,488,494,493
497,493,487,494,493
497,493,487,494,493
496,493,486,494,493
497,493,487,494,493
496,491,487,495,493
497,496,489,494,494
497,496,490,494,493
497,495,490,494,493
497,493,490,494,493
497,493,490,494,493
497,493,489,494,492
496,492,488,494,493
497,493,488,494,493
496,493,487,495,493
496,493,487,495,494
497,493,487,495,494
496,493,487,495,494
496,494,488,494,494
496,492,489,494,494
496,493,489,494,494
496,493,489,494,494
496,493,489,494,494
496,493,489,494,494
496,493,488,494,493
496,493,488,494,493
496,493,487,494,494
497,493,487,494,494
496,493,486,494,493
497,493,487,494,493
497,492,487,494,493
496,494,488,494,493
496,494,489,494,492
497,494,490,494,492
496,493,490,495,493
496,493,489,495,493
497,493,489,494,493
497,493,488,495,493
497,493,488,494,493
496,493,487,494,493
496,493,487,494,494
496,493,487,494,494
496,493,487,494,495
496,493,488,494,495
497,494,489,494,494
497,493,489,494,493
497,493,490,494,493
497,493,489,494,493
497,493,489,494,493
496,493,489,494,493
496,493,488,494,493
496,493,488,494,494
496,494,487,494,494
496,493,487,494,494
496,493,487,494,493
497,493,487,494,493
497,493,488,494,493
496,493,489,494,494
497,493,489,494,494
497,493,490,494,493
497,494,490,494,493
496,493,489,494,493
496,493,488,495,493
496,493,488,494,493
496,494,487,494,493
496,493,487,494,493
496,493,487,494,493
497,493,487,494,493
496,493,488,494,493
496,493,489,494,493
496,494,489,494,493
496,493,490,494,493
496,493,490,494,493
497,494,490,494,493
496,492,489,495,494
497,492,488,494,494
496,493,488,494,493
497,494,487,494,493
496,493,486,494,494
496,492,486,494,494
496,489,486,495,493
496,495,488,494,494
497,494,489,494,493
496,493,489,494,494
496,492,489,494,493
496,493,489,494,493
496,493,489,494,493
496,493,488,494,493
496,493,488,494,493
496,493,487,494,493
496,493,487,494,494
496,493,487,494,493
496,493,487,494,493
496,494,488,494,493
497,494,489,495,493
496,492,489,494,493
497,493,490,494,493
497,493,490,494,494
497,493,489,494,493
496,492,489,494,494
497,492,488,494,492
497,494,488,494,492
497,494,487,494,493
497,493,486,495,492
496,493,487,495,493
496,493,487,494,493
496,493,488,494,494
497,493,488,494,494
497,493,489,494,494
497,493,490,494,495
497,493,489,494,495
497,493,489,494,494
497,493,489,494,494
497,493,488,494,493
496,493,487,494,494
497,493,487,494,494
497,493,486,494,493
497,494,487,494,494
497,494,488,494,493
497,493,488,494,494
497,493,489,494,493
497,494,490,494,493
497,493,490,494,494
497,493,489,494,494
497,493,489,494,494
497,493,488,494,494
497,493,488,494,493
497,494,487,494,494
497,493,487,494,493
496,493,487,494,494
497,494,487,494,494
497,493,488,494,493
497,492,488,493,493
496,492,489,494,493
496,493,490,494,493
496,493,490,495,494
496,493,489,494,493
496,493,489,494,493
496,492,488,494,494
496,493,487,494,494
496,493,486,494,494
497,493,486,494,494
497,493,487,494,494
496,493,487,494,493
497,493,488,494,493
496,493,488,494,494
497,493,489,494,493
497,494,489,494,493
497,493,489,495,493
496,492,489,494,493
497,493,488,494,493
497,494,488,494,493
497,493,487,494,494
496,493,487,494,494
497,493,486,494,494
497,492,486,494,494
497,491,487,495,493
496,495,489,494,494
497,494,489,493,493
497,493,489,494,493
496,493,489,494,494
497,493,489,494,493
497,493,489,494,494
497,493,488,495,493
497,493,488,494,492
497,494,487,494,491
497,494,487,495,491
496,492,487,494,492
497,493,487,494,493
497,493,488,494,494
496,493,489,494,495
496,493,490,494,495
497,493,490,494,495
497,492,489,494,494
496,494,489,494,494
497,493,488,494,494
497,493,488,494,494
497,493,487,494,494
497,493,487,494,494
497,495,487,494,493
496,493,487,493,494
496,492,487,494,494
497,493,488,494,494
497,493,489,494,493
497,494,490,494,493
497,493,490,494,493
497,493,489,494,493
497,493,489,494,493
497,493,488,494,494
497,493,488,494,493
496,493,487,494,494
497,494,487,494,494
497,494,487,494,494
497,492,487,494,493
497,494,488,494,494
497,493,489,494,494
496,492,489,494,494
497,493,489,494,494
497,492,489,494,494
496,493,489,494,494
496,493,489,494,493
497,493,488,494,493
497,493,487,494,494
496,493,486,494,493
497,494,486,494,493
496,493,487,494,493
497,493,487,494,493
496,493,488,495,493
497,492,489,494,493
497,494,489,494,494
496,493,489,494,493
497,493,489,494,494
497,493,489,494,493
497,493,488,494,493
496,493,488,494,493
496,493,487,494,493
496,493,486,494,491
497,493,487,494,491
497,493,487,494,491
497,493,488,494,492
497,493,489,494,493
496,493,489,494,495
497,493,490,494,496
497,494,490,494,495
497,493,489,494,494
497,493,489,494,494
496,493,488,494,493
497,493,487,494,493
496,493,487,494,493
496,493,486,494,493
497,493,487,494,494
497,493,487,494,493
496,493,488,494,493
497,494,489,494,494
496,493,489,494,493
497,492,489,495,493
497,492,489,495,493
496,494,489,494,493
497,494,489,494,493
497,494,488,494,494
496,493,487,494,494
497,491,486,494,494
497,495,487,494,494
497,494,487,494,494
496,493,488,494,493
497,493,489,494,493
497,493,489,494,494
497,493,490,494,494
496,493,490,494,493
497,493,489,494,494
496,493,489,494,494
497,493,488,494,493
496,493,487,494,493
496,493,487,494,493
496,493,487,494,493
496,493,487,494,493
496,493,487,494,493
497,493,488,494,493
497,493,489,494,493
497,493,489,494,493
497,493,490,494,493
497,493,490,494,493
497,494,489,494,493
497,494,489,494,493
497,494,488,494,493
496,494,487,494,494
496,493,487,494,494
496,492,486,494,493
497,493,487,494,493
497,494,487,494,493
496,493,488,494,494
497,493,489,494,493
496,494,490,494,493
497,493,490,494,494
497,493,489,494,493
496,494,489,495,493
496,493,488,494,493
496,493,487,494,494
497,493,487,494,493
497,494,487,494,493
497,493,487,494,494
496,492,487,494,494
497,493,488,494,493
496,493,489,494,494
496,493,489,494,493
497,494,490,494,493
497,493,490,495,493
497,493,489,494,493
497,493,489,494,493
497,493,488,494,493
497,493,487,494,493
496,493,487,494,493
497,493,487,495,493
497,493,487,494,493
496,492,487,494,493
497,493,488,494,493
496,493,489,494,494
496,493,489,494,493
496,493,490,494,493
496,493,489,494,493
497,493,489,494,494
497,493,488,494,494
497,493,487,494,493
496,493,487,494,494
497,493,486,494,493
496,493,486,494,493
496,493,487,494,493
496,493,488,494,493
496,493,489,494,493
496,493,489,494,493
497,494,490,494,493
497,494,490,494,493
497,493,490,494,493
496,492,489,494,494
496,492,488,494,494
496,494,487,494,494
497,492,487,494,494
497,493,486,494,493
497,493,487,494,493
497,494,488,494,493
497,494,489,494,493
496,493,489,494,493
496,493,489,494,493
496,493,490,494,493
497,493,490,494,493
497,493,489,494,493
496,493,488,494,492
496,493,488,494,492
496,493,487,494,492
496,493,487,494,493
496,493,487,494,494
496,493,487,494,493
496,493,488,494,494
496,493,488,494,494
496,493,489,494,493
496,493,490,494,493
496,493,490,494,494
497,493,489,494,494
496,493,489,494,493
497,493,488,494,493
497,494,487,494,493
497,491,486,495,493
496,494,487,494,493
497,494,487,494,494
497,494,487,494,494
496,493,488,494,494
496,493,489,494,493
496,493,489,494,493
496,493,490,494,493
496,493,490,495,493
496,493,489,494,494
496,493,488,494,493
497,493,488,494,493
496,493,487,494,493
496,493,486,494,493
497,493,486,494,493
497,493,487,494,493
497,493,487,494,493
496,493,488,494,493
496,493,489,494,494
496,493,489,494,494
497,493,489,494,494
497,493,489,494,493
496,493,489,494,493
496,493,488,494,493
497,493,487,494,493
496,493,487,494,493
496,493,486,494,493
497,494,487,494,493
496,493,487,494,493
496,493,488,494,493
496,493,489,494,493
496,493,489,494,494
496,493,489,494,493
497,492,489,494,493
497,493,489,494,493
497,493,489,494,493
497,493,488,494,493
496,493,487,494,494
497,493,487,494,493
497,493,486,494,493
497,493,487,494,493
497,493,488,494,493
497,493,488,494,493
497,494,489,494,494
497,493,490,494,494
497,492,490,494,494
497,492,489,494,494
496,494,489,494,493
496,493,488,494,494
497,493,488,494,493
497,494,487,494,493
496,493,487,494,494
496,493,487,494,493
497,493,487,494,493
497,493,488,495,494
496,493,489,494,493
497,493,489,494,493
497,494,490,494,493
497,494,490,494,494
497,494,489,494,494
496,492,489,494,494
497,493,488,494,493
496,493,487,494,493
497,493,487,494,493
496,493,486,494,494
496,493,487,494,494
497,491,487,495,494
496,494,488,494,494
496,494,489,494,493
496,493,489,494,493
496,493,490,494,493
496,493,489,495,493
496,493,489,495,493
496,492,488,495,493
497,493,488,494,493
497,493,487,494,493
497,493,487,494,493
496,493,486,495,494
497,493,487,494,493
497,493,488,494,493
496,493,489,494,491
497,493,489,494,491
497,493,490,494,492
497,494,490,494,492
497,493,489,494,493
496,493,489,494,494
497,493,488,494,496
496,493,488,495,495
497,493,487,494,494
496,493,487,494,493
496,494,487,494,493
497,494,488,494,493
496,493,488,494,493
496,493,489,494,493
496,493,490,494,493
496,493,490,494,493
496,493,489,494,493
496,494,489,495,494
496,493,488,494,494
496,493,488,494,493
496,493,487,494,494
496,493,486,494,493
497,493,487,495,493
497,493,487,494,493
497,493,488,495,493
496,493,489,494,493
496,493,489,494,493
496,493,490,494,493
496,493,490,494,493
496,493,489,494,494
496,494,489,494,493
496,493,488,494,493
497,493,488,494,493
497,493,487,494,492
497,493,487,494,492
496,493,487,494,493
497,493,487,494,493
497,494,488,494,493
496,493,489,494,494
496,493,489,494,495
496,492,489,494,494
497,491,489,495,494
496,494,489,494,493
497,493,488,494,493
497,493,487,493,494
497,493,487,494,494
496,493,487,494,493
497,494,487,494,493
496,493,487,494,493
497,494,488,494,493
497,494,489,494,493
496,491,489,494,493
496,493,489,494,493
496,493,490,494,493
496,493,489,494,493
497,494,489,494,493
496,494,488,494,493
496,493,488,494,493
497,493,487,494,493
496,493,486,494,493
497,492,487,494,493
496,493,487,494,493
496,493,488,494,493
496,493,489,494,493
496,493,489,495,493
496,493,489,494,493
496,493,489,494,493
496,493,489,494,493
497,494,489,494,493
496,492,488,494,493
497,491,487,495,493
496,495,487,494,493
497,494,486,494,493
496,493,487,494,493
496,493,487,494,493
497,493,488,494,494
496,493,489,494,493
496,493,489,494,493
496,493,490,494,493
496,494,490,494,493
497,494,489,494,493
496,493,488,494,494
497,493,488,494,494
497,493,487,494,494
497,493,487,494,494
496,493,487,494,493
496,493,487,494,493
496,493,488,494,493
496,493,488,494,493
496,493,489,494,493
496,493,490,494,493
496,493,490,494,493
496,493,489,494,493
497,493,489,494,494
496,493,488,494,493
497,493,487,494,494
496,493,487,494,494
496,493,486,494,493
496,493,487,494,494
497,493,487,494,494
496,493,488,494,493
497,493,489,494,493
496,493,489,494,493
496,493,490,494,492
497,493,489,494,492
496,493,489,494,492
497,493,488,494,493
497,493,488,494,493
496,493,487,494,494
496,494,487,494,495
496,494,487,494,494
496,494,487,494,494
496,493,488,494,494
496,493,488,494,494
496,493,489,494,493
496,493,489,494,493
497,492,489,494,493
497,493,489,494,494
497,493,489,494,493
496,493,488,494,493
496,493,487,495,494
497,493,487,494,494
496,493,486,494,494
496,493,487,495,494
496,493,487,494,493
497,493,488,494,493
497,493,489,494,493
497,493,489,494,493
497,493,490,495,493
496,493,490,495,493
496,494,489,495,494
496,492,488,494,494
496,493,488,494,494
497,492,487,494,494
496,492,486,495,493
497,493,486,495,492
496,493,487,494,492
497,493,487,494,493
497,493,488,494,493
496,493,489,494,494
496,493,489,494,494
496,493,489,494,494
496,493,489,494,494
497,493,489,494,494
496,493,488,494,493
496,493,487,494,494
497,493,487,494,493
497,493,486,494,494
497,493,486,494,493
497,493,487,494,493
497,493,488,494,493
497,493,488,495,494
497,492,489,494,494
496,494,490,494,493
496,493,490,494,493
496,493,489,494,493
496,494,489,494,493
497,494,488,494,494
496,493,487,494,493
497,493,487,494,493
496,493,487,494,493
496,493,487,494,493
496,493,487,494,493
496,493,488,494,493
496,493,489,494,493
496,493,489,494,493
496,493,490,494,493
496,493,489,494,493
496,493,489,494,493
497,493,488,494,493
496,493,488,494,494
496,493,487,494,493
496,493,487,494,493
497,493,487,494,494
496,493,487,494,493
496,493,488,494,493
497,493,489,494,493
497,493,489,494,493
497,493,490,494,493
496,493,490,494,493
497,494,489,494,493
497,493,489,494,493
496,493,488,494,493
497,492,487,494,494
497,493,487,494,493
496,493,487,494,493
496,493,487,494,493
496,493,487,494,493
496,493,488,494,493
496,493,489,494,493
497,493,490,495,493
497,494,490,494,492
496,493,490,494,493
496,493,489,494,493
496,493,489,494,493
496,493,488,494,494
496,493,487,494,494
496,493,487,494,494
496,493,487,494,493
497,493,487,494,493
497,493,488,493,493
496,493,488,494,493
496,493,489,494,493
496,493,489,494,493
496,493,489,494,493
497,493,489,494,493
496,493,489,494,493
496,493,488,494,494
497,493,487,494,493
497,493,487,494,493
497,493,487,494,493
497,493,487,494,493
496,493,487,494,493
497,493,488,494,493
497,493,489,494,493
497,492,489,494,493
496,494,490,494,493
496,493,489,494,493
497,493,489,494,493
496,493,489,494,493
496,493,488,494,493
496,493,487,494,493
496,493,487,494,493
497,493,486,494,493
496,495,487,494,493
496,492,487,494,493
497,493,489,494,493
496,493,489,494,493
496,494,490,494,493
497,493,489,494,493
496,492,489,494,493
496,493,489,494,494
497,493,488,494,493
496,493,487,494,493
497,493,487,494,493
497,493,486,494,493
496,492,486,494,493
496,493,487,494,493
496,493,488,494,493
497,493,489,494,493
496,493,489,494,493
497,493,489,494,493
496,493,489,494,493
496,493,489,494,493
497,494,489,494,494
497,492,488,495,493
497,492,487,494,493
496,493,486,494,493
496,493,486,494,493
496,493,487,495,494
496,493,487,494,493
496,493,488,494,493
497,493,489,494,493
496,493,489,494,493
497,493,489,494,493
497,493,489,494,493
497,493,489,494,493
496,493,488,494,493
496,493,487,494,493
497,493,487,494,493
496,493,487,494,493
496,493,487,494,493
496,493,487,494,493
497,493,488,494,493
497,493,489,494,492
497,492,489,494,493
496,493,490,494,493
497,493,489,494,493
496,493,489,494,493
496,493,489,494,493
496,493,488,493,493
496,493,487,494,493
496,493,487,494,493
497,493,486,494,493
496,493,486,494,493
497,491,487,494,493
497,494,488,494,493
497,493,489,494,493
496,493,489,494,493
496,493,489,494,493
496,493,489,494,493
496,493,489,494,493
496,493,488,494,493
496,493,487,494,492
497,493,487,494,492
497,493,486,494,492
496,493,486,494,492
497,492,487,494,492
497,494,488,494,492
496,493,489,494,493
497,492,489,494,494
496,493,489,494,494
497,493,489,494,493
497,493,489,494,494
497,493,488,494,494
496,493,488,494,494
496,493,487,494,493
496,493,487,494,493
496,493,486,494,493
496,493,487,494,493
497,493,487,494,493
496,493,488,494,493
496,493,489,494,493
496,493,490,494,493
496,495,490,494,493
496,493,490,494,493
496,493,489,495,493
496,493,488,494,493
497,493,488,494,493
496,493,487,494,494
497,493,487,494,493
497,493,486,494,493
497,493,487,494,493
497,493,488,494,493
496,493,488,494,493
496,493,489,494,493
497,493,490,494,493
497,493,490,494,493
496,493,489,494,493
497,493,489,494,493
497,493,488,494,493
496,493,487,494,493
497,494,487,494,493
497,493,487,494,493
496,493,487,494,493
496,493,487,494,493
496,493,488,494,493
496,493,489,494,493
496,493,489,494,493
496,492,489,494,493
496,493,490,494,493
496,493,489,494,493
497,493,488,494,492
497,493,488,494,492
496,494,487,494,492
496,493,487,494,492
497,493,487,495,493
497,493,487,494,493
496,493,487,494,493
497,493,488,495,494
497,493,489,494,493
497,493,489,494,494
496,493,490,494,493
497,493,489,494,493
496,494,489,494,493
496,493,488,494,493
496,493,488,494,493
496,493,487,494,493
497,493,487,494,493
496,493,487,494,493
496,493,487,494,493
496,493,488,494,492
497,493,489,494,492
497,493,489,494,492
496,494,490,494,493
496,493,490,494,493
496,493,489,494,493
496,492,489,494,494
496,493,488,494,493
496,493,487,494,493
496,493,487,494,493
497,493,487,494,493
496,493,487,494,493
497,492,487,494,493
497,494,489,494,493
497,493,489,494,493
497,493,490,494,493
497,493,490,494,493
496,492,489,494,493
497,494,489,494,493
497,494,489,494,493
497,493,488,494,493
496,492,487,495,493
497,490,486,495,493
496,494,487,494,493
497,494,487,494,493
497,495,488,494,493
497,493,489,494,492
496,493,489,494,492
497,493,490,494,493
497,493,490,495,493
497,493,489,494,493
496,493,489,494,493
496,493,488,494,494
496,493,487,494,494
496,493,487,494,493
497,493,486,494,493
496,493,487,494,493
497,493,487,494,493
496,493,488,494,493
497,493,489,494,493
497,493,489,494,493
497,493,490,494,493
497,493,489,494,493
497,494,489,494,493
497,494,488,494,493
497,492,487,495,493
496,492,487,495,494
496,493,486,494,493
496,494,486,494,493
496,493,487,494,493
497,493,487,494,493
496,493,488,494,493
497,493,489,494,493
497,493,489,494,493
496,493,490,494,493
497,493,489,494,493
496,492,489,494,493
496,493,488,494,493
497,493,487,494,493
497,493,487,494,492
497,493,486,494,493
497,493,487,494,493
496,493,487,494,493
496,493,488,494,493
497,494,489,494,493
497,493,489,494,493
497,493,490,494,493
497,493,490,494,493
497,493,489,494,493
496,493,489,494,493
497,494,488,494,493
497,493,487,494,493
497,494,487,494,493
497,494,487,494,493
497,494,487,494,493
497,493,488,494,493
497,493,489,494,493
496,493,489,494,493
497,493,489,494,493
497,493,490,494,493
497,493,489,494,493
497,493,489,494,493
497,493,488,494,493
497,493,487,494,493
497,493,487,494,493
497,493,486,494,493
497,493,486,494,493
497,493,487,494,493
497,493,488,494,493
497,493,489,494,493
497,493,489,494,493
497,493,490,494,493
496,493,490,494,493
497,493,489,494,493
496,493,489,494,492
497,493,488,494,491
497,493,487,494,491
496,493,487,494,492
496,493,486,494,493
496,493,487,494,494
496,493,487,494,495
497,493,488,494,496
496,493,489,494,494
496,493,489,494,493
497,493,490,494,493
497,493,490,494,491
497,493,489,494,492
496,493,488,494,492
497,493,488,494,492
497,493,487,494,493
497,493,487,494,493
497,493,487,494,493
497,493,487,494,493
496,493,488,494,494
497,493,489,494,494
497,493,489,494,494
497,493,489,494,493
497,491,489,494,493
497,493,490,494,493
497,494,489,494,493
497,492,488,494,493
497,493,487,494,493
496,493,487,494,493
497,492,486,494,493
496,493,487,494,493
497,494,487,494,493
497,493,488,494,491
496,493,489,494,491
496,493,489,494,493
496,493,489,494,493
497,493,489,494,493
496,492,489,494,494
497,492,488,494,495
496,494,488,494,493
496,493,487,494,493
496,493,487,494,494
497,493,486,494,494
497,493,487,494,493
497,493,487,494,493
497,493,488,494,493
497,493,489,494,493
497,494,490,494,492
497,494,490,494,491
496,494,490,495,492
497,494,489,494,492
496,493,488,495,493
497,493,488,494,494
496,493,487,494,495
497,493,487,494,494
496,493,487,494,493
496,493,487,494,493
497,492,488,494,494
496,493,489,494,494
496,493,489,494,494
496,493,490,494,493
496,493,489,494,493
497,493,489,494,493
496,493,488,494,493
496,493,488,494,493
496,493,487,494,494
496,493,486,494,493
497,494,487,494,493
496,494,487,494,493
496,493,488,494,493
496,493,488,494,493
496,493,489,494,493
497,493,489,494,492
496,493,490,494,491
496,493,489,494,491
497,494,489,494,493
497,493,488,494,493
497,493,488,494,494
496,493,487,494,495
497,494,487,494,495
496,494,487,494,494
496,492,487,494,494
496,493,488,494,493
496,493,489,494,493
497,493,489,494,493
497,493,490,494,493
497,493,489,494,493
497,493,489,494,493
497,494,489,494,494
497,495,488,494,493
497,493,487,494,493
496,493,487,494,493
496,493,487,494,493
496,493,487,494,493
496,493,488,494,493
496,493,488,494,493
496,494,489,494,493
497,494,490,494,493
496,493,490,494,493
497,493,490,495,492
497,494,489,494,492
496,493,488,494,492
497,494,488,494,493
497,493,487,494,494
497,492,487,494,494
496,494,487,494,494
497,494,487,494,494
496,493,488,494,493
496,493,489,494,493
497,493,489,494,493
497,493,490,494,493
496,493,490,494,493
496,493,489,494,493
496,493,489,494,494
496,493,488,494,493
497,493,487,494,493
496,493,487,494,493
497,493,486,495,493
496,493,487,495,493
496,493,487,494,493
497,493,488,494,493
497,493,489,494,493
496,493,489,494,493
497,493,489,494,493
497,493,489,494,493
497,494,489,494,493
496,493,489,494,493
496,493,488,494,493
496,493,487,494,493
496,493,487,494,493
496,494,487,494,493
497,494,487,494,493
497,493,488,493,493
496,493,489,494,493
496,493,489,494,493
497,492,490,494,493
496,493,490,494,493
496,493,489,494,493
496,493,489,494,493
496,493,488,494,493
496,493,487,494,493
496,493,487,495,492
496,493,486,494,492
497,493,487,494,492
496,493,487,494,492
496,493,488,494,492
496,492,489,495,494
497,494,490,494,494
496,494,490,494,495
497,495,490,494,494
497,492,489,494,494
497,493,488,494,493
496,493,488,494,493
496,493,487,494,493
496,493,487,494,493
496,493,487,494,493
496,493,487,494,494
496,493,488,494,494
496,493,489,494,494
496,493,489,494,494
496,493,490,494,494
497,493,490,494,493
496,493,489,494,493
497,493,489,494,493
497,494,488,494,493
497,494,488,494,493
496,494,487,494,493
496,494,487,494,493
496,493,487,495,493
496,493,487,494,493
497,493,488,494,493
496,493,489,494,493
496,493,489,494,493
496,493,490,494,493
497,493,490,494,493
496,493,489,494,494
496,494,489,494,493
496,492,488,494,493
497,492,487,495,494
496,494,487,494,494
496,493,486,494,493
496,493,487,494,493
497,493,487,495,493
496,493,488,494,493
496,494,489,494,493
497,495,490,494,493
496,492,490,494,493
496,493,489,494,494
496,493,489,494,494
496,493,488,494,493
496,493,487,495,493
496,493,487,494,493
496,493,486,494,493
496,493,486,494,493
496,493,487,494,493
496,493,488,494,493
497,494,489,494,493
497,493,489,494,493
496,493,490,494,493
496,493,490,494,493
496,494,490,494,493
496,493,489,494,494
497,493,488,494,494
497,493,487,494,494
496,493,487,494,493
496,494,487,494,493
497,494,487,494,493
497,494,488,494,493
497,493,489,494,493
497,493,489,494,493
496,493,489,494,493
496,493,490,494,493
496,493,489,494,494
496,493,489,494,494
497,494,488,494,493
496,493,488,494,493
496,493,487,494,493
496,493,487,494,493
496,493,487,494,493
496,493,487,494,493
496,493,488,494,493
496,493,489,494,493
496,494,489,494,493
496,493,490,494,493
497,493,490,494,493
497,493,489,494,493
497,494,489,494,493
496,493,488,494,493
496,493,487,494,493
496,493,487,494,493
496,493,486,494,493
497,494,487,494,493
496,494,488,494,493
497,494,488,494,493
496,493,489,494,493
496,493,489,495,493
497,491,489,495,493
496,494,490,494,493
497,494,490,494,493
497,493,489,494,493
497,493,488,494,493
496,493,487,494,493
496,493,487,494,494
497,493,487,494,495
497,493,487,494,494
497,493,488,494,493
497,493,489,494,493
496,493,489,494,493
496,495,490,494,493
496,494,490,494,493
496,493,490,494,494
496,493,489,494,494
496,493,488,494,493
496,494,488,495,492
496,493,487,494,492
497,494,487,494,493
497,493,487,494,493
496,493,487,494,493
496,493,488,494,494
496,493,489,494,495
496,493,489,494,494
497,493,490,494,493
496,493,490,494,493
496,494,489,494,493
496,494,489,494,494
497,493,488,494,494
496,493,487,494,493
496,493,487,494,494
497,493,487,494,493
497,493,487,494,493
496,493,488,494,493
497,493,489,494,493
497,493,489,494,493
496,493,490,494,492
497,494,490,494,492
497,492,489,494,492
497,494,489,494,493
496,493,488,494,493
496,493,488,494,495
496,493,487,494,495
496,493,487,494,494
497,493,487,494,494
496,493,487,494,493
496,495,488,494,494
496,493,489,494,493
497,493,489,494,493
497,493,490,494,493
497,493,490,494,493
497,494,490,494,493
497,494,489,494,494
496,492,488,494,494
497,492,487,494,494
496,493,487,494,493
496,493,486,494,493
496,493,487,494,493
496,493,487,494,493
496,493,488,494,493
497,493,489,494,493
497,494,490,494,493
497,493,490,494,493
497,494,490,494,493
496,493,489,494,494
496,493,488,494,494
497,493,488,494,494
496,493,487,494,493
496,494,487,494,493
496,493,487,494,493
496,493,487,494,493
496,493,488,494,493
497,493,489,494,493
496,493,489,494,493
496,493,490,494,493
497,493,490,494,493
496,493,489,494,494
496,493,489,494,494
496,492,488,494,493
497,492,487,494,493
497,495,487,494,493
496,493,486,494,493
496,493,487,494,493
496,493,487,494,493
496,493,488,494,493
496,493,489,494,493
496,493,489,494,493
496,493,490,494,493
496,493,490,494,494
497,494,489,494,494
497,494,489,494,494
497,493,488,494,493
496,493,487,494,493
496,493,487,494,494
496,493,487,494,493
496,493,487,494,493
497,493,488,494,493
496,493,489,494,493
497,493,489,494,494
497,492,489,494,494
497,492,490,494,494
497,493,489,494,493
497,495,490,494,492
497,494,488,495,492
496,493,488,495,493
496,493,487,494,493
497,493,487,494,493
496,493,487,494,494
496,493,487,494,494
496,493,488,494,493
497,494,489,494,493
496,493,489,494,493
497,493,490,494,493
497,494,490,494,493
497,494,489,494,494
496,493,489,494,494
496,492,488,494,494
497,493,487,494,494
496,493,487,494,494
496,493,487,494,493
496,494,487,494,493
497,493,488,495,493
496,493,488,494,493
496,493,489,494,494
496,493,489,494,494
496,493,490,494,494
496,493,489,494,493
496,494,489,494,494
496,493,488,494,494
496,493,487,494,494
496,493,487,494,493
497,493,486,494,493
496,493,487,494,493
497,493,487,495,493
496,493,488,494,493
496,493,488,494,493
496,493,489,494,493
496,493,489,494,493
497,493,489,495,493
497,493,489,494,493
496,493,488,494,493
496,493,488,494,494
496,493,487,494,493
496,493,486,494,493
496,493,486,494,494
496,493,487,494,493
496,493,487,494,493
497,493,488,494,493
497,493,489,494,493
496,493,490,494,493
496,493,490,494,493
497,493,490,494,493
497,493,489,494,494
496,493,488,494,494
497,493,488,494,493
497,493,487,494,494
496,493,487,494,494
496,493,487,494,493
496,493,487,494,493
496,493,488,494,493
496,493,489,494,494
496,493,489,494,493
497,494,490,494,493
497,493,490,494,494
497,493,489,494,493
497,493,489,494,493
496,492,488,494,493
497,492,487,494,493
496,495,487,495,493
496,493,486,494,493
496,493,487,494,493
497,494,488,494,493
497,493,488,494,494
497,493,489,494,494
497,494,490,494,493
497,494,490,494,493
496,493,490,494,493
496,493,489,494,493
497,494,489,494,493
496,493,488,494,494
497,493,487,494,493
496,494,487,494,493
497,493,487,495,493
496,493,487,494,494
497,493,488,494,494
497,493,489,494,493
496,494,489,495,494
497,493,490,495,493
496,493,490,495,493
496,493,489,495,493
496,493,489,494,493
497,493,488,493,493
497,494,488,494,493
497,494,487,494,493
497,493,486,494,493
497,493,487,494,493
497,494,487,494,493
497,493,488,494,493
497,493,489,494,493
497,493,489,495,493
496,493,490,495,493
496,493,489,494,493
497,493,489,494,493
496,493,488,494,493
497,493,488,494,493
497,493,487,494,493
496,493,487,494,493
496,493,487,495,493
496,493,487,494,493
496,493,488,494,493
497,493,488,494,493
496,493,489,494,493
496,493,490,494,493
496,493,490,494,493
496,494,490,494,493
496,494,489,494,493
496,494,489,494,493
496,494,488,494,493
497,493,487,494,493
496,493,487,494,493
496,493,487,494,493
496,493,487,494,493
496,493,488,494,493
497,494,489,494,493
497,493,489,494,493
497,492,490,494,493
497,492,489,494,493
497,493,489,494,494
496,493,488,494,493
497,494,488,494,494
496,494,487,494,493
496,493,487,494,493
496,493,487,494,493
497,493,487,494,493
497,493,487,494,493
496,493,488,494,493
496,493,489,494,493
496,493,490,494,493
496,493,490,494,493
496,493,489,494,493
496,493,489,494,493
496,493,488,494,493
497,493,488,494,493
496,493,487,495,493
496,493,487,494,493
496,493,487,494,493
496,492,487,494,493
497,491,487,495,493
496,494,489,494,493
497,494,489,494,493
496,494,490,494,493
497,495,490,494,493
497,493,489,494,494
496,492,489,494,493
497,493,488,494,494
496,493,487,494,493
497,493,487,494,493
497,493,486,494,493
497,493,487,494,493
496,493,487,494,493
497,493,488,494,493
496,493,489,494,493
496,493,489,494,493
497,493,490,495,493
497,493,489,494,493
497,493,489,494,493
496,493,488,494,493
496,493,488,495,493
496,493,487,495,494
496,493,487,494,494
496,493,487,494,493
497,493,487,495,493
497,493,487,494,493
497,494,489,494,493
497,493,489,494,493
496,493,489,495,493
496,493,489,494,493
496,493,489,494,493
496,494,489,495,493
496,493,488,494,493
496,493,488,494,493
496,493,487,494,493
496,493,487,494,493
496,493,487,494,493
496,493,487,494,493
496,493,488,494,493
496,493,489,494,493
496,493,490,494,493
497,494,490,494,493
497,493,490,495,493
497,493,489,495,493
496,493,489,494,493
496,495,488,495,493
497,493,487,494,493
496,494,487,494,493
496,494,487,494,493
496,493,487,494,493
496,493,488,494,494
496,493,488,494,494
497,493,489,494,494
497,493,490,494,493
496,494,490,494,493
496,494,490,494,493
496,494,489,494,493
496,493,488,494,493
496,493,488,494,493
496,493,487,494,493
496,493,487,494,493
496,493,487,494,493
496,493,487,494,493
497,493,488,495,493
496,493,489,494,493
496,493,489,495,493
497,493,490,494,493
496,493,490,495,493
497,493,489,494,493
497,493,489,494,493
496,495,488,494,493
497,493,487,494,493
496,493,487,494,493
496,493,487,494,493
496,493,487,494,493
496,491,487,495,493
497,493,488,495,493
497,494,489,494,493
496,493,489,494,493
496,493,490,495,493
496,493,489,494,493
496,493,489,494,493
496,494,489,494,493
496,494,488,494,493
497,494,487,495,493
496,493,487,495,493
497,493,487,495,493
496,493,487,494,493
496,493,488,494,493
497,493,489,494,493
499,494,490,494,493
500,493,490,494,493
500,493,490,494,493
500,493,490,494,493
498,493,489,494,493
494,493,488,494,493
494,493,487,495,493
496,494,487,495,493
496,493,487,495,493
496,493,487,495,494
496,493,488,495,493
496,493,489,495,493
496,494,489,494,493
497,493,490,495,493
496,493,490,495,493
497,493,490,495,493
497,493,489,495,493
497,493,488,495,493
496,493,488,495,494
497,493,487,494,494
496,494,487,494,493
497,494,487,495,493
497,493,487,495,494
497,493,488,495,494
496,493,489,494,493
496,493,490,494,493
496,493,490,495,493
496,493,490,494,493
496,493,490,495,493
496,493,489,495,493
496,493,488,494,493
496,493,488,494,493
496,493,487,494,493
497,493,487,494,493
496,493,487,495,494
496,494,488,494,493
497,495,489,494,493
496,493,489,494,493
497,493,490,494,493
496,493,490,494,493
496,494,490,494,493
496,494,490,495,493
496,493,489,494,493
497,493,488,494,493
497,493,487,494,493
496,493,487,494,493
496,493,487,494,493
496,494,487,494,493
496,493,488,494,493
496,493,489,494,493
496,493,489,495,493
496,492,489,495,493
497,493,490,495,493
496,493,489,494,493
497,493,489,494,493
497,494,488,495,493
497,494,488,494,493
497,493,487,494,493
497,494,487,495,493
497,493,487,494,493
496,493,487,494,493
497,494,488,494,493
496,493,489,494,493
496,493,490,495,493
496,493,490,494,493
496,493,490,494,493
496,493,489,495,492
496,493,488,495,492
496,493,488,494,492
496,493,487,495,493
497,493,487,495,493
497,493,486,494,494
497,493,487,494,494
496,493,487,495,493
496,493,488,494,494
496,493,489,494,493
496,493,490,494,493
496,493,490,495,493
497,492,489,495,493
497,492,489,494,493
497,495,489,494,493
497,493,488,494,493
496,493,487,494,493
496,493,487,494,493
496,493,487,494,493
497,493,487,494,493
497,493,488,494,493
496,493,489,494,493
496,493,489,494,493
496,493,490,494,493
496,493,490,494,493
497,494,489,494,493
497,493,489,494,493
496,493,488,495,493
496,494,487,495,493
496,493,487,494,493
496,493,487,495,493
497,493,487,495,493
496,493,487,494,493
497,493,488,494,493
496,493,489,494,493
496,494,490,494,493
496,494,490,494,493
496,493,490,494,493
496,493,489,495,493
497,493,489,495,493
497,493,488,495,493
496,493,487,494,493
496,493,487,495,493
496,493,487,494,493
497,494,487,494,493
496,494,488,494,493
496,493,489,494,493
496,493,489,494,493
496,493,490,495,493
498,493,490,495,493
499,493,490,495,493
499,494,489,495,493
499,494,488,494,493
499,493,488,494,493
495,493,487,494,493
494,494,487,495,493
496,494,487,494,493
496,492,487,494,493
497,492,488,495,493
496,494,489,495,493
496,494,490,495,493
496,494,490,495,493
496,494,490,495,493
497,493,489,495,493
497,493,489,495,493
496,495,489,496,493
496,494,488,496,493
496,493,487,495,493
496,494,487,495,493
496,493,487,495,493
496,492,488,496,493
496,492,488,496,494
496,493,489,495,493
496,493,490,495,493
496,494,490,494,493
497,495,490,495,493
497,495,490,496,493
497,497,490,497,492
496,495,489,497,493
497,496,489,498,493
497,495,488,497,493
496,492,488,495,494
497,493,488,494,493
497,493,489,496,494
497,494,490,500,495
497,495,491,501,495
499,496,491,502,495
500,494,491,499,494
498,492,490,494,493
497,493,489,495,493
496,493,488,496,494
492,493,488,500,494
489,494,487,500,495
493,497,488,499,494
497,496,489,500,493
501,497,490,500,494
504,496,491,501,493
504,495,491,498,493
498,497,492,498,494
497,497,492,499,494
498,497,492,501,494
498,500,493,507,495
498,499,492,507,496
499,497,491,501,495
497,493,489,499,496
498,496,490,502,497
498,496,489,502,496
497,493,489,500,494
495,492,489,498,494
496,493,490,497,495
497,493,490,499,495
497,496,491,503,496
498,497,492,503,495
500,496,491,494,494
500,495,490,495,494
498,497,490,497,493
498,496,489,497,493
499,499,490,499,493
499,499,489,494,492
498,493,488,493,492
497,496,490,500,493
499,501,492,506,495
500,504,494,510,497
500,499,494,509,497
497,494,492,503,495
498,491,492,501,495
508,492,492,503,495
513,493,490,496,495
513,497,491,500,495
511,497,490,503,495
503,495,489,506,494
485,499,491,507,495
486,499,491,494,494
495,495,491,486,495
499,492,492,487,493
501,491,493,488,492
501,492,494,495,491
500,492,494,493,488
497,498,495,495,490
495,504,498,501,493
498,508,499,503,493
497,501,497,493,493
499,493,494,495,496
498,485,491,496,495
500,488,492,499,497
501,489,491,498,497
501,488,491,500,497
498,489,491,499,496
498,492,492,499,493
502,494,493,504,490
506,495,493,498,489
504,494,492,491,490
505,495,491,489,489
504,495,491,489,490
494,496,490,488,490
494,498,490,493,490
497,495,490,497,495
497,501,493,502,498
502,507,495,504,496
496,496,493,508,495
495,493,493,504,494
494,493,492,495,494
494,492,492,492,495
497,491,490,492,495
499,491,490,495,496
498,494,489,496,494
496,494,489,495,495
497,498,489,496,495
498,499,490,500,494
497,498,489,492,492
495,494,490,494,493
498,508,495,507,496
502,510,497,513,495
497,494,493,498,490
493,480,489,482,491
495,490,490,486,493
498,492,490,496,496
498,495,491,504,495
496,497,490,501,493
493,494,488,499,493
494,493,488,500,494
497,489,486,495,493
497,490,486,489,492
497,492,487,493,493
497,494,489,501,496
501,497,491,504,495
500,497,492,507,495
500,498,492,503,495
497,498,492,494,493
498,499,491,491,493
495,496,490,486,492
496,494,489,489,492
497,490,487,495,492
498,494,489,501,493
499,497,488,497,491
495,488,487,494,491
496,490,488,496,490
499,492,489,497,491
500,493,489,494,491
500,494,491,505,495
501,497,491,504,498
493,499,491,497,496
491,494,489,485,493
491,494,488,482,494
498,496,489,492,494
508,498,489,490,489
510,490,487,492,487
506,493,488,495,489
502,498,489,498,488
490,491,487,485,486
489,490,488,484,488
490,491,489,493,491
491,495,490,503,494
496,497,492,507,497
497,501,492,506,497
496,493,489,497,495
495,491,488,493,493
494,494,488,501,495
496,497,489,510,496
496,493,488,498,493
495,490,486,486,492
496,492,488,495,492
498,500,491,507,494
498,506,495,515,496
500,501,494,505,495
498,501,495,500,495
498,504,495,493,493
496,498,493,491,492
497,492,490,487,488
494,470,483,476,488
497,482,485,487,491
501,497,488,497,494
499,495,487,500,494
496,493,488,501,496
495,498,490,505,496
496,502,492,505,494
497,498,492,494,494
497,495,491,490,492
497,491,489,484,491
496,487,488,493,490
494,491,489,497,492
498,497,489,498,493
499,497,488,496,493
496,496,488,500,494
497,498,489,506,493
496,491,487,487,491
494,490,488,495,494
496,498,491,509,496
494,493,490,505,494
493,491,489,491,491
498,499,491,499,493
501,486,488,495,490
502,483,486,486,489
503,494,487,480,492
502,503,489,491,494
493,501,489,495,493
493,493,487,498,493
495,494,488,505,494
496,506,492,502,495
498,506,493,494,494
498,495,491,486,491
496,489,490,485,490
495,487,489,487,491
496,495,491,492,491
494,487,488,487,490
493,490,488,489,491
495,491,487,490,491
495,493,488,498,493
496,501,490,514,496
498,503,492,518,494
496,490,487,493,490
493,483,485,486,493
496,492,489,500,495
499,508,494,499,495
502,508,496,497,495
501,494,493,496,492
501,486,490,485,489
500,489,489,492,492
501,494,491,506,494
497,494,489,499,491
488,491,487,491,491
494,493,487,495,491
495,488,486,486,489
494,490,486,484,490
497,498,490,496,493
499,501,492,500,494
494,495,492,500,494
493,488,489,493,489
492,488,489,494,489
495,498,491,492,490
492,499,491,498,495
493,496,490,500,495
492,488,487,494,492
494,484,485,485,493
501,498,488,499,496
508,497,489,500,494
510,495,489,496,492
504,490,487,493,487
485,480,485,484,487
483,493,488,483,493
496,500,491,490,492
496,492,489,489,490
496,488,488,493,490
496,499,491,507,493
500,509,494,518,493
498,498,491,503,492
496,497,489,486,492
496,496,489,491,493
496,489,487,487,487
491,482,486,488,490
496,494,489,488,493
496,501,492,497,493
497,499,493,501,494
496,495,492,500,494
496,493,491,496,493
495,491,489,494,491
496,495,489,505,493
496,487,487,498,492
496,494,487,495,493
496,496,487,498,494
499,499,489,498,493
498,493,487,490,491
496,493,489,489,491
496,492,488,493,491
494,492,490,498,493
494,494,490,497,493
494,494,489,491,492
494,494,489,488,491
495,495,489,491,492
497,498,490,499,492
497,497,489,499,489
497,487,485,488,486
497,487,486,495,487
500,504,490,499,486
496,497,489,496,488
494,493,488,484,489
493,490,488,489,493
494,489,488,491,495
495,495,491,503,497
496,497,490,491,496
496,487,487,492,493
497,497,490,500,493
498,499,489,496,492
498,500,491,511,496
506,506,492,509,494
498,484,485,496,491
493,476,483,486,490
496,489,486,489,491
496,494,488,493,491
494,495,489,496,491
494,501,492,504,493
497,494,489,491,492
498,486,487,484,493
502,494,488,489,492
502,494,487,490,491
500,489,485,490,492
501,485,484,502,493
494,492,485,499,493
493,497,486,493,490
496,498,488,489,487
497,495,487,482,481
487,491,488,493,489
490,501,493,516,493
495,500,494,518,497
497,505,495,510,496
497,501,493,497,493
495,491,489,476,488
493,484,486,476,490
496,478,483,482,490
495,489,486,497,492
498,497,487,504,492
501,500,489,507,491
500,500,491,499,494
501,495,490,492,491
496,486,488,495,491
492,486,488,493,493
491,490,488,494,492
494,490,487,495,493
493,487,486,498,493
494,494,487,502,494
496,501,489,501,495
497,503,489,496,493
497,498,488,489,489
501,488,486,493,489
502,483,484,483,486
496,481,484,476,487
497,490,485,482,488
492,487,486,495,491
493,498,489,492,491
494,495,488,490,491
495,498,489,495,492
495,503,491,498,493
496,499,489,490,491
496,489,486,488,489
496,484,485,490,492
497,498,489,504,495
496,494,487,497,491
494,483,485,484,490
498,490,487,489,491
501,497,490,497,490
499,493,489,497,488
501,492,489,483,486
494,493,488,482,484
487,495,489,495,486
494,496,489,505,489
495,490,487,494,493
496,500,489,497,495
498,500,489,500,495
497,496,489,499,499
500,499,491,504,497
496,485,487,491,491
490,483,486,489,491
490,487,487,492,492
494,490,488,501,490
496,491,488,501,491
497,489,487,496,493
504,496,489,495,494
498,495,487,489,493
496,495,487,492,493
495,491,486,493,491
493,495,487,496,490
494,499,489,500,492
500,503,491,502,491
500,494,490,490,491
499,487,488,484,492
500,482,487,489,493
505,489,488,495,493
494,490,487,496,492
492,490,487,492,491
500,492,487,490,491
496,492,485,488,490
490,492,486,491,492
496,504,489,494,493
498,501,489,501,491
494,490,487,501,490
493,483,486,498,490
494,490,488,494,493
498,500,490,498,494
496,496,490,496,492
496,492,489,491,492
495,493,489,490,491
494,492,487,489,490
495,492,487,491,490
497,491,486,493,490
496,491,486,496,490
496,497,487,497,492
498,503,490,497,493
497,501,490,496,490
495,489,489,493,489
492,485,487,485,491
494,490,488,485,492
497,497,491,503,491
496,495,491,506,490
497,491,488,487,490
497,497,490,494,493
500,507,492,505,492
497,494,488,499,492
496,486,486,490,490
494,486,485,489,491
496,496,488,496,492
497,500,490,492,492
497,492,489,489,491
498,489,489,489,490
497,489,489,493,489
497,490,489,494,491
495,493,489,495,493
492,493,488,496,491
493,498,489,496,492
500,502,490,499,492
499,498,488,493,489
495,486,485,487,491
495,493,487,487,493
495,491,487,490,492
496,494,489,494,491
495,490,488,489,490
494,480,486,493,491
495,492,489,499,492
495,498,489,498,491
494,491,488,492,491
493,488,486,491,493
494,490,485,493,492
496,491,485,491,491
500,495,486,492,490
500,498,487,493,490
495,497,488,492,490
496,496,489,489,491
496,494,489,490,493
496,492,490,496,492
496,492,490,500,491
496,492,490,495,491
496,494,490,494,491
496,495,490,493,492
496,496,489,494,492
496,496,489,499,493
496,492,488,501,492
495,491,487,497,490
496,492,487,491,490
496,494,487,494,492
495,487,487,495,493
496,493,489,494,491
496,491,488,487,490
499,493,489,491,490
498,492,489,493,490
495,488,486,489,489
492,491,487,491,491
495,490,486,493,491
496,493,486,495,490
496,493,485,492,490
496,493,486,492,490
496,493,486,490,490
496,493,487,488,489
495,494,488,490,490
496,494,489,490,491
495,493,490,500,493
496,491,489,494,492
496,493,489,495,492
496,495,489,493,492
496,494,488,494,492
496,495,488,494,491
496,495,487,493,492
496,493,487,493,492
496,494,487,493,491
496,494,488,494,491
496,494,489,493,491
496,495,490,493,491
496,495,490,493,491
496,494,490,493,491
496,493,490,493,491
496,493,490,493,491
496,493,489,493,491
496,495,489,493,491
496,493,488,493,491
496,492,487,492,491
496,493,487,493,491
496,492,487,494,492
496,492,487,494,491
496,493,488,493,491
496,495,490,494,491
496,496,491,493,491
496,495,491,493,492
496,493,490,494,492
496,492,489,494,491
496,492,488,493,489
496,495,488,493,489
496,498,489,493,491
496,500,489,493,492
496,492,487,493,492
496,487,487,494,492
496,492,488,494,491
496,492,489,494,491
496,492,489,494,492
496,491,489,494,492
496,492,489,494,492
496,493,489,494,491
496,494,488,493,491
496,494,488,494,491
496,494,487,494,491
496,494,487,494,491
496,494,487,494,491
496,494,487,493,491
496,493,488,493,491
496,494,489,493,491
496,494,490,494,491
495,494,490,494,491
496,494,491,494,492
496,494,490,489,486
490,489,489,488,487
491,489,489,489,488
492,488,488,489,489
492,487,487,490,490
493,487,486,490,490
493,486,486,491,491
493,487,486,491,491
493,489,487,491,491
493,489,488,491,491
493,491,489,491,491
494,490,489,492,492
494,490,488,492,492
493,489,487,492,491
493,487,486,491,491
494,487,485,491,491
494,488,485,492,492
494,489,484,492,492
493,489,484,492,492
494,489,484,492,492
494,489,485,492,492
494,489,486,492,492
494,491,487,492,491
493,489,487,492,492
493,488,487,492,492
494,491,487,492,492
494,489,486,492,491
494,489,486,492,491
494,488,485,492,492
494,489,484,492,492
494,490,484,492,491
494,490,484,492,492
494,490,484,492,491
494,490,485,492,491
494,490,487,492,491
494,490,487,492,492
494,490,488,492,492
494,490,488,492,491
494,491,488,492,491
494,491,487,492,491
494,492,487,492,491
494,492,486,492,491
494,490,485,492,491
494,490,485,492,490
494,490,485,492,490
494,489,485,492,490
494,489,486,492,492
494,490,487,492,491
494,490,487,493,492
494,490,487,493,491
494,490,487,492,490
494,490,487,493,491
494,490,486,492,490
493,490,485,492,492
494,490,485,493,493
494,490,484,493,492
494,490,484,493,492
494,491,484,493,492
494,491,485,493,493
494,490,486,493,492
494,491,487,493,492
494,491,487,493,492
494,491,487,493,492
494,491,487,493,492
494,490,487,493,491
494,490,486,493,492
494,490,485,492,491
494,490,485,493,491
493,489,484,494,492
494,491,485,493,492
494,490,485,494,492
494,491,486,494,492
494,491,487,494,492
494,491,488,494,492
494,491,488,493,492
494,491,488,493,492
494,491,487,494,492
494,490,486,493,492
494,490,485,493,492
494,491,485,493,492
494,490,484,493,492
494,490,484,493,492
494,490,484,494,491
494,490,485,493,491
495,491,486,493,491
495,491,487,493,491
494,492,487,493,491
494,491,488,493,491
494,492,487,493,491
494,492,487,493,491
494,492,487,493,491
494,491,486,494,492
494,491,485,494,492
494,490,485,494,492
494,490,485,494,492
494,490,485,494,492
494,490,486,494,492
494,491,487,494,491
494,492,488,493,491
494,491,488,494,492
494,490,488,494,492
494,491,488,494,492
494,490,487,494,492
494,490,486,494,492
494,491,485,494,492
494,491,485,494,492
494,491,485,494,492
494,491,485,494,492
494,490,485,494,492
494,490,487,494,492
495,494,488,494,492
495,492,488,494,492
494,491,488,494,491
494,490,488,493,491
494,490,487,494,492
494,491,486,494,492
494,491,486,494,492
494,491,485,494,492
494,491,485,494,492
494,491,485,494,492
494,491,485,494,491
494,491,486,494,491
495,491,487,494,491
494,492,488,494,492
494,492,488,494,492
494,492,488,494,492
495,492,488,494,492
495,491,487,494,491
495,491,486,494,491
494,492,485,494,492
494,491,485,494,492
494,491,485,494,492
495,491,485,494,492
495,491,485,494,491
495,491,486,494,491
494,491,487,494,491
495,491,487,495,492
494,491,487,494,492
494,491,487,495,492
494,491,487,495,492
494,491,486,494,491
495,491,485,494,492
495,491,485,494,492
495,491,484,494,491
494,491,485,494,491
495,491,485,494,491
495,492,486,494,491
495,491,486,494,492
495,491,487,494,492
495,492,488,494,492
495,492,488,494,491
495,492,488,494,491
495,492,487,494,491
495,491,487,495,492
494,491,486,494,493
495,491,485,494,492
495,491,485,494,492
495,491,485,494,492
495,492,486,494,492
495,492,487,494,491
495,492,488,495,491
495,491,488,494,491
495,492,489,494,491
495,493,489,494,492
495,492,488,494,492
495,492,488,494,491
495,492,487,494,491
495,490,485,494,491
495,491,486,494,492
495,493,486,494,492
495,491,486,495,493
495,491,487,495,492
495,492,487,495,492
495,491,488,494,492
495,492,489,494,492
495,492,489,495,492
495,492,489,495,492
495,492,488,495,492
495,492,487,495,492
495,492,487,494,492
495,492,486,494,492
495,492,486,494,492
495,491,486,495,492
495,492,486,495,492
495,492,487,495,492
495,492,488,495,492
495,492,488,495,492
495,492,489,495,492
495,492,489,494,492
495,492,488,494,492
495,493,488,494,492
495,491,487,494,492
495,492,486,494,492
495,492,486,495,492
495,492,486,495,492
495,491,485,494,491
495,491,486,494,492
495,493,488,494,492
495,493,488,494,492
495,492,488,494,492
496,492,489,494,492
495,492,489,494,492
495,492,488,495,492
495,491,487,495,492
495,492,487,495,492
495,492,486,495,492
495,492,486,494,492
619,568,492,517,498
503,501,484,497,488
497,498,486,496,488
497,498,487,496,489
497,498,489,496,490
497,497,490,497,490
498,497,490,497,490
498,497,490,497,491
498,497,490,497,491
498,497,490,497,491
498,497,489,497,491
498,497,489,497,492
498,497,489,498,492
498,496,489,498,492
498,496,490,498,492
498,496,491,498,491
498,496,492,497,492
498,496,492,497,492
498,496,492,497,492
498,496,492,497,492
498,496,492,497,491
498,496,491,497,492
498,497,491,498,492
499,497,490,498,492
499,497,490,498,493
498,495,490,497,493
498,494,490,497,493
498,495,490,498,493
498,494,491,498,493
498,495,492,497,493
498,497,492,497,493
498,496,493,498,493
498,495,492,498,493
497,495,491,498,493
498,495,490,498,493
498,495,490,498,493
498,495,489,498,493
498,495,489,497,493
498,495,489,498,493
498,495,489,498,493
498,495,490,498,493
498,495,491,498,493
498,495,492,498,493
498,495,492,498,493
498,495,492,498,493
498,495,491,498,493
498,495,491,498,493
498,495,490,494,488
493,490,488,491,488
493,490,488,492,490
494,491,489,493,491
494,491,489,494,491
495,491,490,494,492
495,491,490,494,492
495,491,491,495,492
495,491,491,494,492
495,491,491,494,492
495,491,490,494,493
495,491,490,495,493
495,491,489,495,493
495,491,488,495,493
495,491,487,495,493
495,491,487,495,493
496,491,487,495,493
496,491,487,495,493
495,491,488,495,493
495,491,489,495,493
495,491,489,495,493
495,491,489,495,493
496,492,489,494,493
495,492,489,495,493
495,492,488,495,493
495,492,487,494,493
495,491,487,495,493
495,491,486,495,493
495,489,485,495,493
495,490,486,495,493
496,492,486,494,492
496,492,487,495,493
495,491,488,495,493
495,492,488,496,493
495,491,488,495,493
495,492,488,495,493
495,492,488,495,493
495,491,487,495,493
495,491,486,495,493
495,492,486,495,493
495,492,485,495,493
495,492,485,495,493
495,491,486,495,493
495,492,515,549,518
513,505,493,499,491
497,498,493,496,490
497,497,493,496,490
497,497,493,497,491
498,497,492,497,492
497,497,492,497,492
498,497,491,497,492
498,497,490,497,492
498,496,490,497,492
498,496,489,497,492
498,496,490,497,493
498,496,490,497,493
498,496,491,498,493
498,496,492,498,493
498,496,492,498,493
498,496,492,498,493
498,496,492,497,493
498,496,492,498,493
498,496,491,498,493
498,496,490,497,493
498,496,489,497,493
498,495,489,497,493
498,495,489,497,493
498,495,489,497,493
498,495,490,498,493
498,495,491,497,493
498,495,492,497,493
498,495,492,497,493
498,495,492,497,493
498,495,492,497,493
498,495,491,498,494
498,495,490,497,493
498,495,489,497,493
498,495,489,497,493
498,495,488,498,493
498,495,489,497,494
498,495,489,497,493
498,495,490,497,493
498,495,491,497,493
498,495,491,497,493
498,495,492,497,493
498,495,492,498,494
498,495,491,497,494
498,495,491,496,493
498,495,490,498,494
498,494,489,498,494
498,495,488,498,493
498,495,488,497,493
498,493,488,497,493
498,495,490,497,494
498,497,491,498,494
498,494,491,498,493
498,495,491,497,493
498,495,491,497,493
498,495,491,498,494
498,496,491,498,494
498,495,490,498,494
498,494,489,498,493
497,494,488,497,494
498,494,488,497,494
498,495,488,497,494
498,495,489,498,494
498,495,490,498,494
498,495,490,498,494
498,495,491,498,494
498,495,491,497,494
498,494,491,497,494
498,495,491,497,494
498,495,490,497,493
498,495,489,497,494
498,495,489,497,494
498,496,489,497,494
498,497,489,496,494
498,495,489,496,493
498,495,490,496,493
498,495,490,497,493
498,495,491,497,493
497,494,491,498,493
497,494,491,498,494
497,494,491,497,494
497,493,490,497,494
498,495,490,497,494
498,496,489,498,494
498,494,488,497,493
498,494,488,497,494
498,494,488,497,494
497,492,488,498,494
498,495,489,498,494
498,495,490,497,494
497,494,491,498,494
498,494,491,497,494
498,495,491,498,494
498,495,491,498,494
498,495,490,497,494
498,495,489,497,494
498,495,489,498,494
498,494,488,496,493
497,494,488,497,494
498,495,488,497,494
498,495,489,497,494
497,494,490,497,493
498,494,490,497,493
498,494,491,497,494
498,494,491,497,495
498,494,491,497,494
498,494,490,497,494
498,495,489,497,494
497,495,489,497,494
498,495,488,497,495
498,495,487,497,494
498,495,488,497,494
498,494,488,497,494
498,495,489,497,494
498,495,490,497,494
498,495,491,497,494
498,495,491,497,494
498,495,491,497,494
498,495,491,497,494
497,494,490,497,493
498,494,489,497,494
498,495,489,497,494
498,494,488,496,494
498,494,488,496,493
498,496,488,496,494
498,494,488,496,493
497,492,489,497,494
498,495,490,497,493
498,495,491,496,493
497,494,491,496,493
498,495,491,497,493
498,495,491,497,495
497,494,490,497,495
498,494,489,498,495
498,494,488,498,495
498,494,488,497,494
498,494,488,497,494
497,493,488,497,494
497,494,489,497,494
498,494,490,497,495
498,494,490,497,494
497,494,491,496,494
497,493,490,496,494
497,495,490,497,494
498,494,490,496,494
498,494,489,496,494
498,494,488,496,494
498,494,488,497,494
498,496,488,496,494
498,494,488,497,494
497,494,488,497,494
497,494,489,497,494
497,494,490,496,494
497,494,490,496,494
497,494,491,496,493
498,494,491,496,493
497,494,490,496,493
497,494,489,496,494
497,494,489,497,495
498,494,488,497,495
498,494,488,497,495
498,494,487,496,494
497,494,488,496,494
498,494,489,497,494
498,495,490,497,494
498,494,491,497,494
498,494,491,497,495
498,494,491,497,494
498,495,491,496,494
498,494,490,496,494
497,494,489,496,494
497,494,488,497,495
497,494,488,497,494
498,494,487,497,494
498,493,487,496,493
497,493,488,496,493
497,492,488,496,493
498,496,490,496,494
498,495,490,496,494
497,494,491,496,494
497,494,490,496,495
497,494,490,496,494
497,494,489,496,494
498,494,489,496,494
497,494,488,496,494
497,494,488,498,494
497,494,487,497,494
498,494,487,496,494
497,494,488,496,494
497,494,489,497,494
497,494,490,496,494
498,494,491,496,494
497,494,491,496,494
497,494,490,496,494
498,494,490,496,494
497,494,489,496,494
497,494,489,496,494
497,494,488,496,494
498,495,488,496,494
497,494,488,496,494
497,494,488,495,493
497,492,488,494,493
498,496,490,496,494
497,494,491,496,494
497,494,491,496,494
497,494,491,496,494
497,493,490,496,494
497,495,490,497,494
497,494,489,497,494
497,494,488,496,494
497,494,488,496,494
497,494,488,497,494
498,495,488,497,493
498,494,489,496,494
497,494,490,496,494
497,495,490,496,495
498,494,491,497,495
497,493,491,497,494
497,493,490,496,494
497,494,490,496,494
497,494,489,496,494
497,494,488,496,494
497,494,488,496,494
497,494,487,496,494
497,494,487,496,494
497,494,487,496,493
497,494,488,496,494
497,494,489,496,494
497,494,490,496,494
497,494,490,496,494
497,494,490,497,494
497,494,490,496,494
497,494,489,496,494
497,494,489,496,494
497,494,488,496,494
497,494,488,496,494
497,494,487,496,494
497,494,488,496,494
497,494,488,496,494
497,494,489,496,494
497,494,490,496,494
497,494,490,496,494
497,494,491,496,494
497,494,490,496,494
497,494,490,496,494
497,494,489,496,494
497,494,489,496,494
497,494,488,496,494
497,494,488,496,494
498,494,488,496,494
497,494,488,496,494
497,494,488,496,494
497,494,489,496,494
498,494,490,496,493
497,492,490,496,494
497,492,490,495,494
498,494,490,497,494
497,494,490,497,494
497,494,489,497,494
497,493,488,496,494
497,494,487,496,494
497,494,487,496,494
497,494,487,496,494
497,494,488,496,494
497,493,488,496,493
497,494,489,496,493
497,494,490,496,494
497,494,490,496,494
497,494,490,496,494
497,494,490,496,494
497,494,489,497,494
497,494,488,496,494
497,495,488,497,495
498,495,487,496,494
497,494,487,496,494
497,494,487,496,494
497,494,488,496,494
497,494,489,496,494
497,494,490,496,494
497,494,490,496,494
498,494,490,496,493
497,494,490,496,493
498,495,490,497,494
498,494,489,497,494
498,494,488,497,494
497,494,488,497,494
497,494,487,496,494
497,493,487,495,494
497,493,487,495,494
497,493,488,496,494
497,494,489,496,494
497,494,490,496,494
497,494,490,495,494
497,494,490,495,494
497,495,490,496,494
497,494,489,496,494
497,494,489,495,493
497,494,488,495,493
497,494,487,495,494
498,494,487,495,494
497,495,488,495,493
497,495,488,496,494
497,493,489,497,494
497,493,490,496,494
498,494,490,496,494
497,493,490,495,494
497,493,490,496,494
497,494,490,496,494
497,493,489,496,494
497,494,488,496,494
497,494,488,496,494
497,494,487,496,494
497,494,488,496,494
497,494,488,496,494
497,493,488,496,494
497,493,489,496,494
497,494,490,496,493
497,494,490,495,493
497,494,490,495,494
497,494,490,496,494
498,494,489,496,494
497,493,489,496,494
497,494,488,496,494
497,494,488,496,494
497,494,487,496,494
497,494,487,496,494
497,494,488,495,494
497,494,489,496,494
497,494,489,496,494
497,494,490,496,494
497,494,490,496,494
497,494,490,496,494
497,494,490,496,494
497,494,489,495,494
497,494,488,496,494
497,492,487,495,494
497,493,487,496,494
497,493,487,496,494
497,493,487,496,494
497,495,488,495,494
497,494,489,495,493
497,494,490,496,494
497,494,490,496,494
497,494,490,496,494
497,494,490,496,494
497,494,489,496,494
497,494,489,496,494
497,494,488,496,494
497,494,487,496,494
497,494,487,496,494
497,494,487,495,494
497,493,488,496,494
497,493,489,496,494
497,493,489,496,494
497,494,490,496,494
497,494,490,496,494
497,494,490,496,494
497,493,490,496,494
497,493,489,495,494
497,494,488,495,493
498,494,488,495,493
497,494,487,495,493
497,493,487,495,494
497,493,487,496,495
497,493,488,496,494
497,493,489,496,494
497,494,490,496,494
497,493,490,496,494
497,494,490,495,494
497,495,490,495,493
497,493,489,495,494
497,493,489,495,494
497,493,488,496,494
497,494,488,496,494
497,493,487,496,494
497,493,487,496,494
497,493,487,496,494
497,494,488,495,494
497,494,489,495,494
497,494,490,495,494
497,494,490,495,494
497,494,490,495,494
497,494,490,495,494
497,493,489,496,494
497,493,488,496,494
497,493,488,496,494
497,494,487,496,494
497,494,487,496,494
497,494,487,495,494
497,494,488,496,494
497,493,489,495,494
497,493,489,495,494
497,493,490,496,494
497,493,490,496,494
497,493,490,496,494
497,493,489,496,494
497,494,489,496,494
497,493,488,495,494
497,493,487,495,494
497,493,487,495,494
497,493,487,495,494
497,493,487,495,494
497,493,488,495,494
497,493,489,495,494
497,494,489,495,494
497,494,490,495,494
497,493,490,495,494
497,493,489,495,494
497,493,489,495,493
