Sensor0,Sensor1,Sensor2,Sensor3,Sensor4

495,493,489,494,492
495,493,490,494,493
495,493,489,494,492
495,493,489,494,492
495,493,488,494,492
495,493,487,494,492
495,493,487,494,493
495,493,486,493,492
495,493,486,494,492
495,493,487,493,492
495,493,488,493,493
495,493,489,494,493
495,493,489,494,493
495,493,489,494,492
495,493,489,494,493
495,493,489,494,492
495,493,489,494,492
495,493,488,494,492
495,494,487,494,493
495,491,486,494,493
495,492,486,494,492
495,494,487,493,492
495,493,487,494,492
495,494,489,494,493
495,493,489,494,492
495,495,490,494,493
495,492,490,494,493
495,492,489,494,492
495,493,489,494,492
495,493,488,493,492
495,493,488,493,493
495,493,487,494,493
495,493,486,494,493
495,493,486,494,493
495,493,487,495,493
495,493,487,494,493
495,493,488,494,493
495,493,489,494,493
495,493,489,494,493
495,493,489,494,493
495,493,489,494,492
495,493,488,494,492
495,493,488,494,493
495,493,487,494,493
495,493,487,494,492
495,493,486,494,492
495,493,486,494,492
495,493,487,494,492
495,493,488,494,493
495,493,489,494,493
495,493,489,494,493
495,493,490,494,492
495,493,490,494,492
495,493,489,494,493
495,493,488,494,492
495,493,488,494,492
495,493,487,494,492
495,493,487,494,492
495,493,487,494,492
495,493,487,494,493
495,493,488,494,493
495,493,489,494,492
495,493,489,494,492
495,493,490,494,492
495,493,490,494,493
495,493,489,493,492
495,493,489,493,492
495,493,488,494,492
495,493,488,494,492
495,494,487,494,492
495,493,487,494,492
495,493,487,494,493
495,494,488,494,492
495,493,488,494,492
495,493,489,494,492
495,493,490,494,492
495,493,490,494,492
495,493,490,494,493
495,493,489,494,493
495,493,489,494,493
495,493,488,494,492
495,493,487,494,493
495,493,487,494,493
495,493,487,494,493
495,493,487,494,493
495,493,488,494,493
495,493,489,494,492
495,493,489,494,493
495,493,490,494,493
495,493,490,494,492
495,493,489,494,493
495,493,489,494,493
495,493,488,494,493
495,493,488,494,493
495,493,487,494,493
495,493,487,494,493
495,493,487,494,493
495,493,487,494,492
495,493,488,494,493
495,493,489,494,493
495,493,489,494,492
495,493,490,494,492
495,493,490,494,492
495,493,489,494,492
495,493,489,494,492
495,494,488,494,493
495,493,487,494,493
495,493,487,494,493
495,493,487,494,493
495,493,487,494,492
495,493,487,494,493
495,493,488,494,493
495,493,489,494,493
495,493,489,494,492
495,494,490,494,493
495,494,490,494,493
495,493,489,495,493
495,492,488,494,493
495,492,487,494,493
495,492,487,494,493
495,494,486,494,492
495,493,486,494,493
495,493,487,494,493
495,493,488,493,492
495,493,488,494,493
495,493,489,494,493
495,493,489,494,493
495,493,489,494,493
495,493,489,494,493
495,493,489,494,492
495,493,488,494,492
495,493,487,494,493
495,493,487,494,493
495,493,486,494,493
495,493,487,494,492
495,493,487,494,492
495,492,488,493,492
495,493,489,494,493
495,494,489,494,493
495,494,490,494,493
495,494,490,493,493
495,492,489,494,493
495,493,488,494,493
495,493,488,494,493
495,493,487,495,493
495,492,486,494,493
495,493,486,494,493
495,493,487,494,493
495,493,488,494,492
495,493,488,494,493
495,493,489,494,493
495,493,490,494,493
495,493,490,494,492
495,493,489,494,492
495,493,489,494,493
495,493,488,494,493
495,493,487,494,493
495,493,487,494,493
495,493,486,494,493
495,493,487,494,493
495,493,487,494,492
495,493,488,494,493
495,493,489,494,493
495,493,490,494,493
495,493,490,492,493
495,493,489,493,493
495,493,489,493,493
495,493,489,493,493
495,493,488,494,493
495,493,487,494,493
495,493,487,494,493
495,493,487,494,492
495,493,487,494,492
495,493,488,494,492
495,493,489,493,492
495,493,489,493,493
495,493,490,493,493
495,493,490,493,493
495,493,490,494,493
495,493,489,494,493
495,493,488,494,493
495,494,488,494,493
495,493,487,493,493
495,493,487,494,493
495,493,487,494,493
495,493,487,494,493
495,493,488,494,493
495,493,489,494,493
495,493,489,494,493
495,493,490,494,493
495,493,489,494,493
495,493,489,494,493
495,493,489,494,493
495,493,488,494,493
495,493,487,494,493
495,493,487,494,493
495,493,486,494,493
495,493,487,494,493
495,494,487,494,493
495,493,488,494,493
495,493,489,494,493
495,493,489,493,493
495,493,490,493,492
495,493,489,494,493
495,493,489,494,493
495,493,488,494,493
495,493,487,494,492
495,493,487,494,493
495,493,486,494,493
495,493,486,494,493
495,493,487,494,493
495,493,488,494,493
495,493,488,494,493
495,493,489,494,493
495,493,490,494,493
495,494,490,493,493
495,494,489,494,493
495,492,488,494,493
495,493,488,494,492
495,494,487,493,493
495,493,487,494,493
495,493,486,494,493
495,493,487,495,493
495,493,487,494,493
495,493,488,494,493
495,493,489,494,492
495,493,489,494,492
495,493,490,494,493
495,493,489,494,493
495,493,489,494,493
495,493,488,494,493
495,493,488,494,493
495,493,487,494,493
495,493,487,494,493
495,493,486,494,493
495,493,487,494,492
495,493,488,494,492
495,493,489,494,492
495,493,489,494,493
495,493,490,494,493
495,493,490,494,493
495,493,489,494,493
495,493,489,493,493
495,493,488,494,493
495,493,487,494,493
495,493,487,493,493
495,493,486,493,492
495,493,487,494,493
495,493,487,494,493
495,493,488,494,493
495,492,488,494,493
495,493,489,493,492
495,493,489,494,493
495,494,490,493,492
495,494,489,494,493
495,493,488,494,492
495,493,488,494,493
495,493,487,494,493
495,493,487,494,493
495,493,487,494,493
495,493,487,494,493
495,493,488,494,493
495,493,488,494,493
495,493,489,494,493
495,493,490,494,493
495,493,490,494,493
495,493,489,494,493
495,493,489,494,493
495,493,488,494,493
495,493,487,493,493
495,493,487,493,493
495,493,487,494,493
495,493,487,494,493
495,493,487,494,493
495,493,488,494,493
495,493,489,494,493
495,494,490,494,493
495,493,490,493,493
495,493,490,494,493
495,493,489,494,493
495,493,489,494,493
495,493,488,494,493
495,493,487,494,493
495,493,487,494,493
495,493,487,494,493
495,493,487,494,493
495,493,488,493,493
495,493,488,494,493
495,493,489,494,493
495,494,490,494,493
495,493,490,494,493
495,493,489,494,493
495,493,489,494,493
495,493,488,494,493
495,493,488,493,493
495,493,487,494,493
495,493,487,494,493
495,493,487,494,493
495,493,487,494,493
495,493,488,494,493
495,493,489,494,493
495,493,489,494,492
495,494,490,494,492
495,494,490,494,493
495,492,489,494,493
495,493,489,493,493
495,493,488,494,492
495,493,487,494,493
495,493,487,494,492
495,493,486,494,492
495,493,487,494,493
495,493,487,494,493
495,493,488,494,493
495,493,489,494,492
495,494,490,494,492
495,493,490,494,493
495,493,490,494,492
495,493,489,494,492
495,493,488,494,492
495,493,488,494,493
495,493,487,494,493
495,493,487,494,493
495,493,487,494,493
495,493,487,494,493
495,493,488,494,493
495,493,488,494,493
495,493,489,494,493
495,493,490,494,493
495,493,490,494,493
495,493,489,494,493
495,493,489,493,493
495,493,488,494,493
495,493,487,494,493
495,493,487,494,493
495,493,487,494,493
495,493,487,494,493
495,493,487,494,493
495,492,488,494,493
495,491,488,494,493
495,494,490,494,493
495,494,490,494,492
495,494,490,494,493
495,493,489,494,493
495,493,488,494,492
495,492,488,494,493
495,493,487,494,492
495,493,486,494,492
495,493,487,494,493
495,493,487,494,493
495,493,488,494,492
495,493,488,494,492
495,493,489,494,492
495,493,490,493,492
495,493,490,494,493
495,493,489,494,493
495,493,489,494,493
495,493,488,494,493
495,494,488,494,493
495,494,487,494,492
495,492,486,494,492
495,493,487,494,492
495,493,487,494,493
495,493,488,494,493
495,493,489,494,493
495,493,489,494,493
495,493,490,494,493
495,493,490,494,493
495,493,489,494,493
495,493,488,494,493
495,493,488,494,493
495,493,487,494,493
495,493,486,494,493
495,493,487,494,492
495,494,487,494,493
495,493,488,494,493
495,493,488,494,493
495,493,489,494,493
495,493,489,494,493
495,493,489,494,493
495,493,489,494,493
495,493,489,494,493
495,494,488,494,492
495,495,488,494,493
495,492,487,494,493
495,492,486,494,493
495,493,487,494,493
495,493,487,494,493
495,493,488,494,493
495,492,488,494,492
495,493,489,494,492
495,493,489,494,493
495,493,489,494,492
495,493,489,494,492
495,493,488,494,493
495,493,488,494,493
495,493,487,494,493
495,493,487,494,493
495,493,486,494,493
495,493,487,494,493
495,493,487,494,493
495,493,488,494,493
495,493,489,494,493
495,493,489,494,493
495,493,489,494,493
495,493,489,494,493
495,493,489,494,493
495,493,488,494,493
495,493,487,494,493
495,493,487,494,492
495,493,486,494,493
495,493,486,494,493
495,493,487,494,493
495,493,488,494,493
495,493,489,494,492
495,493,489,494,492
495,493,490,494,493
495,493,489,494,493
495,493,489,493,493
495,493,489,494,493
495,493,488,494,493
495,493,487,494,493
495,493,487,494,493
495,493,486,494,493
495,493,487,494,492
495,493,487,494,493
495,493,488,493,493
495,492,489,494,492
495,493,489,494,493
495,493,489,494,493
495,492,489,494,493
495,491,488,494,493
495,493,488,494,493
495,494,487,494,493
495,493,487,494,493
495,493,486,494,492
495,493,486,493,493
495,493,487,494,493
495,493,487,494,493
495,493,488,494,493
495,493,489,494,493
495,493,489,494,493
495,493,489,494,493
495,493,489,494,493
495,493,489,494,493
495,493,488,494,493
495,493,487,494,493
495,493,486,494,493
495,493,486,494,493
495,494,487,494,493
495,493,487,494,493
495,493,488,494,493
495,493,489,494,493
495,493,489,494,493
495,493,489,494,493
495,493,489,494,493
495,493,489,494,493
495,492,488,494,493
495,493,488,493,493
495,493,487,494,493
495,493,487,494,493
495,493,486,494,493
495,493,487,494,493
495,493,487,494,493
495,493,488,494,493
495,493,489,494,493
495,493,489,494,492
495,493,490,494,492
495,493,489,494,493
495,493,489,494,493
495,492,488,494,493
495,493,487,493,493
495,493,487,494,493
495,493,486,494,493
495,493,486,494,493
495,493,487,494,493
495,493,488,494,493
495,494,489,494,493
495,493,490,494,492
495,493,490,494,492
495,493,490,494,492
495,493,489,494,492
495,492,489,494,493
495,492,488,494,493
495,493,487,494,493
495,493,486,494,492
495,493,486,493,492
495,493,487,494,493
495,492,487,494,492
495,493,488,494,492
495,493,489,494,493
495,492,489,494,493
495,493,489,494,493
495,493,489,494,493
495,493,489,494,492
495,492,488,494,493
495,493,487,494,493
495,493,487,494,493
495,493,486,494,493
495,493,486,494,493
495,493,487,494,493
495,493,488,494,492
495,493,488,494,493
495,492,489,494,493
495,492,489,494,493
495,493,489,494,493
495,493,489,494,492
495,493,488,494,493
495,493,488,494,493
495,493,487,494,492
495,493,486,494,493
495,493,486,494,493
495,493,486,494,493
495,493,487,494,492
495,493,488,494,492
495,493,488,494,493
495,493,489,494,493
495,493,489,494,492
495,493,489,494,493
495,493,489,494,493
495,493,488,494,493
495,493,487,494,493
495,493,487,494,493
495,493,486,494,493
495,493,486,494,493
495,493,486,494,493
495,493,487,494,493
495,493,488,494,493
495,493,489,494,493
495,492,489,494,493
495,493,489,494,493
495,493,489,494,493
495,493,488,493,493
495,493,488,494,492
495,493,487,494,493
495,493,486,494,493
495,493,486,494,492
495,492,486,494,493
495,492,487,494,493
495,494,488,494,492
495,493,489,494,492
495,493,489,494,493
495,491,489,494,493
495,493,489,494,493
495,493,489,494,493
495,493,488,494,493
495,493,487,494,493
495,493,487,494,493
495,492,486,494,493
495,493,486,494,493
495,493,487,494,493
495,493,487,494,493
495,493,488,494,493
495,493,489,494,493
495,493,489,494,493
495,493,490,494,493
495,493,489,494,493
495,493,489,494,493
495,492,488,494,493
495,493,487,494,493
495,493,487,494,493
495,493,486,494,493
495,493,486,495,493
495,493,487,494,493
495,493,488,494,492
495,494,489,494,493
495,492,489,493,493
495,493,489,494,493
495,493,489,494,493
495,493,489,494,493
495,493,488,494,493
495,493,488,494,492
495,493,487,494,492
495,492,486,494,493
495,493,486,494,493
495,493,486,494,493
495,493,487,494,493
495,493,488,494,493
495,493,489,494,493
495,493,489,494,493
495,493,489,494,493
495,493,489,494,493
495,493,489,494,493
495,493,488,494,493
495,493,487,494,493
495,493,487,494,493
495,493,486,494,493
495,493,486,494,493
495,493,487,494,493
495,493,488,494,493
495,493,488,494,493
495,493,489,494,493
495,493,489,494,493
495,493,489,494,493
495,493,489,494,492
495,493,488,494,493
495,493,488,494,493
495,493,487,494,493
495,493,487,494,493
495,493,486,494,493
495,493,487,494,493
495,493,487,494,493
495,493,488,494,493
495,493,489,494,492
495,494,490,494,493
495,492,489,494,493
495,492,489,495,493
495,492,489,495,493
495,493,488,494,493
495,493,487,494,493
495,493,487,494,493
495,493,486,494,493
495,493,486,494,493
495,493,487,494,493
495,493,487,494,493
495,493,488,494,493
495,493,489,494,493
495,493,489,494,493
495,493,489,494,493
495,493,489,494,493
495,493,489,494,493
495,493,488,494,493
495,493,487,494,493
495,493,486,494,493
495,493,487,494,493
495,493,487,494,493
495,493,487,494,493
495,493,488,494,493
495,493,489,494,493
495,493,489,494,493
495,493,490,494,493
495,493,489,494,493
495,493,489,494,493
495,493,488,494,493
495,493,488,494,493
495,493,487,494,493
495,493,486,494,493
495,493,486,494,493
495,493,487,494,493
495,493,487,494,493
495,493,488,494,493
495,493,489,494,493
495,493,490,494,493
495,493,489,494,493
495,493,489,494,493
495,493,489,494,493
495,493,488,494,493
495,493,487,494,493
495,493,487,494,493
495,493,486,494,493
495,493,486,494,493
495,493,487,494,493
495,493,488,494,493
495,493,489,494,493
495,493,489,494,493
495,493,489,494,493
495,492,489,494,493
495,491,489,494,493
495,493,488,493,493
495,494,488,494,493
495,493,487,494,493
495,493,486,494,493
495,493,486,494,493
495,493,486,494,493
495,493,487,494,493
495,493,488,494,493
495,494,489,494,492
495,493,489,494,493
495,493,490,494,493
495,493,489,494,493
495,494,489,494,493
495,493,488,494,493
495,493,488,494,493
495,493,487,494,493
495,493,486,494,492
495,493,487,494,493
495,493,487,494,493
495,493,488,494,493
495,493,489,494,493
495,493,489,494,493
495,493,490,494,493
495,493,489,494,493
495,493,489,494,493
495,493,489,494,493
495,493,488,494,493
495,493,487,494,493
495,493,487,494,493
495,493,486,494,493
495,493,486,494,493
495,493,487,494,493
495,493,488,494,493
495,493,489,494,493
495,493,489,494,493
495,493,489,494,493
495,493,489,494,493
495,493,489,494,493
495,493,488,494,493
495,493,488,494,493
495,493,487,494,493
494,493,487,494,493
495,493,487,494,493
495,493,487,494,493
495,493,488,494,493
495,493,489,494,493
495,493,489,494,492
495,493,490,494,492
495,493,490,494,492
495,493,489,494,492
495,493,489,494,493
495,493,488,494,493
495,493,487,494,493
495,493,487,495,493
495,493,487,494,493
495,493,487,494,493
495,493,487,494,493
495,493,488,494,493
495,493,489,494,493
495,493,489,494,493
495,492,489,494,493
495,493,489,494,493
494,493,489,494,493
495,494,489,494,493
495,492,488,494,493
495,493,487,494,493
495,492,486,494,493
495,493,486,494,493
495,493,487,494,493
495,493,488,494,493
495,493,488,494,493
495,493,489,494,493
495,493,490,494,493
495,493,490,494,493
495,493,489,494,493
495,493,489,494,493
495,493,488,494,493
495,493,488,494,493
495,493,487,494,493
494,493,486,494,493
495,493,487,495,493
495,493,487,494,493
495,493,488,494,493
495,493,489,494,493
495,493,489,494,493
495,493,490,494,493
495,493,490,494,493
495,494,490,494,493
495,493,488,494,493
495,492,488,494,493
495,493,487,494,493
495,493,486,494,493
495,492,486,494,493
494,493,487,494,493
495,493,487,494,493
495,493,488,494,493
495,493,489,494,493
495,493,489,494,493
495,492,489,494,493
495,491,489,494,493
495,494,489,494,493
495,493,488,494,493
495,493,487,494,493
495,493,486,494,493
495,493,486,494,493
495,493,486,494,493
495,493,487,494,493
495,493,488,494,493
495,493,488,494,493
495,492,489,493,493
495,493,490,494,493
495,493,489,494,493
495,493,489,494,493
495,493,488,494,493
494,493,488,494,493
495,494,487,494,493
494,493,486,494,493
495,493,486,494,493
495,493,486,495,493
495,493,487,494,493
495,493,488,494,493
495,493,489,494,493
495,493,489,494,493
495,493,489,494,493
495,493,489,494,493
495,493,489,494,493
495,493,488,494,493
495,493,488,494,493
495,493,487,494,493
495,493,486,494,493
495,493,487,494,493
495,493,487,494,493
495,493,488,494,493
495,493,489,494,493
495,493,489,494,493
495,493,490,494,493
495,493,490,494,493
495,493,489,494,493
495,493,489,494,493
495,493,488,494,493
495,493,488,494,493
495,493,487,494,493
495,493,487,493,493
495,493,487,493,493
495,493,487,494,493
495,493,488,494,493
495,493,489,494,493
495,494,490,494,493
495,493,490,494,493
495,492,490,494,493
495,493,489,494,493
494,493,488,495,493
495,493,488,494,493
495,493,487,494,493
495,493,487,494,493
495,493,487,494,493
495,493,487,494,493
495,493,488,494,493
495,493,488,494,493
495,493,489,494,493
495,494,490,494,493
495,493,490,494,493
495,493,489,494,493
495,493,489,494,493
495,493,488,494,493
495,493,487,494,493
495,493,487,494,493
495,493,486,494,493
495,493,487,494,493
495,493,487,494,493
495,493,488,494,493
495,493,489,494,493
495,493,489,494,493
495,493,490,494,493
495,493,490,494,493
495,493,490,494,493
495,493,489,494,493
495,493,488,494,493
494,493,487,494,493
495,493,487,494,493
495,493,487,494,493
495,493,487,494,493
495,493,488,494,493
495,494,489,494,493
495,493,489,493,492
495,493,490,493,493
495,493,490,494,493
495,493,490,493,492
495,493,489,494,493
495,491,488,494,493
494,491,487,494,493
495,494,487,493,493
495,493,486,494,493
495,493,487,494,493
494,493,487,494,493
495,493,488,494,493
495,493,488,494,493
495,493,489,494,493
495,493,489,494,493
495,493,489,494,493
495,493,489,494,493
495,493,489,494,493
495,493,488,494,493
495,493,487,494,493
495,493,486,494,493
495,493,486,494,493
495,493,487,494,493
495,493,487,494,493
495,493,488,494,493
495,493,489,494,493
495,493,489,494,493
495,493,490,494,493
495,493,489,494,493
495,493,489,494,493
495,493,488,494,493
495,493,487,494,493
495,493,487,494,493
495,493,486,494,493
494,493,486,494,493
495,493,487,494,493
495,493,488,494,493
495,493,489,494,493
495,493,489,494,493
495,493,490,494,493
495,493,490,494,493
495,493,489,494,493
495,493,489,494,493
495,493,488,494,493
495,493,488,494,493
495,494,487,494,493
495,494,487,494,493
495,493,487,495,493
495,492,487,494,493
495,493,488,493,493
495,492,489,494,493
494,493,489,494,493
495,493,490,494,493
495,493,490,494,493
495,493,489,494,493
495,493,488,494,493
495,493,488,494,493
495,493,487,494,493
495,493,487,494,493
495,493,487,494,493
495,493,487,494,493
495,493,488,493,493
495,493,489,494,493
495,493,489,494,493
495,493,490,494,493
495,493,490,494,493
495,493,489,494,493
495,493,489,494,493
495,493,488,494,493
495,493,487,494,493
495,493,487,494,493
495,493,486,494,493
495,493,487,494,493
495,493,487,494,493
495,493,488,494,493
495,493,489,494,493
495,493,489,494,493
495,493,490,494,493
495,493,489,494,493
495,493,489,494,493
495,493,488,494,493
495,493,487,494,493
495,493,487,494,493
495,493,486,494,493
495,493,486,494,493
495,493,487,494,493
495,493,487,494,493
495,493,488,494,493
495,493,489,493,493
495,493,489,493,492
495,494,490,494,492
495,493,489,494,492
495,493,489,494,493
495,494,488,494,493
495,493,487,494,493
495,493,487,495,493
495,492,486,495,493
495,493,486,494,493
495,493,487,494,493
495,491,487,494,493
494,493,488,494,493
495,492,489,494,493
495,493,489,494,493
495,493,489,494,493
495,493,489,494,493
495,493,488,494,493
495,493,488,494,493
495,493,487,494,493
495,493,487,494,493
495,493,486,494,493
495,493,486,494,493
495,493,487,494,493
494,493,488,494,493
495,493,489,494,493
495,493,489,494,493
495,493,489,494,493
495,493,489,494,493
495,493,489,494,493
495,493,488,494,493
495,493,487,494,493
495,493,487,494,493
495,493,486,494,493
495,493,486,494,493
495,493,487,494,493
495,493,488,494,493
495,493,488,494,493
495,493,489,494,493
495,493,490,494,493
495,493,490,494,493
495,493,489,494,493
495,493,488,494,493
495,493,488,494,493
495,493,487,494,493
495,493,487,493,493
495,493,486,494,493
495,493,487,494,493
495,493,487,493,493
495,493,488,493,493
495,493,489,494,493
495,493,489,494,493
495,493,490,494,493
495,493,489,494,493
495,493,489,494,493
495,493,488,494,493
495,492,488,494,493
495,493,487,494,493
495,493,486,494,493
495,492,486,494,493
495,490,486,494,493
495,494,487,494,493
495,494,488,494,493
495,493,489,494,493
495,493,489,494,493
495,493,489,494,493
495,493,489,494,493
495,493,488,494,493
495,493,488,494,493
495,493,487,494,493
495,493,487,494,493
495,493,486,494,493
495,493,486,493,493
495,493,487,493,493
495,493,488,494,493
495,493,489,494,493
495,493,489,494,493
495,493,490,494,493
495,493,489,494,493
495,493,489,494,493
495,493,488,494,493
495,493,488,494,493
495,493,487,494,493
495,493,486,494,493
495,493,486,494,493
495,493,487,494,493
495,493,487,494,493
495,493,488,494,493
495,493,489,493,493
495,494,490,493,493
495,492,490,494,493
495,493,489,493,493
495,493,489,494,493
495,492,488,494,493
495,493,487,494,493
495,493,486,494,493
495,493,486,494,493
495,493,486,494,493
495,493,487,494,493
495,493,488,494,493
495,493,488,494,493
495,493,489,494,493
495,493,489,494,493
495,493,489,494,493
495,493,489,494,493
495,493,488,494,493
495,493,488,494,493
495,493,487,494,493
495,493,486,494,493
495,493,486,494,493
495,493,486,494,493
495,493,487,494,493
495,493,488,494,493
495,493,489,494,493
495,493,489,494,493
495,493,489,494,493
495,493,489,494,493
495,493,489,494,493
495,493,488,494,493
495,493,488,494,493
495,493,487,494,493
495,493,486,494,493
495,493,487,494,493
495,493,487,494,493
495,493,488,494,493
495,493,489,494,493
495,493,489,494,493
495,493,490,494,493
495,493,490,494,493
495,493,489,494,493
495,493,489,494,493
495,493,488,494,493
495,493,487,494,493
495,493,487,494,493
495,493,486,494,493
495,493,487,493,493
495,493,487,494,493
495,493,488,494,493
495,493,489,494,493
495,493,489,494,493
495,493,490,494,493
495,493,489,494,493
495,493,489,494,493
495,493,488,494,493
495,493,487,494,493
495,493,487,494,493
495,493,486,494,493
495,493,486,494,493
495,493,487,494,493
495,493,488,494,493
495,493,488,494,493
495,493,489,494,493
495,493,489,494,493
495,493,489,494,493
495,493,489,494,493
495,493,489,493,493
495,493,488,494,493
495,493,487,494,493
495,493,487,494,493
495,493,486,494,493
495,493,487,494,493
495,493,487,494,493
495,492,488,494,493
495,492,488,494,493
495,493,489,494,493
495,493,490,493,493
495,493,489,494,493
495,492,489,494,493
495,493,488,494,493
495,493,487,494,493
495,493,487,494,493
495,493,486,494,493
495,493,486,494,493
495,493,487,494,493
495,492,487,494,493
495,493,488,494,493
495,493,489,494,493
495,493,489,494,493
495,493,489,494,493
495,493,489,494,493
495,493,488,494,493
495,493,488,494,493
495,493,487,494,493
495,493,486,494,493
495,493,486,494,493
495,493,486,494,493
495,493,487,494,493
495,493,488,494,493
495,493,489,494,493
495,493,489,494,493
495,494,490,493,493
495,493,490,494,493
495,492,489,494,493
495,493,488,494,493
495,493,488,494,493
495,494,487,494,493
495,493,486,494,493
495,492,486,494,493
495,493,487,494,493
495,493,487,494,493
495,493,488,494,493
495,493,489,494,493
495,493,490,494,493
495,493,490,494,493
495,493,489,494,493
495,493,489,494,493
495,493,488,494,493
495,493,488,494,493
495,493,487,494,493
495,493,486,494,493
495,493,487,494,493
495,493,487,494,493
495,493,488,494,492
495,493,489,494,493
495,492,489,494,493
495,493,490,494,493
495,493,489,494,493
495,493,489,494,493
495,493,488,494,493
495,493,488,494,493
495,493,487,494,493
495,493,486,494,493
495,493,486,494,493
495,493,486,494,493
495,493,487,494,493
495,493,488,494,493
495,493,489,493,493
495,493,489,494,493
495,493,489,494,493
495,493,489,494,493
495,493,489,494,493
495,493,488,494,493
495,493,487,494,493
495,493,487,494,493
495,493,486,494,493
495,493,486,494,493
495,493,487,494,493
495,493,487,493,493
495,493,488,494,493
495,493,489,494,493
495,493,489,494,493
495,493,489,494,493
495,493,489,494,493
495,493,488,493,493
495,492,488,494,493
495,493,487,494,493
495,493,486,494,493
495,493,486,494,493
495,493,486,494,493
495,493,487,494,493
495,493,488,494,493
495,493,488,494,493
495,493,489,494,493
495,493,489,494,493
495,493,489,494,493
495,493,489,494,493
495,492,488,494,493
495,493,487,494,493
495,493,487,494,493
495,493,486,494,493
495,493,486,494,493
495,493,487,494,493
495,493,487,494,493
495,493,488,494,493
495,493,489,494,493
495,493,489,494,493
495,493,489,494,493
495,493,489,493,493
495,493,488,494,493
495,493,488,494,493
495,493,487,494,493
495,493,487,494,493
495,493,486,494,493
495,493,486,494,493
495,492,487,494,493
495,493,488,494,493
495,493,489,494,493
495,493,489,494,493
495,493,489,494,493
495,493,489,494,493
495,493,489,494,493
495,493,488,494,493
495,493,487,494,493
495,493,487,494,493
495,493,487,494,493
495,493,486,493,493
495,493,487,494,492
495,493,487,493,493
495,493,488,494,493
495,493,489,494,493
495,493,489,494,493
495,493,490,494,493
495,493,489,494,493
495,493,489,494,493
495,493,488,494,493
495,493,488,494,493
495,494,487,494,493
495,492,486,494,493
495,493,487,494,493
495,493,487,494,493
495,493,488,494,493
495,493,489,494,493
495,493,489,494,493
495,493,490,494,493
495,493,489,494,493
495,493,489,494,493
495,493,489,494,493
495,493,488,494,493
495,493,487,494,493
495,492,486,494,493
495,494,487,493,493
495,492,487,494,493
495,493,487,494,493
495,493,488,494,493
495,493,489,494,493
495,493,489,494,493
495,492,489,494,492
495,490,488,494,493
495,495,489,494,493
495,494,488,493,493
495,493,487,494,493
495,493,487,495,493
495,493,486,494,493
495,493,486,494,493
495,493,487,494,493
495,493,488,494,493
495,493,488,494,493
495,493,489,494,493
495,493,489,494,493
495,493,489,494,493
495,493,489,494,493
495,493,489,494,493
495,493,488,494,493
495,493,487,494,493
495,493,487,494,493
495,493,486,494,493
495,493,487,494,493
495,493,487,494,493
495,493,488,494,493
495,493,489,494,493
495,493,489,494,493
495,493,490,494,493
495,493,489,494,493
495,493,489,494,493
495,493,488,494,493
495,493,488,494,493
495,493,487,494,493
495,493,487,494,493
495,493,487,494,493
495,493,487,494,493
495,493,488,494,493
495,493,489,494,493
495,493,489,494,493
495,493,490,494,493
495,493,490,494,493
495,493,489,494,493
495,493,489,494,493
495,493,488,494,493
495,493,487,494,493
495,493,487,494,493
495,493,487,494,493
495,493,487,494,493
495,493,487,494,493
495,493,488,494,493
495,493,489,494,493
495,493,489,494,493
495,493,490,494,493
495,493,489,494,493
495,493,489,494,493
495,493,488,494,493
495,493,488,494,493
495,492,487,494,493
495,493,486,494,493
495,493,486,494,493
495,493,487,494,493
495,493,487,494,492
495,493,488,494,493
495,493,489,494,493
495,493,489,494,493
495,493,490,494,493
495,493,489,494,493
495,493,489,494,493
495,493,488,494,493
495,493,487,494,493
495,493,487,494,493
495,494,487,493,493
496,495,487,494,493
495,493,487,494,493
495,492,488,494,493
495,493,489,494,493
495,493,489,494,493
495,493,490,494,493
495,493,489,494,493
495,492,489,494,493
495,493,488,494,493
495,493,488,494,493
495,492,487,494,493
495,492,486,494,493
495,492,486,494,493
495,494,487,494,493
495,493,487,494,493
495,493,488,494,493
495,493,489,494,493
495,493,489,494,493
495,493,490,494,493
495,493,489,494,493
495,493,489,494,493
495,493,488,494,493
495,493,488,494,493
495,493,487,494,493
495,493,486,494,493
495,493,486,494,493
495,493,487,494,493
495,493,488,494,493
495,493,489,494,493
495,493,489,494,493
495,493,490,494,493
495,493,489,494,493
495,492,489,494,493
495,493,489,494,493
495,493,488,494,493
495,493,487,494,493
495,493,487,494,493
495,493,486,494,493
495,493,487,494,493
495,493,487,494,493
495,493,488,494,492
495,493,489,494,493
495,493,489,494,493
495,493,490,494,493
495,493,489,494,492
495,493,489,494,493
495,493,488,494,493
495,493,488,494,493
495,493,487,494,493
495,493,487,494,493
495,493,487,494,493
495,493,487,494,493
495,493,488,494,493
495,493,488,494,493
495,493,489,494,493
495,493,490,494,493
495,493,490,494,493
495,493,489,494,493
495,493,489,494,493
495,493,488,494,493
495,493,488,494,493
495,493,487,494,493
495,493,487,494,493
495,493,487,494,493
495,493,487,494,493
495,493,488,494,493
495,493,489,494,493
495,493,489,494,493
495,493,490,494,493
495,493,489,494,493
495,493,489,494,493
495,493,488,494,493
495,493,488,494,493
495,493,487,494,493
495,493,486,494,493
495,493,486,494,493
495,493,487,494,493
495,493,487,494,493
495,493,488,494,493
495,493,489,494,493
495,493,489,494,493
495,493,489,494,493
495,493,489,494,493
495,493,489,494,493
495,493,488,494,493
495,493,487,494,493
495,493,487,494,493
495,493,486,494,493
495,493,486,494,493
495,493,487,494,493
495,493,488,494,493
495,493,488,494,493
495,493,489,494,493
495,493,489,494,493
495,493,489,494,492
495,493,489,494,492
495,493,488,494,493
495,493,488,494,493
495,493,487,494,493
495,493,486,494,493
495,493,486,494,493
495,493,486,494,493
495,493,487,494,493
495,493,488,494,493
495,493,489,494,493
495,493,489,494,493
495,493,489,494,493
495,493,489,494,492
495,493,489,493,493
495,493,488,494,493
495,493,487,494,493
495,493,487,495,493
495,493,486,494,493
495,493,486,494,493
495,493,487,494,493
495,493,488,494,493
495,493,488,494,493
495,493,489,494,493
495,493,489,494,493
495,493,489,494,493
495,493,489,494,493
495,494,489,494,493
495,493,488,494,493
495,492,487,494,493
495,492,486,494,493
495,493,486,494,493
495,493,486,494,493
495,493,487,494,493
495,493,488,494,493
495,493,489,494,493
495,493,489,494,493
495,493,489,494,493
495,493,489,494,493
495,493,489,494,492
495,493,488,494,493
495,493,487,494,493
495,493,487,494,493
495,493,486,494,493
495,493,486,494,493
495,493,487,494,493
495,493,487,494,493
495,493,488,494,493
495,493,489,494,493
495,493,489,494,493
495,493,489,494,493
495,493,489,494,493
495,493,488,494,493
495,493,488,494,493
495,493,487,494,492
495,493,486,494,492
495,493,486,494,493
495,493,486,494,493
495,493,487,494,493
495,493,488,494,493
495,493,488,494,493
495,493,489,494,493
495,493,489,494,493
495,493,489,494,493
495,493,489,494,493
495,493,488,494,493
495,493,487,494,493
495,493,487,494,493
495,493,486,494,493
495,494,486,494,493
495,493,487,494,493
495,493,487,494,493
495,493,488,495,493
495,493,489,494,493
495,493,489,494,493
495,493,490,494,493
495,493,489,494,493
495,493,489,494,493
495,493,488,494,493
495,493,487,494,493
495,493,487,494,493
495,493,486,494,493
495,493,487,494,493
495,493,487,494,493
495,493,488,494,493
495,493,489,494,493
495,493,489,494,493
495,493,489,494,493
495,493,490,494,493
495,493,489,494,493
495,493,489,494,493
495,493,488,494,493
495,493,487,494,493
495,493,487,494,493
495,493,487,494,493
495,493,487,494,493
495,493,488,494,493
495,493,488,494,493
495,493,489,494,492
495,493,490,494,492
495,493,490,494,493
495,493,490,494,493
495,493,489,494,493
495,493,488,494,492
495,493,488,494,493
495,493,487,494,493
495,493,487,494,492
495,493,487,494,493
495,493,487,494,493
495,493,488,494,492
495,493,489,494,493
495,493,489,494,492
495,493,490,494,493
495,493,490,494,493
495,493,489,494,493
495,493,489,494,492
495,493,488,494,492
495,493,487,494,492
495,493,487,494,493
495,493,486,494,493
495,493,487,494,617
572,540,486,507,493
500,501,483,495,488
497,498,485,495,488
497,496,486,495,489
498,499,489,496,490
498,499,489,496,491
498,498,489,496,491
498,498,489,496,491
498,498,489,496,491
498,498,489,497,492
499,498,489,497,491
498,497,489,497,492
498,497,490,497,492
498,497,491,497,492
498,497,492,497,492
498,497,492,497,493
498,497,493,497,493
498,497,493,498,493
498,497,492,498,493
498,497,492,497,493
498,497,491,497,493
498,496,490,497,493
498,496,490,497,493
498,496,490,497,493
498,496,490,497,493
498,497,491,497,493
498,497,492,497,493
498,496,493,497,493
498,496,493,497,493
498,496,494,497,493
498,496,493,498,493
498,496,493,497,493
498,496,492,497,493
498,496,491,498,493
498,496,490,497,493
498,496,490,497,493
498,496,489,497,493
498,496,490,497,493
498,496,490,497,493
498,496,491,497,493
497,496,492,497,493
498,495,492,497,493
498,496,492,497,493
498,496,492,497,493
498,496,491,497,493
498,496,490,498,493
498,495,490,497,493
497,496,489,497,493
497,496,489,497,493
498,495,489,497,493
498,495,489,497,493
497,495,490,497,493
497,495,491,497,493
497,495,491,497,493
497,495,491,497,493
497,495,491,497,493
497,495,491,497,493
497,495,490,497,493
498,495,489,497,493
497,495,489,497,493
497,495,488,497,493
495,492,488,497,493
497,495,489,500,495
498,495,489,497,493
496,494,489,497,493
495,491,490,503,495
499,495,490,499,495
498,495,490,496,492
493,490,489,491,503
498,501,491,499,495
494,491,488,491,489
493,491,488,493,491
495,492,487,495,492
495,493,487,495,522
516,500,486,493,488
492,491,486,493,491
494,492,488,494,499
513,497,488,493,490
494,496,493,506,493
494,491,490,492,490
502,508,492,504,497
499,493,489,491,497
502,497,488,500,496
499,495,488,497,493
497,495,487,497,493
497,495,487,497,493
497,495,487,497,493
497,495,487,497,493
496,495,488,497,493
497,494,489,497,493
497,495,490,497,493
497,495,490,497,493
497,495,490,497,493
497,495,490,497,493
497,495,490,496,493
497,494,489,497,493
497,495,488,497,494
497,495,488,497,493
497,494,487,497,493
497,495,487,497,494
497,495,487,496,493
497,494,488,496,493
497,495,489,497,494
497,495,490,497,494
497,495,490,497,493
497,495,490,497,493
497,495,490,497,494
497,494,489,497,493
497,494,489,497,493
497,494,488,497,494
497,494,487,497,494
497,494,487,497,494
497,494,487,497,493
497,494,488,497,493
497,495,489,497,493
497,495,490,497,493
497,495,490,497,493
497,495,490,497,493
496,494,490,497,493
496,494,489,497,493
497,495,489,497,493
497,494,488,497,493
496,494,487,497,493
496,494,487,497,493
497,494,487,497,493
497,494,488,497,493
497,494,488,497,493
496,494,489,497,494
497,494,490,497,493
496,494,491,497,493
497,494,491,497,494
496,494,490,496,493
496,494,490,496,493
496,494,489,496,494
497,494,488,497,494
497,494,487,497,493
496,494,487,496,493
496,494,487,497,493
497,494,487,496,493
496,494,488,496,493
496,494,489,496,493
496,494,490,496,493
496,494,490,497,494
497,494,490,497,494
497,494,490,497,494
496,494,489,497,494
496,494,488,496,493
497,494,488,496,493
496,494,487,497,493
496,494,487,497,494
497,494,488,497,494
497,494,488,496,494
496,495,489,496,494
496,494,489,496,494
497,494,490,497,493
496,494,490,496,493
496,494,490,496,493
496,494,489,496,494
496,495,488,496,494
496,494,487,496,494
496,494,487,497,493
496,494,487,496,493
496,494,487,496,493
496,494,487,496,494
496,494,488,496,494
496,494,489,496,493
496,494,490,496,493
496,494,490,496,493
496,494,490,496,493
496,494,490,497,494
496,494,489,496,494
496,494,488,496,494
496,494,488,496,493
496,494,487,496,493
496,494,487,496,493
496,494,487,496,493
496,494,488,496,494
496,494,489,496,494
496,494,489,496,493
496,493,490,496,493
496,494,490,497,493
496,494,490,496,493
496,494,489,496,494
496,494,489,496,494
496,494,488,496,494
496,494,487,496,494
496,494,487,496,493
496,494,487,496,493
496,494,487,496,494
496,494,488,496,493
496,494,489,496,493
496,494,489,496,494
496,494,490,496,494
496,494,490,496,493
496,494,489,496,493
496,494,489,496,494
496,494,488,496,493
496,494,487,496,493
496,494,487,496,493
496,494,487,496,493
496,494,487,496,493
496,494,487,496,494
496,494,488,496,494
496,494,489,496,494
496,494,489,496,494
496,494,490,496,494
496,494,489,496,494
496,494,489,496,494
496,494,488,496,494
496,494,488,496,493
496,494,487,496,493
496,494,487,496,493
496,494,487,496,493
496,494,487,496,494
496,494,488,496,494
496,494,488,496,494
496,494,489,496,494
496,494,490,496,494
496,494,490,496,494
496,494,489,496,494
496,494,489,496,494
496,494,488,496,494
496,494,487,496,494
496,494,486,496,494
496,494,486,496,493
496,494,486,496,494
496,494,487,496,494
496,494,487,496,494
496,494,488,496,494
496,494,489,496,493
496,494,489,496,493
496,494,489,496,494
496,494,489,496,494
496,494,488,496,494
496,494,488,496,494
496,494,487,496,494
496,494,487,496,494
496,494,487,496,494
496,494,487,496,494
496,493,488,496,494
496,493,489,496,494
496,494,489,496,494
496,494,490,496,494
496,494,490,496,494
496,494,489,496,494
496,494,489,496,494
496,494,488,496,494
496,494,487,496,494
496,494,487,496,493
496,494,487,496,493
496,494,487,496,494
496,494,487,496,493
496,494,488,496,494
496,494,489,496,494
496,494,490,496,494
496,494,490,496,494
496,494,490,496,494
496,494,489,496,494
496,494,489,495,493
496,494,488,496,494
496,494,487,496,494
496,494,487,496,494
496,494,487,496,494
496,494,487,496,493
496,494,488,496,493
496,494,488,495,493
496,494,489,496,494
496,494,489,496,494
496,494,490,496,494
496,494,489,496,494
496,493,489,495,494
496,494,488,495,493
495,494,487,496,493
496,493,487,495,494
496,493,486,496,494
496,493,486,495,494
496,494,487,496,494
496,493,487,496,494
496,494,488,495,494
496,493,489,495,494
496,494,489,495,494
496,494,489,496,494
496,494,489,496,494
496,494,488,496,494
496,494,487,496,494
496,493,487,495,493
496,494,486,495,493
496,494,486,496,494
496,493,486,495,494
496,494,487,496,494
496,494,488,496,494
496,494,489,496,494
496,494,489,495,494
496,493,489,495,494
496,494,489,496,494
495,493,489,495,494
495,493,488,496,493
495,493,487,496,493
496,494,487,495,494
496,493,486,495,494
495,494,486,495,494
495,493,486,495,494
495,493,487,496,494
496,493,488,496,494
496,494,489,496,494
495,494,489,495,494
495,493,489,496,494
496,493,489,496,494
496,494,488,496,493
496,493,488,496,494
496,494,487,496,494
496,494,487,495,494
496,494,486,495,494
496,494,487,495,494
495,494,487,496,494
495,493,488,496,494
496,493,489,495,494
496,493,489,495,494
496,493,489,496,494
495,493,489,496,494
496,493,489,496,494
496,493,488,496,494
496,494,487,495,494
496,493,487,496,494
496,493,486,495,494
496,493,486,495,494
496,493,487,496,494
496,493,487,495,494
496,493,488,496,494
496,494,489,496,494
495,493,489,496,494
496,493,490,495,493
495,493,489,495,494
496,493,489,495,494
495,493,488,495,494
496,493,487,495,494
496,494,487,495,494
496,493,487,496,494
495,493,487,495,494
495,493,487,495,494
496,493,488,496,494
496,493,489,495,494
496,493,489,495,494
496,493,490,495,494
495,493,489,495,494
496,493,489,495,494
496,493,488,495,494
495,493,488,495,494
495,493,487,495,494
496,493,487,495,494
496,493,486,495,494
496,493,487,495,494
496,494,487,495,494
496,493,488,495,494
495,493,489,495,494
496,493,489,495,494
495,493,489,495,494
496,493,489,496,494
495,493,489,495,494
495,493,488,495,494
496,493,487,495,494
495,493,487,495,494
495,493,486,495,494
496,493,487,495,494
496,493,487,495,494
496,493,488,495,494
495,493,489,495,494
495,493,489,495,494
495,493,489,495,494
495,493,489,495,494
496,493,489,495,494
495,493,488,495,494
495,493,488,495,494
496,493,487,495,494
495,493,486,495,494
495,493,486,495,494
495,493,487,495,494
495,493,487,495,494
495,493,488,495,494
495,493,489,495,494
495,493,489,495,494
496,493,490,495,494
495,493,489,495,494
495,493,489,495,494
495,493,488,495,494
496,493,488,495,494
495,493,487,495,494
495,493,487,495,493
496,493,487,495,494
496,493,487,495,493
496,493,488,495,494
495,493,489,495,494
495,493,489,495,494
496,494,490,495,494
495,493,490,495,494
496,493,489,495,494
495,493,489,495,494
495,493,488,495,494
495,493,487,495,494
495,493,487,495,493
495,493,486,495,494
496,493,487,495,494
495,493,487,495,493
495,493,488,495,493
495,493,489,495,494
495,493,489,495,494
495,493,490,495,494
496,493,489,495,494
495,493,489,495,494
495,493,488,495,494
495,493,488,495,494
495,493,487,495,494
495,493,486,494,494
495,493,486,494,494
495,493,487,495,494
495,493,487,495,494
495,493,488,495,494
495,493,489,495,494
495,493,489,495,494
495,493,489,495,494
495,493,489,495,494
495,493,488,494,494
495,493,488,495,494
495,493,487,495,494
495,493,486,495,494
495,493,486,495,494
495,493,486,495,494
495,493,487,494,494
495,493,487,494,494
495,493,488,495,494
495,493,489,495,494
495,493,489,495,494
495,493,489,495,494
495,493,489,495,494
495,493,488,495,494
495,493,487,495,494
495,493,487,495,494
495,493,486,495,494
495,493,486,495,494
495,493,487,495,494
495,493,487,495,494
495,494,488,495,494
495,493,489,495,494
495,493,489,495,494
495,493,489,495,494
495,493,489,495,494
495,493,489,495,494
495,493,488,495,494
495,493,487,495,494
495,493,486,495,494
495,493,486,495,494
495,493,486,495,494
495,493,487,495,494
495,493,488,494,494
495,493,488,495,493
495,493,489,495,494
495,493,489,495,494
495,493,489,495,494
495,493,489,495,494
495,493,488,495,494
495,494,488,495,494
496,494,487,495,494
495,493,487,495,494
495,493,486,495,494
495,493,487,495,494
495,494,487,495,494
495,493,488,495,494
495,493,489,495,494
495,493,490,495,494
495,494,490,495,494
495,494,490,495,494
495,493,489,495,494
495,493,488,495,494
495,493,488,495,494
495,493,487,495,494
495,494,487,495,494
495,493,487,495,494
495,493,487,495,494
495,493,488,495,494
495,493,489,495,494
495,493,490,495,494
495,493,490,495,494
495,493,490,495,494
495,493,490,495,494
495,493,489,495,494
495,493,488,495,494
495,493,488,495,494
495,493,487,495,494
495,493,487,495,494
495,493,487,495,494
495,493,488,495,494
496,493,488,495,494
496,493,489,495,494
495,493,490,495,494
495,493,490,495,494
495,493,490,495,494
495,493,489,495,494
495,493,488,495,494
495,493,488,495,494
495,493,487,495,494
495,493,487,495,494
495,493,487,495,494
495,493,487,495,494
495,493,488,494,494
495,493,489,494,494
496,493,489,494,494
495,493,490,495,494
495,493,490,495,494
495,493,489,495,494
495,493,489,495,494
495,493,488,495,494
495,493,487,495,494
495,493,487,495,494
495,493,487,495,494
495,493,487,495,494
495,493,487,494,494
495,493,488,495,494
495,493,489,495,494
495,493,489,495,494
495,493,490,495,494
495,493,489,495,494
495,493,489,495,494
495,493,488,495,494
495,493,488,495,494
495,493,487,494,494
495,493,486,495,494
495,493,486,494,494
495,493,487,495,494
495,493,487,495,494
495,493,488,495,494
495,493,489,495,494
495,493,489,495,494
495,493,489,495,494
495,493,489,495,494
495,493,489,495,494
495,493,488,494,494
495,493,487,494,494
495,493,487,495,494
495,493,486,495,494
495,493,487,495,494
495,493,487,495,494
495,493,488,495,494
495,493,489,495,494
495,493,489,495,494
495,493,490,495,494
495,493,489,495,494
495,493,489,495,494
495,493,488,495,494
495,493,488,495,494
495,493,487,495,494
495,493,487,494,494
495,493,486,494,494
495,493,487,495,494
495,493,487,495,494
495,493,488,495,494
495,493,489,494,494
495,493,489,495,494
495,493,489,495,494
495,493,489,495,494
495,493,489,494,494
495,493,488,494,494
495,493,487,495,494
495,493,487,495,495
495,493,486,495,494
495,493,486,495,494
495,493,487,495,494
495,493,488,494,494
495,493,488,495,494
495,493,489,495,494
495,493,489,495,494
495,493,489,495,494
495,493,489,495,494
495,493,489,495,494
495,493,488,495,494
495,493,487,495,495
495,493,487,495,494
495,493,487,495,494
495,493,487,494,494
495,493,487,495,494
495,493,488,494,494
495,493,489,495,494
495,493,489,494,494
495,493,490,494,494
495,493,489,495,494
495,493,489,495,494
495,493,488,495,494
495,493,488,495,494
495,493,487,495,495
495,493,486,494,494
495,493,486,494,494
495,493,487,494,494
495,493,487,494,494
495,493,488,495,494
495,493,489,495,494
495,493,489,495,494
495,493,489,495,494
495,493,489,494,495
495,493,488,494,494
495,493,488,494,494
495,493,487,495,494
495,493,487,494,494
495,493,486,495,494
495,493,486,495,494
495,493,487,494,494
495,493,488,495,494
495,493,489,495,494
495,493,489,495,494
495,493,489,495,494
495,493,489,495,494
495,493,489,494,494
495,493,488,495,494
495,493,487,495,494
495,493,487,495,494
495,493,486,494,494
495,493,486,495,494
495,493,487,495,494
495,493,487,494,494
495,493,488,494,494
495,493,489,495,494
495,493,489,495,495
495,493,490,495,494
495,493,489,495,494
495,493,489,495,494
495,493,488,495,494
495,493,487,495,494
495,493,487,495,494
495,493,487,495,494
495,493,487,495,494
495,493,487,495,494
495,493,488,495,494
495,493,489,495,494
495,493,489,495,494
495,493,489,494,494
495,493,489,495,494
495,493,489,495,494
495,493,488,494,494
495,493,488,495,494
495,493,487,495,494
495,493,486,495,494
495,493,486,495,494
495,493,487,495,494
495,493,487,495,494
495,493,488,495,494
495,493,489,495,494
495,493,489,495,494
495,493,489,495,494
495,493,489,495,494
495,493,489,495,494
495,493,488,495,494
495,493,487,495,494
495,493,487,494,494
495,493,486,494,494
495,493,486,495,494
495,493,487,495,494
495,493,488,495,494
495,493,489,495,494
495,493,489,495,494
495,493,489,495,494
495,493,489,495,494
495,493,489,495,494
495,493,488,495,494
495,493,488,495,494
495,493,487,495,494
495,493,487,494,494
495,493,486,495,494
495,493,487,495,494
495,493,487,495,494
495,493,488,494,494
495,493,489,495,494
495,493,489,494,494
495,493,489,494,494
495,493,489,495,494
495,493,489,495,494
495,493,488,495,494
495,493,488,494,494
495,493,487,494,494
495,493,487,494,494
495,493,486,495,494
495,493,487,495,494
495,493,488,495,494
495,493,488,495,494
495,493,489,495,494
495,493,489,495,494
495,493,489,495,494
495,493,489,495,494
495,493,489,495,494
495,493,488,495,494
495,493,487,495,495
495,493,487,495,494
495,493,487,495,494
495,493,487,495,494
495,493,487,495,494
495,493,488,495,494
495,493,489,495,494
495,493,489,495,494
495,493,489,495,494
495,493,489,495,494
495,493,489,495,494
495,493,488,495,494
495,493,487,495,494
495,493,487,495,494
495,493,486,495,494
495,493,486,495,494
495,493,487,495,494
495,493,487,495,494
495,493,488,495,494
495,493,489,495,494
495,493,489,495,494
495,493,489,495,494
495,493,489,495,494
495,493,489,495,494
495,493,488,495,494
495,493,487,495,494
495,493,487,495,494
495,493,486,495,494
495,493,487,495,494
495,493,487,495,494
495,493,488,495,494
495,493,489,495,494
495,493,489,495,494
495,493,489,495,494
495,493,489,495,494
495,493,489,495,494
495,493,488,495,494
495,493,488,495,494
495,493,487,495,494
495,493,487,495,494
495,493,486,495,494
495,493,487,495,494
495,493,487,495,494
495,493,488,495,494
495,493,489,495,494
495,493,489,495,494
495,493,489,494,494
495,493,489,495,494
495,493,489,495,495
495,493,488,495,494
495,493,487,495,494
495,493,487,495,494
495,493,486,495,494
495,493,486,495,494
495,493,487,495,494
495,493,488,495,494
495,493,488,495,494
495,493,489,495,494
495,493,489,495,494
495,493,489,495,494
495,493,489,495,494
495,493,488,495,494
495,493,488,495,494
495,493,487,495,494
495,493,486,495,494
495,493,486,495,494
495,493,487,495,494
495,493,487,495,494
495,493,488,495,494
495,493,489,495,494
495,493,489,495,494
495,493,489,495,494
495,493,489,495,494
495,493,489,495,494
495,493,488,495,494
495,493,487,495,494
495,493,487,495,494
495,493,486,495,494
495,493,486,495,494
495,493,487,495,494
495,493,487,495,494
495,493,488,495,494
495,493,489,495,494
495,493,489,495,494
495,493,489,495,494
495,493,489,495,494
495,493,488,495,494
495,493,488,495,494
495,493,487,495,494
495,493,487,495,494
495,493,486,495,494
495,493,486,495,494
495,493,487,495,494
495,493,488,495,494
495,493,488,495,494
495,493,489,495,494
495,493,489,495,494
495,493,489,495,494
495,493,489,495,494
496,493,488,495,494
495,493,487,495,494
495,493,487,495,494
495,493,486,495,494
495,493,486,495,494
495,493,486,495,494
495,493,487,495,494
495,493,488,495,494
495,493,489,495,494
495,493,489,495,494
495,493,489,495,495
495,493,489,495,495
495,493,488,495,494
495,493,488,495,494
496,493,487,495,494
496,493,486,495,494
495,493,486,495,494
495,493,486,495,494
495,494,487,495,494
495,493,488,495,494
495,493,488,495,494
495,493,489,495,494
495,493,489,495,494
495,493,489,495,494
495,493,489,495,494
495,493,488,495,494
495,493,487,495,494
495,493,487,495,495
495,493,486,495,494
495,493,486,495,494
495,493,486,495,494
495,493,487,495,494
495,493,488,495,494
495,493,489,495,494
495,493,489,495,494
495,493,489,495,494
495,493,489,495,494
495,493,489,495,494
495,493,488,495,494
495,493,487,495,494
495,493,487,495,495
495,493,486,495,495
495,493,487,495,494
495,493,487,495,494
495,493,488,495,494
495,493,488,495,494
495,493,489,494,494
495,493,489,495,495
495,493,489,494,494
495,493,489,495,494
495,493,488,494,494
495,493,488,495,494
495,493,487,495,495
495,493,486,494,495
495,493,486,494,495
495,493,486,495,495
495,493,487,494,494
495,493,488,494,494
495,493,489,494,495
495,493,489,495,495
495,493,489,495,495
495,493,489,494,495
495,493,489,494,495
495,493,488,495,495
495,493,487,495,495
495,493,487,494,495
495,493,486,495,494
495,493,486,494,495
495,493,487,494,494
495,493,487,494,495
495,494,488,494,494
495,493,489,494,495
495,493,489,495,494
495,493,489,495,495
495,493,489,495,495
495,493,488,495,495
495,493,488,495,495
495,493,487,494,495
495,493,487,495,495
495,493,486,495,495
495,493,486,495,495
495,493,487,495,495
495,493,488,495,495
495,493,489,494,495
495,493,489,495,495
495,493,489,495,495
495,493,489,495,495
495,493,489,494,495
495,493,488,494,494
495,493,487,495,494
495,493,487,494,495
495,493,486,494,496
495,493,486,494,495
495,493,487,495,494
495,493,487,495,495
495,493,488,495,495
495,493,489,495,495
495,493,489,495,495
495,493,489,495,495
495,493,489,495,495
495,493,488,494,495
495,493,488,495,495
495,493,487,495,495
495,493,487,495,495
495,493,486,494,495
495,493,486,495,495
495,493,487,495,495
495,493,488,495,495
495,493,488,494,495
495,493,489,494,495
495,493,489,495,495
495,493,489,495,495
495,493,489,494,495
495,493,488,494,495
495,493,487,494,495
495,493,487,494,495
495,493,486,495,495
495,493,486,494,495
495,493,487,494,495
495,493,488,495,495
495,493,488,495,495
495,493,489,494,495
495,493,489,494,495
495,493,489,494,495
495,493,489,494,495
495,493,488,494,495
495,493,488,495,495
495,493,487,495,495
495,493,487,494,495
495,493,486,495,495
495,493,486,495,495
495,493,487,494,495
495,493,488,494,495
495,493,489,494,495
495,493,489,494,495
495,493,489,495,495
495,493,489,495,495
495,493,489,494,495
495,493,488,494,495
495,493,488,495,495
495,493,487,494,495
495,493,487,494,495
495,493,486,494,495
495,493,487,495,495
495,493,487,494,495
495,493,488,494,495
495,493,489,494,495
495,493,489,494,495
495,493,489,494,495
495,493,489,494,495
495,493,489,495,495
495,493,488,494,495
495,493,487,495,495
495,493,487,495,495
495,493,486,494,495
495,493,487,494,495
495,493,487,495,495
495,493,488,495,495
495,493,489,495,495
495,493,489,495,495
495,493,489,494,495
495,493,489,495,495
495,493,489,495,495
495,493,489,494,495
495,493,488,495,495
495,493,487,495,495
495,493,486,495,495
495,493,486,495,495
495,493,487,495,495
496,493,487,494,495
495,493,488,494,495
495,493,489,495,495
495,493,489,495,495
495,493,489,495,495
495,493,489,494,495
495,493,489,494,495
495,493,488,494,495
495,493,487,494,495
496,493,487,494,495
495,493,486,495,495
495,493,486,494,495
495,493,487,495,495
495,493,487,495,495
495,493,488,494,495
495,493,489,494,495
495,493,489,494,495
495,493,489,494,495
495,493,489,494,495
495,493,488,494,495
495,493,488,494,495
495,493,487,495,495
495,493,486,494,495
495,493,486,494,495
495,493,486,495,495
495,493,487,495,495
495,493,488,494,495
495,493,489,494,495
495,493,489,494,495
495,493,489,495,495
495,493,489,494,495
495,493,489,494,495
495,493,488,494,495
495,493,487,495,495
495,493,487,495,495
495,493,486,494,495
495,493,486,495,495
495,493,486,495,495
495,493,487,494,495
495,493,488,494,495
495,493,488,494,495
495,493,489,494,495
495,493,489,494,495
495,493,489,494,495
495,493,488,494,495
495,493,487,495,496
495,492,487,494,495
495,492,486,495,495
495,492,486,494,495
495,493,486,494,495
495,494,487,494,495
495,493,487,494,495
495,493,488,494,495
495,493,489,494,495
495,493,489,494,495
495,493,489,494,495
495,493,488,494,495
495,493,488,494,495
495,493,487,494,495
495,493,486,494,495
495,493,486,494,495
495,493,486,494,495
495,493,486,494,495
495,493,487,494,495
495,493,488,494,495
495,493,488,494,495
495,493,489,494,495
495,493,489,495,495
495,493,489,494,495
495,493,488,494,495
495,493,488,495,495
495,493,487,494,495
495,493,486,494,495
495,493,486,494,495
495,493,486,494,495
495,493,486,494,496
495,493,487,494,495
495,493,488,494,495
495,493,489,494,495
495,493,489,494,495
495,493,489,495,495
495,493,489,494,495
495,493,488,495,495
495,493,487,494,495
495,493,487,494,495
495,493,486,494,495
495,493,486,494,495
495,493,486,494,495
495,493,487,494,495
495,493,488,494,495
495,493,489,494,495
495,493,489,494,495
495,493,490,494,495
495,493,489,494,495
495,493,489,494,495
495,493,488,495,495
495,493,488,494,495
495,493,487,494,495
495,493,487,495,495
495,493,487,494,495
495,493,487,494,495
495,493,488,494,495
495,493,489,494,495
495,493,489,494,495
495,494,490,494,495
495,493,490,494,495
495,493,489,495,495
495,493,489,495,495
495,493,488,494,495
495,493,487,495,495
495,493,487,494,495
495,493,487,494,495
495,493,487,494,495
495,493,487,494,495
495,493,488,494,495
495,493,489,494,495
495,493,489,494,495
495,493,490,494,495
495,493,489,494,495
495,493,489,494,495
495,493,488,494,495
495,493,487,494,495
495,493,487,494,495
495,493,487,494,495
495,493,487,494,495
495,493,487,494,495
495,493,488,494,495
495,493,488,494,495
495,493,489,495,495
495,493,489,494,495
495,493,489,494,495
495,493,489,494,495
495,493,489,495,495
495,493,488,494,495
495,493,487,494,495
495,493,487,494,495
495,493,486,494,495
495,493,486,494,495
495,493,487,494,495
495,493,488,494,495
495,493,488,495,495
495,493,489,494,495
495,493,489,494,495
495,493,489,494,495
495,493,489,494,495
495,493,488,495,495
495,493,487,494,495
495,493,487,494,495
495,493,486,495,495
495,493,486,495,495
495,493,486,495,495
495,493,487,494,495
495,493,488,495,495
495,493,489,495,495
495,493,489,495,495
495,493,489,494,495
495,493,489,494,495
495,493,488,495,495
495,493,488,495,495
495,493,487,495,495
495,493,486,494,495
495,493,486,494,495
495,493,486,494,495
495,493,486,494,495
495,493,487,494,495
495,493,488,495,495
495,493,489,495,495
495,493,489,495,495
495,493,489,495,495
495,492,489,495,495
495,493,488,495,495
495,493,487,495,495
495,493,487,495,495
495,493,486,495,495
495,493,486,494,495
495,493,486,494,495
495,493,487,494,495
495,493,488,495,495
495,493,488,495,495
495,493,489,494,495
495,493,489,494,495
495,493,489,495,495
495,493,489,494,495
495,493,488,494,495
495,493,487,494,495
495,493,487,494,495
495,493,486,495,495
495,493,486,494,495
495,493,487,494,495
495,493,487,494,495
495,493,488,494,495
495,493,489,494,495
495,493,489,495,495
495,493,489,494,495
495,493,489,494,495
495,493,488,494,495
495,493,488,495,495
495,493,487,495,495
495,493,486,494,495
495,493,486,495,495
495,493,486,495,495
495,493,487,495,495
495,493,488,495,495
495,493,489,494,495
495,493,489,494,495
495,493,489,494,495
495,493,489,494,495
495,493,489,495,494
495,493,488,494,494
495,493,487,495,495
495,493,487,495,495
495,493,486,495,495
495,493,486,495,495
495,493,487,495,495
495,493,487,494,495
495,493,488,494,495
495,493,489,494,495
495,493,489,494,495
495,493,489,494,495
495,493,489,494,495
495,493,488,495,495
495,493,488,494,495
495,493,487,494,495
495,493,487,495,495
495,493,486,495,495
495,493,486,495,495
495,493,487,494,495
495,493,488,494,495
495,493,489,494,494
495,493,489,494,495
495,493,489,494,495
495,493,489,495,495
495,493,489,494,495
495,493,488,494,495
495,493,488,494,495
495,493,487,494,495
495,493,487,494,495
495,493,487,494,495
495,493,487,494,495
495,493,488,494,495
495,493,489,494,495
495,493,489,494,495
495,493,490,494,495
495,493,490,494,495
495,493,489,494,495
495,493,489,495,495
495,493,488,494,495
496,493,488,495,495
495,493,487,494,495
495,493,486,494,495
496,493,487,494,495
495,493,487,494,495
495,494,488,494,495
495,493,489,494,495
495,493,489,494,495
495,493,490,494,495
495,493,490,494,495
495,493,489,494,495
495,493,489,494,495
495,493,488,494,495
495,493,488,494,495
495,493,487,494,495
495,493,487,494,495
495,493,487,494,495
495,493,488,494,495
495,493,488,494,495
495,493,489,494,495
495,493,490,494,495
495,493,490,495,495
495,493,490,494,495
495,493,489,494,495
495,493,488,494,495
495,493,488,494,495
495,493,487,494,495
495,493,487,494,495
495,493,487,494,495
495,493,487,494,495
495,493,488,494,495
495,493,489,494,495
495,493,489,494,495
495,493,490,494,495
495,493,490,494,495
495,493,489,494,495
495,493,489,494,495
495,493,488,494,495
495,493,487,494,495
495,493,487,494,495
495,493,486,494,495
495,493,487,494,495
495,493,487,494,495
495,493,488,494,495
495,493,489,494,495
495,493,489,494,495
495,493,489,494,495
495,493,489,494,495
495,493,489,494,495
495,493,488,494,495
495,493,487,494,495
495,493,487,494,495
495,493,486,494,495
495,493,486,494,495
495,493,487,494,495
495,493,487,494,495
495,493,488,494,495
495,493,489,494,495
495,493,489,494,495
495,493,489,494,495
495,493,489,494,495
495,493,489,494,495
495,493,488,494,495
495,493,487,494,495
495,493,487,494,494
495,493,486,494,495
495,494,487,494,495
495,493,487,494,495
495,493,488,494,495
495,493,489,494,495
495,493,489,494,495
495,493,490,494,495
495,493,489,494,495
495,493,489,494,495
495,493,489,494,495
495,493,488,494,495
495,493,487,494,495
495,493,487,494,494
495,493,487,494,495
495,493,487,494,495
495,493,488,494,495
495,493,489,493,494
495,493,489,494,494
495,493,490,494,495
495,493,490,494,495
495,493,490,494,495
495,493,489,494,495
495,493,488,494,495
495,493,488,494,495
495,493,487,494,495
495,493,487,494,495
495,493,487,494,495
495,493,487,494,495
495,493,488,494,495
495,493,489,494,495
495,493,489,494,495
495,493,490,494,495
495,493,490,494,495
495,493,489,494,495
495,493,489,494,495
495,493,488,494,495
495,493,487,494,495
495,493,487,494,495
495,493,487,494,495
495,493,487,494,495
495,493,488,494,495
495,493,488,494,495
495,493,489,494,495
495,493,489,494,495
495,493,490,494,495
495,493,489,494,495
495,493,489,494,495
495,493,488,494,495
495,493,488,494,495
495,493,487,494,495
495,493,486,494,494
495,493,487,494,495
495,493,487,494,495
495,493,488,494,495
495,493,489,494,495
495,493,489,494,495
495,493,489,494,495
495,493,489,494,495
495,493,489,494,495
495,494,489,494,495
495,493,488,494,495
495,493,487,494,495
495,493,487,494,494
495,493,487,494,495
495,493,487,494,495
495,493,487,494,494
495,493,488,494,495
495,493,489,494,495
495,493,489,494,494
495,493,490,494,495
495,493,489,494,495
495,493,489,494,495
495,493,488,494,494
495,494,488,494,494
495,493,487,494,495
495,493,487,494,495
495,493,487,494,495
495,493,487,494,495
495,493,488,494,494
495,493,489,494,495
495,493,489,494,494
495,493,490,494,494
495,493,490,494,494
495,493,489,494,494
495,493,489,494,495
495,493,488,494,495
495,493,488,494,495
495,493,487,494,495
495,493,486,494,495
495,493,487,494,495
495,493,487,494,494
495,493,488,493,494
495,493,489,494,495
495,493,489,494,495
495,493,490,494,495
495,493,489,493,495
495,493,489,494,494
495,493,488,494,495
495,493,488,494,495
495,493,487,494,495
495,493,486,494,495
495,493,486,494,495
495,493,487,494,494
495,493,487,493,495
495,493,488,494,495
495,493,489,494,494
495,493,489,494,495
495,493,489,494,495
495,493,489,494,494
495,493,489,494,495
495,493,488,494,495
495,493,487,494,494
495,493,487,494,495
495,493,486,494,495
495,493,486,494,495
495,493,487,494,495
495,493,488,494,495
495,493,488,493,494
495,493,489,494,494
495,493,489,494,494
495,493,489,494,494
495,493,489,494,495
495,493,488,494,495
495,493,488,494,495
495,493,487,494,494
495,493,486,494,495
495,493,486,494,495
495,493,487,494,495
495,493,487,494,494
495,493,488,494,495
495,493,489,494,495
495,493,489,494,495
495,493,489,494,495
495,493,489,494,494
495,493,489,494,494
495,493,488,494,495
495,493,487,493,494
495,493,487,493,495
495,493,486,494,495
495,493,486,494,494
495,493,487,494,494
495,492,488,494,495
496,493,489,493,494
495,494,489,494,495
495,493,490,494,495
495,493,490,494,495
495,493,489,494,495
495,493,489,494,494
495,493,488,494,495
495,493,487,494,494
495,493,487,494,495
495,493,486,494,494
495,493,487,494,494
495,493,487,494,494
495,493,488,494,495
495,493,489,494,495
495,493,489,494,495
495,493,490,494,495
495,493,489,494,495
495,493,489,494,495
495,493,488,494,494
495,493,488,494,494
495,493,487,494,495
495,493,486,494,495
495,493,487,494,495
495,493,487,494,495
495,493,488,494,495
495,493,488,493,495
495,493,489,494,495
495,493,489,494,495
495,493,489,494,495
495,493,489,494,495
495,493,489,494,495
495,493,488,494,494
495,493,487,493,495
495,493,487,494,495
495,493,486,494,494
495,493,487,494,494
495,493,487,494,494
495,493,488,494,494
495,493,489,494,495
495,493,489,494,495
495,493,489,494,495
495,493,489,494,495
495,493,489,493,494
495,493,488,494,495
495,493,488,494,494
495,493,487,494,494
495,493,486,494,495
495,493,487,494,495
495,493,487,494,495
495,493,487,494,494
495,493,488,494,494
495,493,489,494,495
495,493,489,494,495
495,493,490,494,495
495,493,489,494,495
495,493,489,494,494
495,493,488,494,495
495,493,487,494,495
495,493,487,494,495
495,493,487,494,494
495,493,487,494,495
495,493,487,494,495
495,493,488,494,494
495,493,489,494,495
495,493,489,494,495
495,493,490,494,495
495,493,489,494,495
495,493,489,494,495
495,493,488,494,495
495,493,488,494,495
495,493,487,494,495
495,493,487,494,495
495,493,486,494,495
495,493,487,494,494
495,493,488,494,494
495,494,488,494,494
495,493,489,494,494
495,493,490,494,495
495,493,490,494,494
495,493,489,493,494
495,493,489,493,494
495,493,488,494,494
495,494,488,494,495
495,493,487,494,495
495,493,487,494,495
495,493,487,494,495
495,493,487,494,494
495,493,488,494,494
495,493,489,494,494
495,493,489,494,494
495,493,490,494,495
495,493,489,494,495
495,493,489,494,495
495,493,488,494,494
495,493,488,494,494
495,493,487,494,494
495,493,486,494,494
495,493,486,494,494
495,493,486,494,494
495,493,487,494,494
495,493,488,494,495
495,493,489,494,494
495,493,489,494,494
495,493,489,494,494
495,493,489,494,495
495,493,489,494,495
495,493,488,494,495
495,493,487,494,495
495,493,487,494,494
495,493,486,494,494
495,493,486,494,494
495,493,487,493,494
495,493,488,494,494
495,493,488,494,494
495,493,489,494,494
495,493,489,494,494
495,493,489,493,494
495,493,489,494,494
495,493,489,494,494
495,493,488,494,494
495,493,487,494,494
495,493,487,494,495
495,493,486,494,494
495,493,487,494,494
495,493,487,494,494
495,494,488,494,494
495,494,489,494,494
495,493,489,494,494
495,493,490,494,494
495,493,489,494,494
495,493,489,494,494
495,493,488,494,494
495,493,488,494,494
495,493,487,494,494
495,493,487,494,494
495,493,487,494,494
495,493,487,494,494
495,493,487,494,494
495,493,488,494,495
495,493,489,494,494
495,493,489,494,494
495,493,490,494,494
495,493,489,494,494
495,493,489,494,494
495,493,488,494,494
495,493,487,494,494
495,493,487,494,495
495,493,486,494,495
495,493,486,494,494
495,493,487,494,494
495,493,488,494,494
495,493,489,494,494
495,493,489,494,494
494,493,489,494,494
495,493,489,494,494
495,493,489,494,494
496,493,489,494,494
495,493,488,494,494
495,493,487,494,494
495,493,487,493,494
495,493,486,494,494
495,493,487,493,494
495,493,487,494,494
495,493,488,493,494
495,493,489,493,494
495,493,489,494,494
495,493,489,494,495
495,493,489,494,494
495,493,489,494,494
495,493,488,494,494
495,493,487,493,494
495,493,487,494,494
495,493,486,494,494
495,493,486,494,494
495,493,487,494,494
495,493,488,494,494
495,493,489,494,494
495,493,489,494,494
495,493,489,494,494
495,493,489,494,494
495,494,489,494,494
495,493,488,494,494
495,493,487,494,494
495,493,487,494,494
495,493,486,494,494
495,493,486,494,495
495,493,486,494,495
495,493,487,494,494
495,493,487,494,494
495,493,488,494,494
495,493,488,494,494
495,493,489,494,494
495,493,488,494,494
495,493,488,494,494
495,493,487,494,494
495,493,487,494,494
495,493,486,494,494
495,493,486,494,494
495,493,486,494,494
495,493,486,494,494
495,493,487,494,494
495,493,488,494,494
495,493,489,494,494
495,493,489,494,495
495,493,489,494,495
495,493,489,494,494
495,493,488,494,494
495,493,487,494,494
495,493,487,494,494
495,493,486,494,494
495,493,486,494,494
495,493,486,494,494
495,493,487,494,494
495,493,488,494,494
495,493,489,494,494
495,493,489,494,494
495,493,489,494,494
495,493,489,494,494
495,493,489,494,494
495,493,488,494,494
495,493,487,494,494
495,493,487,494,494
495,493,486,494,495
495,493,486,494,495
495,493,486,494,495
495,493,487,494,494
495,493,488,494,494
495,493,488,494,494
495,494,489,494,494
495,493,489,494,494
495,493,489,494,494
495,493,488,494,494
495,493,488,494,494
495,493,487,494,494
495,493,486,494,494
495,493,486,494,495
495,493,486,494,494
495,493,487,494,494
495,493,488,494,494
495,493,488,494,494
495,493,489,494,494
495,493,489,494,494
495,493,489,494,494
495,493,489,494,494
495,493,488,494,494
495,493,487,494,494
495,493,487,494,494
495,493,486,494,494
495,493,486,494,494
495,493,486,494,494
495,493,487,494,494
495,493,488,494,494
495,493,489,494,494
495,493,489,494,494
495,493,489,494,494
495,493,489,494,494
495,493,488,494,494
495,493,488,494,494
495,493,487,494,494
495,493,486,494,494
495,493,486,494,494
495,493,486,494,494
495,493,486,494,494
495,493,487,494,494
495,493,488,494,494
495,493,489,494,494
495,493,489,494,494
495,493,489,494,494
495,493,489,494,494
495,493,488,494,494
495,493,487,494,494
495,493,487,494,494
495,493,486,494,494
495,493,486,494,494
494,490,485,498,498
497,494,486,494,494
495,493,488,494,494
495,494,488,494,495
495,493,489,494,495
495,493,489,494,494
495,493,489,494,494
495,493,489,494,494
495,493,488,494,494
495,493,487,494,494
495,493,487,494,494
495,493,486,494,494
496,493,486,494,494
495,494,487,493,494
495,493,487,493,494
495,493,488,494,494
495,493,489,494,494
495,493,489,494,494
495,493,489,494,494
495,493,489,494,494
495,493,488,494,494
495,493,488,494,494
495,493,487,494,495
495,493,486,494,495
495,493,486,494,495
495,493,487,494,494
495,493,487,494,494
495,493,488,494,494
495,493,489,494,494
495,493,489,494,494
495,493,490,494,495
495,493,490,494,495
495,493,489,494,494
495,493,489,494,494
495,493,488,494,494
495,493,487,494,494
495,493,487,494,494
495,493,487,494,494
495,493,487,494,494
495,493,488,494,494
495,493,489,494,494
495,493,490,494,494
495,493,490,494,494
495,493,490,494,494
495,493,490,494,494
495,493,489,494,494
495,493,488,494,494
495,493,488,494,494
495,493,487,494,494
495,493,487,494,494
495,493,487,494,494
495,493,487,494,494
495,493,488,494,494
495,493,489,494,494
495,493,490,494,494
495,493,490,494,494
495,493,490,494,494
495,493,489,494,494
495,493,489,494,494
495,493,488,494,494
495,493,487,494,494
495,493,487,494,494
495,493,487,494,494
495,493,487,494,494
495,493,488,494,494
495,493,489,494,494
495,493,489,494,494
495,492,490,494,494
495,493,490,494,494
495,494,490,494,494
495,493,490,494,494
495,493,489,494,494
495,493,488,494,494
495,493,488,494,494
495,493,487,494,494
495,493,487,494,494
495,493,487,494,494
495,493,488,494,495
495,493,489,494,494
495,493,490,494,494
495,493,490,494,494
495,493,490,494,494
495,493,489,494,494
495,493,488,494,494
495,493,488,494,494
495,493,487,494,494
495,493,486,494,494
495,493,486,494,494
495,493,486,494,494
495,493,487,494,494
495,493,488,494,494
495,493,488,494,494
495,493,489,494,494
495,493,489,494,494
495,493,489,494,494
495,493,488,494,494
495,493,488,494,494
495,493,487,494,494
495,493,487,494,494
495,493,487,494,494
495,493,486,494,494
495,493,487,494,494
495,493,488,494,494
495,493,488,494,494
495,493,489,494,494
495,493,489,494,494
495,493,489,494,494
495,493,489,494,494
495,493,488,494,494
495,493,488,494,494
495,493,487,494,494
495,493,486,494,494
495,493,486,494,494
495,493,487,494,494
495,493,487,494,494
495,493,488,493,494
495,493,489,494,494
495,493,489,494,494
495,493,490,493,494
495,493,489,494,494
495,493,489,494,494
495,493,488,494,494
495,493,488,493,494
493,491,487,494,494
495,492,486,489,489
489,488,486,488,490
497,497,488,495,496
493,489,488,511,505
501,496,488,495,494
495,493,488,488,487
489,488,488,487,491
502,492,488,492,491
492,500,492,504,501
500,495,488,495,495
496,493,487,494,493
493,493,487,494,494
494,489,485,487,489
490,488,485,488,491
491,491,490,511,506
502,493,486,488,488
492,488,487,488,490
494,489,488,489,492
495,498,496,514,506
504,495,490,492,491
489,488,488,488,490
488,492,490,496,494
493,494,489,496,502
502,498,488,497,495
495,494,487,494,494
495,493,486,494,494
495,493,486,494,493
494,492,486,488,489
489,487,486,488,490
491,488,488,489,495
505,499,489,491,490
491,488,488,489,491
512,512,492,496,492
492,491,489,492,505
504,498,489,496,495
495,494,488,494,493
495,493,487,494,491
494,494,487,494,493
495,493,486,490,487
489,489,486,487,488
490,489,487,489,491
491,489,488,489,493
491,489,488,490,493
493,489,489,490,492
540,517,492,505,498
500,494,488,494,491
492,495,489,496,493
495,491,486,492,496
495,494,486,494,494
490,494,486,494,494
492,494,486,494,494
493,493,486,494,493
495,493,486,494,493
497,493,487,494,494
496,493,488,494,494
495,493,488,494,494
495,493,488,494,494
495,493,489,494,494
495,493,488,494,494
495,493,488,494,493
495,494,487,494,493
495,493,487,493,493
495,493,486,494,493
495,493,486,494,493
495,493,486,494,494
495,493,487,494,494
495,493,488,494,494
495,493,488,494,494
495,493,489,494,494
497,493,489,494,494
498,493,489,494,494
498,493,489,494,493
498,493,489,494,493
496,494,488,494,494
492,493,487,494,494
492,493,487,494,494
493,493,486,494,494
494,493,487,494,494
495,493,488,494,494
495,493,488,494,493
495,493,489,494,493
495,493,489,494,493
495,493,490,494,494
495,493,489,494,494
495,493,489,494,494
495,493,488,494,494
495,493,487,494,494
495,493,487,494,494
495,493,486,494,493
495,495,487,494,494
494,494,487,494,493
494,493,488,494,494
495,493,489,494,494
495,493,489,494,494
495,492,488,488,488
489,487,489,488,490
490,489,489,489,490
491,489,488,490,491
491,489,487,490,492
490,489,486,491,491
490,489,486,491,492
491,489,486,490,493
491,490,486,491,494
492,489,487,491,494
493,489,487,491,494
494,489,488,491,495
494,489,488,490,493
494,490,488,491,492
493,490,488,491,493
493,490,487,491,493
493,489,487,491,494
493,489,486,491,494
493,489,485,491,495
493,489,485,491,495
493,489,485,491,494
493,490,485,491,495
493,490,486,491,494
493,490,486,491,494
493,489,487,491,494
494,490,487,491,494
496,489,487,491,494
496,489,487,490,494
495,489,486,491,494
495,489,485,491,494
492,489,485,491,494
488,489,484,491,494
490,490,484,491,494
491,490,484,491,494
492,490,485,491,494
492,490,486,491,494
492,490,486,491,494
493,490,487,491,494
493,490,487,491,494
493,490,487,491,494
492,490,487,491,494
492,490,486,491,494
493,491,485,491,494
493,490,485,491,494
493,490,484,491,494
493,490,484,491,493
493,490,484,491,493
493,491,485,491,493
493,490,486,491,493
493,490,487,491,493
493,490,487,492,494
493,490,487,491,494
493,490,486,491,493
493,491,486,491,492
492,491,485,491,493
492,491,485,491,493
492,491,484,491,493
493,491,484,491,494
492,491,484,491,494
492,491,485,491,494
493,490,485,491,494
493,490,486,491,494
493,491,487,491,494
493,490,487,491,494
493,491,487,491,494
493,491,487,491,493
493,491,486,491,493
493,490,485,491,494
492,491,485,491,494
491,491,484,492,493
491,491,484,491,494
491,491,485,491,494
492,491,485,491,494
494,490,486,491,493
495,490,487,491,493
494,491,487,491,493
493,491,487,491,494
493,491,487,491,493
493,491,487,491,493
493,491,486,491,494
492,491,485,491,493
493,490,485,491,493
494,491,484,491,493
494,491,485,491,493
493,491,485,491,493
493,491,486,491,493
493,491,487,491,493
493,491,487,491,493
493,491,488,491,493
494,491,488,491,493
495,491,487,491,493
496,490,486,491,494
496,490,486,491,493
496,490,485,491,493
494,491,484,491,494
489,491,484,491,494
491,491,485,491,494
492,491,485,491,493
492,491,486,491,493
492,491,487,491,493
493,491,488,491,493
493,491,488,491,493
493,491,488,491,493
493,491,487,491,493
493,492,487,491,493
493,492,486,491,493
493,491,485,492,493
493,490,485,491,493
493,491,485,492,493
493,491,485,491,494
493,491,486,491,494
495,491,487,491,493
495,490,487,491,493
495,490,488,492,493
495,491,488,491,493
495,491,487,491,493
491,492,487,492,493
491,492,486,492,493
492,491,486,492,493
493,491,485,491,493
493,490,485,491,493
493,492,485,491,493
493,491,486,492,493
493,491,487,492,493
492,491,487,492,493
492,491,488,492,493
492,491,488,492,493
493,491,488,491,493
493,491,487,492,493
493,491,486,491,493
494,491,486,492,493
493,491,485,492,492
493,491,485,491,491
493,491,485,492,492
493,491,485,492,493
493,491,486,492,493
493,491,487,492,493
493,491,487,491,494
493,491,488,492,494
493,490,487,491,493
493,492,487,492,493
493,491,487,492,493
494,491,486,492,494
493,491,485,492,494
493,491,485,492,493
493,491,484,492,493
493,491,485,492,493
493,491,485,492,493
493,491,486,492,493
493,491,487,492,493
493,491,487,492,493
493,491,487,492,493
493,491,487,492,493
493,491,487,492,493
492,491,486,491,493
493,492,485,491,493
493,492,485,491,493
494,491,484,492,493
494,492,484,492,493
494,491,485,492,493
493,491,485,492,493
493,491,486,492,493
494,491,487,492,493
494,491,487,492,493
493,491,487,492,493
493,492,487,492,493
493,492,487,492,493
493,492,486,492,493
493,492,485,492,493
495,491,485,492,493
496,491,484,492,493
496,491,485,492,493
496,492,485,492,493
495,491,486,492,493
490,491,486,492,493
490,492,487,492,493
492,492,487,492,493
493,491,487,492,493
493,491,487,492,493
493,491,486,492,493
493,491,485,492,493
493,491,485,492,493
493,492,484,492,493
493,493,484,492,493
493,492,485,492,493
493,493,485,492,493
493,492,486,492,493
493,492,487,492,493
493,491,487,492,493
493,492,487,492,493
493,492,487,492,493
493,492,487,492,493
493,491,486,492,493
493,491,485,492,493
493,491,484,492,493
493,491,484,492,493
493,491,484,492,493
493,491,484,492,493
493,492,485,492,493
493,492,486,492,493
493,492,487,492,493
493,492,487,492,493
493,492,487,492,493
493,492,486,492,493
493,491,486,492,493
494,491,485,492,493
494,491,484,492,493
494,491,484,492,493
494,492,484,492,493
493,491,484,492,493
493,492,485,492,493
493,492,485,492,493
493,492,486,492,493
493,492,487,492,493
494,492,487,492,493
493,492,487,492,493
493,492,486,492,493
493,492,485,492,493
493,492,485,492,493
493,492,484,492,493
493,492,484,492,493
494,492,484,492,493
494,491,484,492,493
495,491,485,492,493
496,491,486,492,493
496,491,486,492,493
496,492,487,492,493
494,492,487,492,493
490,492,486,492,493
491,492,486,492,493
492,492,485,492,492
493,492,485,492,492
493,492,484,492,493
493,492,484,492,493
493,492,484,492,493
493,492,484,492,493
493,492,485,492,493
493,491,486,492,494
493,491,486,492,493
494,492,487,492,493
494,491,486,492,493
494,491,486,492,493
494,491,485,492,493
494,493,485,492,493
493,492,484,492,493
493,492,484,492,493
493,492,484,492,493
493,492,484,492,493
494,492,485,492,493
494,492,486,492,493
494,492,487,492,493
493,492,487,492,493
494,492,487,492,493
493,492,486,492,493
493,492,486,492,493
494,492,485,492,493
494,492,485,492,493
494,491,484,493,493
493,492,484,492,493
493,493,484,492,493
493,491,484,492,493
493,492,485,492,493
494,492,486,492,493
494,491,487,492,493
494,491,487,492,493
494,490,486,492,493
494,493,487,492,493
494,492,486,493,493
493,491,485,492,493
494,492,485,493,493
494,492,484,493,493
493,493,484,492,493
494,492,485,492,493
493,492,485,493,493
494,491,486,492,493
494,492,487,492,493
494,492,487,492,493
494,491,487,492,493
494,492,487,492,493
494,492,487,492,493
494,492,486,492,493
494,492,485,492,493
494,492,485,492,493
494,493,485,492,493
494,491,485,493,493
494,491,485,492,493
494,492,486,492,493
494,492,486,493,493
494,492,487,492,493
494,492,487,492,493
494,492,487,492,493
494,491,487,492,493
494,491,486,492,493
494,492,486,492,493
494,492,485,493,493
494,492,485,493,493
494,492,485,493,493
494,492,485,493,493
494,492,485,492,493
494,492,486,492,493
494,492,487,492,493
494,492,488,492,493
494,492,488,492,493
494,492,487,493,493
494,491,487,493,493
494,491,486,493,493
494,491,485,493,493
494,491,485,493,493
494,491,485,492,493
494,491,485,492,493
495,491,486,492,493
497,492,487,492,493
497,493,488,492,494
497,491,488,492,494
496,491,488,492,493
491,491,487,493,493
490,492,487,493,493
492,493,486,492,493
493,492,486,493,493
493,492,485,493,493
493,492,485,493,493
493,491,485,493,493
493,490,485,492,493
493,493,486,492,493
493,492,487,492,493
493,492,488,493,493
493,492,488,493,493
493,492,488,493,493
494,493,488,493,493
494,493,487,493,493
494,492,486,492,493
494,492,486,492,493
494,492,485,492,493
494,491,485,493,493
494,492,485,493,493
494,492,486,493,493
494,491,487,493,493
494,492,488,493,493
494,492,488,493,493
494,492,488,492,493
494,491,488,493,493
494,492,488,493,493
494,492,487,493,493
494,492,486,493,493
494,492,486,493,493
494,492,485,493,493
494,492,485,493,493
494,492,486,493,493
495,492,486,493,493
495,492,487,493,493
496,492,488,493,493
496,492,488,493,493
495,492,488,492,493
493,492,488,493,494
491,492,487,493,493
493,492,486,493,493
493,492,486,493,493
494,492,485,493,493
494,492,485,493,493
494,493,485,493,493
494,493,486,493,493
494,493,487,493,493
494,492,488,493,493
494,492,488,493,493
494,492,488,493,493
494,492,488,493,493
494,492,488,493,493
494,493,487,493,493
496,492,486,493,493
497,491,486,493,493
497,493,485,493,493
496,492,485,493,493
491,492,485,493,493
490,492,486,493,493
492,493,487,493,493
493,492,488,493,493
493,492,488,493,493
493,492,489,493,493
493,492,488,493,493
493,493,488,493,493
494,492,487,493,493
494,492,486,493,493
494,491,485,493,493
494,492,485,493,493
494,492,485,493,493
493,492,486,493,493
494,491,486,492,494
495,492,487,493,494
494,492,488,493,493
494,492,488,493,493
495,492,489,493,493
494,492,488,493,493
494,492,488,493,493
495,492,487,493,493
494,492,487,493,493
494,492,486,493,493
494,492,486,493,493
495,492,486,493,493
494,492,486,493,493
494,492,487,493,493
495,493,488,493,493
494,492,489,493,493
494,492,489,493,493
494,492,489,493,493
494,492,489,493,493
494,492,488,493,493
494,492,487,493,493
494,492,487,493,493
494,492,486,493,493
494,492,486,493,493
494,492,486,493,493
494,492,487,493,493
495,492,488,493,493
494,492,488,493,493
494,492,489,493,493
494,493,489,493,493
494,493,489,493,493
494,492,489,493,493
494,493,488,493,493
494,489,487,493,493
494,493,487,493,493
494,493,486,493,493
494,492,486,493,493
494,493,487,493,493
494,492,488,493,493
494,492,488,493,493
494,493,489,493,493
494,492,489,493,493
494,492,489,493,493
494,492,489,493,493
494,492,488,493,493
494,492,488,493,493
494,492,487,493,493
494,492,486,493,493
494,492,486,493,493
494,492,486,493,493
494,492,486,493,493
495,492,487,493,493
495,493,488,493,493
494,493,489,590,573
555,532,487,511,494
502,500,483,495,489
502,501,485,495,488
494,490,482,485,483
509,508,487,500,493
493,498,485,496,491
495,498,486,496,492
496,497,486,496,491
496,495,486,490,493
500,496,486,488,484
489,489,488,488,487
491,497,496,506,492
492,490,497,517,505
504,499,493,498,493
497,496,492,496,493
497,496,491,496,493
497,496,491,496,493
497,497,490,494,487
490,489,488,488,487
490,490,488,490,489
492,491,489,491,516
507,495,488,490,488
491,490,489,490,490
492,491,490,491,491
493,491,491,492,491
493,491,491,492,492
494,491,491,493,492
494,491,490,493,493
553,529,494,512,499
499,497,488,497,494
498,497,487,496,493
496,496,487,496,493
496,496,487,496,493
496,496,488,496,493
496,496,488,496,493
495,495,489,496,493
496,496,490,496,493
497,495,491,496,493
497,495,491,496,493
496,495,491,496,493
497,495,491,496,493
497,495,490,496,493
496,495,489,496,493
497,495,489,496,493
497,495,488,496,493
497,495,489,496,493
497,495,489,496,493
497,495,490,496,493
497,495,491,496,493
497,495,491,496,493
497,495,492,496,493
497,494,492,496,493
497,494,491,496,493
497,494,490,496,493
497,495,490,496,493
497,495,489,496,494
497,496,489,496,494
496,496,489,496,493
496,495,489,496,493
496,495,489,496,494
496,495,490,496,493
496,495,491,496,494
496,495,491,496,494
496,494,491,496,494
496,495,491,496,494
496,495,490,496,494
496,495,490,496,494
497,495,489,496,494
497,495,488,496,494
499,495,488,496,494
500,495,488,496,494
500,495,488,496,494
500,495,488,496,494
495,494,489,496,494
492,493,489,496,494
495,494,490,496,494
496,492,489,496,494
496,494,489,496,494
496,495,489,496,494
496,494,488,496,494
496,494,487,496,494
496,495,487,496,494
496,495,487,496,494
496,494,487,496,494
496,494,487,496,494
496,494,488,495,493
496,494,489,496,495
497,495,490,496,494
496,494,490,495,494
496,494,490,496,494
496,494,490,496,494
496,493,489,495,494
496,495,488,496,494
497,495,488,496,494
496,494,487,495,494
496,494,487,495,494
496,494,487,495,494
496,494,488,496,494
496,494,489,496,494
496,494,489,496,494
496,494,490,496,496
497,495,490,496,494
496,494,490,496,494
496,494,489,495,494
495,493,488,496,495
496,495,488,496,494
496,493,487,494,493
495,493,487,495,494
496,494,487,497,494
496,493,487,495,494
496,494,488,497,495
497,495,489,496,494
496,495,489,495,494
496,492,490,496,494
496,494,490,496,494
496,495,490,496,494
496,494,489,496,494
496,494,488,496,494
495,494,488,496,494
496,494,487,495,494
497,494,487,495,494
497,494,487,495,494
496,494,488,496,495
497,494,489,496,494
496,494,490,496,495
496,494,490,496,494
496,494,490,496,494
496,494,490,495,494
496,494,490,495,494
496,494,489,496,494
496,494,488,495,494
496,494,488,496,494
496,494,487,496,494
496,495,488,495,494
498,495,488,495,494
499,495,489,496,494
500,495,490,496,494
499,494,490,495,494
495,493,490,495,494
492,494,491,495,494
495,494,491,495,494
495,494,490,495,494
495,494,489,495,494
495,494,489,495,494
496,494,488,495,494
496,494,488,495,494
496,494,488,495,494
496,494,488,496,494
496,494,489,495,494
496,494,490,495,494
496,494,490,495,493
496,494,491,496,494
496,494,490,495,494
496,494,490,495,494
496,494,489,495,493
495,493,489,494,494
498,494,488,495,493
494,492,487,494,497
498,492,487,491,490
498,498,488,493,494
494,490,488,489,489
491,489,489,513,508
503,492,488,489,489
492,489,489,508,506
503,496,488,494,489
496,495,490,500,496
496,495,489,495,493
495,494,488,495,494
497,493,487,495,494
496,492,487,494,491
492,490,486,496,498
501,497,487,497,495
496,494,487,495,494
496,495,488,495,494
496,494,489,495,494
496,494,490,495,494
495,494,490,495,494
495,494,490,495,494
496,494,490,495,494
496,494,489,495,494
496,494,488,495,494
496,493,488,495,494
496,494,487,495,494
496,494,487,495,494
496,494,487,495,494
496,494,488,495,494
496,494,489,495,494
496,494,490,495,494
496,494,490,495,494
496,494,490,495,494
496,493,490,495,494
495,493,489,495,494
496,493,489,495,494
496,493,488,495,494
496,493,487,495,493
496,493,487,494,493
495,494,487,495,494
496,494,488,495,494
496,494,488,495,494
495,493,489,494,494
495,493,489,493,495
495,494,490,496,494
494,492,490,497,495
495,493,490,496,495
496,494,489,493,492
497,496,489,493,493
497,494,488,496,496
500,494,487,495,495
500,493,487,496,495
499,494,487,494,493
493,493,487,495,495
493,493,488,497,495
495,493,489,494,493
493,493,490,496,494
495,494,490,495,494
495,494,490,495,494
495,493,489,495,494
495,493,488,495,495
495,493,488,495,494
495,493,487,495,494
495,493,486,495,494
494,493,487,495,494
495,493,487,495,494
495,493,488,495,494
496,494,489,495,494
496,493,489,495,494
495,493,489,495,494
496,493,490,495,494
496,493,489,495,494
496,494,489,495,494
496,493,488,495,494
495,493,487,495,494
496,493,487,495,494
495,492,487,495,494
495,491,486,495,494
496,495,488,495,494
496,494,488,495,494
495,493,489,495,494
495,493,489,495,494
495,493,490,494,494
496,494,490,495,494
495,490,488,489,489
491,502,491,501,497
497,494,489,496,495
496,493,488,495,493
495,493,487,491,488
490,488,486,489,490
493,493,488,496,511
507,499,489,498,495
496,493,488,495,494
495,493,489,495,494
495,494,490,495,494
495,493,490,495,494
495,493,490,495,493
495,493,489,495,494
495,493,488,494,494
495,493,488,494,494
495,493,487,495,494
495,493,487,495,494
496,493,487,495,494
495,493,488,495,494
495,493,488,495,494
496,492,489,495,494
496,492,490,495,494
496,492,490,495,494
496,493,490,495,494
495,493,490,494,493
495,493,489,490,489
495,497,490,498,496
496,491,487,495,495
496,491,486,489,498
503,497,488,497,495
496,494,487,493,489
490,489,487,488,489
491,489,489,490,491
492,490,490,491,492
492,489,490,491,493
493,489,490,492,493
493,490,490,492,493
493,491,490,546,521
511,501,486,497,494
496,494,484,495,493
495,493,484,494,493
495,494,484,494,493
495,493,485,494,493
495,493,485,495,493
495,494,487,494,493
495,493,488,494,493
495,494,488,494,493
495,494,489,495,493
495,493,489,495,493
497,494,489,495,493
498,493,488,495,494
499,494,488,495,494
499,493,487,495,493
496,493,486,495,494
492,493,486,495,493
493,494,487,495,493
495,494,487,495,493
495,494,488,495,493
495,494,489,495,493
495,494,490,495,493
495,493,490,495,494
495,493,490,495,494
495,492,489,495,494
495,493,488,495,494
496,493,488,495,494
495,492,487,495,494
495,491,486,495,494
495,494,487,495,494
495,493,487,495,494
495,492,487,494,494
495,494,489,495,494
495,493,489,495,494
495,493,489,495,494
495,493,489,495,494
495,494,489,495,494
495,493,489,495,494
495,493,488,494,494
495,492,487,489,488
490,488,486,489,490
491,499,492,508,501
500,495,488,494,491
490,488,487,488,488
490,489,488,489,491
491,489,489,490,492
492,489,490,491,493
525,518,494,505,493
491,489,489,487,488
490,489,489,489,490
491,489,489,490,492
492,489,488,492,520
517,506,488,502,501
500,494,485,488,488
493,495,488,500,496
494,496,488,498,495
496,495,487,495,493
495,494,488,494,493
495,494,489,494,493
495,493,489,494,493
495,493,490,494,493
495,493,489,494,493
495,493,489,494,493
495,493,488,495,493
495,493,487,494,490
491,489,486,488,490
503,502,489,500,497
497,494,487,495,493
495,493,487,494,493
494,490,487,488,489
490,488,488,489,490
491,489,489,499,505
503,493,489,490,490
491,488,489,490,491
492,489,489,490,492
492,489,488,491,493
493,489,487,491,493
493,490,487,491,493
493,490,486,492,493
493,489,486,492,494
493,490,486,492,494
535,523,493,514,504
502,497,488,496,493
495,494,488,494,493
495,494,488,494,492
494,491,488,487,486
489,488,488,488,489
490,489,488,489,491
491,489,488,490,492
492,489,487,491,492
492,489,487,491,493
493,490,486,491,493
493,489,486,491,493
493,490,487,492,512
540,520,488,510,503
495,502,488,499,494
495,489,489,499,495
500,494,488,487,485
491,487,487,486,487
492,489,488,488,489
489,484,487,489,491
487,489,487,491,492
491,490,487,491,492
492,491,487,492,493
492,490,486,492,493
492,490,487,492,493
492,490,487,492,494
493,489,488,492,493
493,490,488,492,494
493,490,489,492,493
493,490,489,492,493
493,490,489,492,493
493,490,488,492,494
493,490,487,492,494
493,490,487,492,493
493,490,486,492,494
493,490,485,492,494
493,490,486,492,494
493,490,486,492,493
493,490,487,492,493
493,490,488,492,493
493,490,488,492,493
493,490,488,492,493
493,490,489,492,493
493,490,488,492,493
493,490,488,492,493
493,490,487,492,494
493,490,486,492,493
493,490,486,492,493
493,490,486,492,493
493,490,486,492,493
493,490,486,492,493
493,491,487,492,493
493,490,488,492,493
493,490,488,492,493
493,490,488,492,493
493,490,488,492,493
493,491,488,492,493
493,490,487,492,493
493,491,487,492,493
493,491,486,492,493
493,491,486,492,493
493,491,486,492,493
493,491,486,492,493
493,490,487,492,493
493,491,488,492,493
493,491,488,492,493
493,491,489,492,493
493,490,489,492,493
493,490,488,492,493
493,490,488,492,493
493,490,487,492,493
493,490,486,492,493
493,490,485,492,493
494,490,485,492,493
493,491,486,492,493
493,492,486,492,493
510,597,500,522,503
503,501,488,494,489
495,496,489,494,489
495,496,490,494,490
495,496,490,494,490
495,496,490,494,491
495,495,489,489,491
495,493,488,486,484
488,488,492,514,502
501,497,487,495,492
495,492,488,496,493
496,494,487,487,484
488,489,488,487,487
490,508,494,498,490
491,489,490,487,487
490,489,491,489,490
491,489,491,490,491
492,490,491,491,491
492,490,491,491,492
493,490,490,491,492
493,490,489,492,492
493,489,488,492,493
493,488,487,492,493
494,491,500,543,505
500,490,487,487,487
493,490,489,550,529
513,495,485,486,485
494,488,485,487,486
486,488,487,488,489
486,489,487,490,490
490,490,488,491,549
528,510,487,500,494
496,495,485,495,491
494,492,484,497,493
496,495,485,495,492
495,494,485,495,492
495,494,485,495,492
495,494,486,495,492
495,494,488,495,493
495,494,488,495,493
495,494,489,495,493
495,494,489,495,492
495,493,489,495,492
495,494,489,495,493
496,494,488,495,493
495,494,488,495,493
496,493,487,495,493
496,494,487,495,493
495,493,487,495,493
495,493,487,495,493
495,494,488,495,493
495,494,489,495,493
495,494,490,495,493
495,494,490,495,493
496,494,490,494,492
492,490,490,499,495
495,490,488,488,487
491,490,488,492,507
508,500,488,498,495
497,494,487,495,491
494,492,486,488,487
497,503,489,497,494
498,495,488,495,493
496,493,489,495,492
495,494,490,495,493
495,493,490,495,493
495,493,490,495,493
495,493,490,495,493
495,493,489,494,493
495,493,489,495,493
495,493,488,494,493
495,493,487,494,492
494,493,487,497,495
497,494,487,495,493
495,494,487,495,493
495,493,488,495,493
495,493,489,494,493
495,493,489,492,492
495,495,491,497,495
496,494,490,495,493
495,493,490,495,493
495,493,489,495,493
495,492,488,495,493
495,491,487,495,493
495,494,487,495,493
495,493,487,494,493
495,493,487,495,493
496,493,487,495,493
495,493,488,494,493
495,493,489,495,493
496,494,490,495,493
495,493,490,495,493
495,493,490,495,493
495,493,489,495,493
495,493,489,495,493
495,493,488,494,493
495,493,487,495,493
495,493,487,495,493
495,493,487,495,493
498,493,487,494,490
494,489,488,500,498
502,495,489,495,494
499,493,489,494,494
495,493,489,495,493
491,493,490,496,494
493,494,490,495,493
495,494,489,495,493
495,492,488,495,493
495,492,487,494,493
495,493,487,495,493
495,493,487,494,493
495,493,487,495,493
495,494,487,494,493
495,493,488,494,493
495,493,489,495,493
495,493,489,494,493
495,493,490,495,493
495,493,489,494,493
495,493,489,495,493
495,493,488,494,493
495,493,488,495,493
495,493,487,495,493
495,493,487,495,493
495,493,487,495,493
495,493,487,495,493
495,493,487,495,493
495,493,488,495,493
495,493,489,494,493
495,493,490,495,493
495,493,490,494,493
495,493,490,494,493
495,493,489,494,494
495,493,488,494,494
495,493,488,494,494
495,493,487,494,494
496,493,487,495,494
496,493,487,494,493
495,493,488,495,494
496,493,488,495,494
496,493,489,494,493
493,489,489,498,497
496,493,490,494,493
495,493,490,496,495
496,493,490,495,493
496,494,489,494,493
495,493,488,494,493
495,495,488,494,491
494,496,488,496,494
496,493,487,494,493
495,493,487,495,494
495,493,488,495,494
495,494,489,495,494
495,493,489,491,494
496,494,490,495,494
495,493,490,495,493
495,493,490,494,493
495,493,489,495,493
495,492,489,495,494
495,492,488,495,494
496,493,487,495,494
496,493,487,495,493
495,495,487,494,493
495,493,488,494,493
495,493,488,495,493
495,493,489,494,493
495,492,489,494,493
495,494,490,495,493
495,494,490,495,494
497,494,490,495,493
498,493,489,494,494
499,494,489,495,494
499,494,488,495,493
496,493,487,494,493
492,493,487,495,494
493,493,487,494,493
495,494,488,495,493
495,493,488,495,494
495,493,489,494,493
495,493,490,494,493
495,493,490,495,494
495,493,490,495,493
495,493,489,495,494
495,493,488,495,493
495,493,488,495,494
495,493,487,494,493
495,494,487,494,494
495,493,487,495,494
495,493,487,494,494
495,493,488,495,494
495,493,489,494,493
495,493,489,494,493
495,493,490,494,494
495,493,490,494,493
495,494,490,495,494
496,495,489,495,494
495,492,488,495,494
495,492,487,494,493
495,493,487,494,493
495,493,487,495,493
495,493,487,494,494
495,493,487,495,494
495,493,488,495,493
495,493,489,494,493
495,493,489,495,494
495,493,490,495,493
495,493,489,494,494
495,493,489,495,494
495,493,488,494,494
495,492,488,494,494
495,493,487,495,494
495,493,487,494,493
495,493,486,495,493
495,493,487,494,494
495,493,487,494,494
495,493,488,495,494
495,493,489,494,494
495,493,489,494,494
495,493,489,494,494
495,493,489,494,493
495,493,489,494,494
495,492,488,495,494
495,493,487,495,494
495,492,487,495,494
495,492,486,495,494
495,493,486,494,493
495,494,487,495,493
495,494,488,495,494
495,493,489,495,494
495,492,489,495,494
495,493,489,495,494
495,493,489,494,493
495,493,489,494,493
495,492,488,495,494
495,493,488,495,494
495,493,487,495,493
495,493,486,495,493
495,493,486,495,493
495,493,486,494,493
495,493,487,495,493
495,493,488,495,493
495,493,489,494,494
496,493,489,494,493
495,493,489,495,493
496,493,489,495,494
499,493,489,495,494
499,492,488,495,494
499,493,487,495,494
498,493,486,495,494
495,493,486,495,494
491,494,486,495,494
493,493,486,495,494
494,493,487,495,494
495,493,488,494,493
495,493,489,495,494
495,493,489,494,494
495,493,489,495,494
495,493,489,494,494
495,492,488,495,494
495,493,487,495,494
495,494,487,495,494
495,493,486,495,494
495,493,486,495,493
495,493,486,494,493
495,493,487,495,494
495,493,488,495,494
495,493,489,494,494
495,493,489,495,494
495,493,489,495,494
495,493,489,495,493
495,493,489,494,494
495,493,488,494,494
495,493,487,494,494
495,493,487,494,493
495,493,486,494,493
495,493,486,495,494
495,493,487,495,494
495,493,488,495,493
495,493,488,494,493
495,493,489,494,494
495,493,489,495,494
495,493,489,494,494
495,493,489,494,494
495,493,489,494,494
495,493,488,494,493
495,493,487,494,493
495,493,486,495,494
495,493,486,495,494
495,493,486,494,494
495,493,487,495,494
495,493,488,494,494
495,493,488,494,494
495,493,489,494,494
495,493,489,494,494
495,493,489,494,494
495,493,489,494,494
495,493,488,494,494
495,493,487,495,494
495,493,487,494,494
495,492,486,495,493
495,493,486,495,493
495,493,486,495,494
495,493,487,495,493
495,493,488,494,493
495,493,489,494,494
495,494,490,494,493
495,493,489,494,494
495,493,489,495,494
495,493,489,495,494
495,493,488,495,494
495,493,487,494,494
495,494,487,495,493
495,494,486,495,494
495,492,486,495,494
495,492,487,495,494
495,493,487,495,494
495,493,488,495,494
495,493,489,495,494
495,493,489,495,494
495,493,489,495,494
495,493,489,495,494
495,493,488,495,494
495,492,488,495,494
495,493,487,495,494
495,493,486,494,494
495,493,486,495,494
495,493,487,495,494
495,493,487,495,494
495,493,488,494,494
495,493,489,495,493
495,493,489,495,494
495,493,489,495,493
495,493,489,495,494
495,493,489,494,494
495,493,488,495,494
495,493,487,494,493
495,493,487,495,494
495,493,486,495,494
495,493,486,495,494
495,493,487,494,494
495,493,488,494,494
495,493,488,494,494
495,493,489,494,494
495,493,489,495,494
495,493,489,495,494
498,493,489,494,494
499,493,489,495,494
499,493,488,495,494
498,493,487,494,493
494,493,486,495,493
491,493,486,495,494
493,493,487,495,494
494,493,487,495,494
495,493,488,495,494
495,493,489,495,494
495,493,489,494,493
495,493,489,495,493
495,493,489,495,493
495,493,489,494,493
495,493,488,495,494
495,493,488,495,494
495,493,487,495,494
495,493,486,495,494
495,493,486,495,494
495,493,487,495,494
495,493,488,494,494
495,493,488,495,493
495,493,489,494,494
495,493,489,495,494
496,493,489,494,494
495,493,489,494,494
495,493,488,494,494
495,493,488,494,493
495,493,487,494,493
495,492,486,495,494
495,492,486,495,494
495,494,487,494,494
495,493,487,494,494
495,493,488,494,494
495,493,489,494,493
495,493,489,494,493
495,493,490,494,493
495,493,489,494,494
495,493,489,495,494
495,493,488,495,494
495,493,488,495,494
495,493,487,494,494
495,493,486,494,494
495,493,487,495,494
495,493,487,494,493
495,493,488,494,493
495,493,488,494,494
495,493,489,494,494
495,493,490,494,494
495,493,490,494,494
495,493,489,495,494
495,493,489,495,494
495,493,488,494,494
495,493,487,494,493
495,493,487,494,493
495,493,486,494,493
495,493,487,495,493
495,493,487,495,493
495,493,488,494,494
495,493,489,494,493
495,493,489,494,494
495,493,489,494,493
495,493,489,494,493
495,493,489,494,494
495,493,488,494,494
495,493,488,494,493
495,493,487,494,494
495,493,487,495,494
495,493,486,494,493
495,493,487,494,493
495,493,487,494,494
495,493,488,495,494
495,494,489,494,493
496,494,490,495,494
495,492,490,494,494
495,493,489,494,493
495,493,489,494,493
495,494,488,494,493
495,493,488,495,493
495,493,487,494,494
495,494,487,495,494
495,493,486,494,493
495,493,487,494,494
495,493,488,495,494
495,493,489,494,493
495,493,489,495,494
495,493,489,494,493
495,493,489,495,493
495,493,489,495,493
495,493,489,494,493
495,493,488,495,493
495,493,487,495,494
495,492,486,495,494
495,493,486,495,494
495,493,487,495,494
495,493,487,494,494
495,494,488,495,493
495,493,489,494,493
495,493,489,494,494
495,493,490,494,494
495,493,489,495,494
495,493,489,495,494
495,493,488,495,493
495,493,488,495,494
495,493,487,494,493
495,493,486,494,494
495,493,487,494,494
495,493,487,494,494
495,494,488,495,494
495,493,489,494,494
495,493,489,495,494
495,493,489,495,493
495,493,489,494,494
495,493,489,494,494
495,493,489,494,494
495,493,488,495,494
495,493,487,494,494
495,493,487,494,494
495,493,487,495,494
495,493,487,495,494
495,493,487,494,494
495,493,488,495,494
495,493,489,495,493
495,493,489,494,494
495,493,490,495,494
495,493,489,494,493
495,493,489,494,493
495,493,488,494,493
495,493,487,494,494
495,493,487,494,493
496,494,487,494,494
495,493,486,495,494
495,493,487,495,493
495,493,487,495,493
495,493,488,495,494
495,493,489,495,494
495,491,489,495,494
495,494,490,495,494
495,493,489,494,493
495,493,489,494,493
495,493,488,495,494
495,493,487,494,494
495,493,487,494,494
495,493,486,495,494
495,493,487,495,494
495,493,487,495,493
495,493,488,494,494
495,493,489,494,493
495,493,489,495,494
498,493,490,495,494
499,492,489,494,494
499,493,489,494,494
498,493,488,494,494
496,494,488,495,494
491,495,488,495,494
493,493,487,495,494
494,493,487,495,494
495,493,487,495,494
495,493,488,495,494
495,493,488,495,494
495,494,489,495,494
495,493,490,494,494
495,493,490,495,493
495,493,489,495,494
495,493,489,495,494
495,493,488,495,494
495,493,487,494,494
495,493,487,495,494
495,493,486,495,494
495,493,486,495,494
495,493,487,494,494
495,493,488,494,493
495,493,489,495,493
495,493,489,494,494
495,493,490,495,494
495,493,489,494,494
495,493,489,495,494
495,493,488,495,494
495,493,488,495,494
495,493,487,494,494
495,493,487,495,494
495,493,486,495,494
495,493,487,494,493
495,493,487,495,493
495,493,488,495,494
495,493,489,495,494
495,493,489,494,494
495,493,489,494,494
495,493,489,494,494
496,493,489,494,494
495,493,488,494,494
496,493,487,495,494
495,493,487,494,493
495,493,486,494,493
495,493,486,494,493
495,493,487,494,494
495,493,488,494,494
495,493,488,494,494
495,493,489,495,494
495,493,489,495,493
495,493,489,495,494
497,493,489,495,494
499,493,489,495,494
499,493,488,495,494
499,493,487,494,494
498,493,486,495,494
492,493,486,495,494
492,494,487,495,494
494,493,487,495,494
495,493,488,495,494
495,493,489,495,494
495,493,489,495,494
495,493,490,495,494
495,493,490,494,493
495,493,489,495,494
495,493,488,494,494
495,493,487,494,494
495,492,487,494,494
495,493,486,494,494
495,494,487,494,493
495,494,487,494,494
495,492,487,494,494
495,495,489,494,494
495,494,489,494,494
495,493,490,494,494
495,493,490,494,494
495,493,489,494,494
495,493,489,494,494
495,494,488,494,494
495,493,487,494,493
495,493,487,494,494
495,493,486,494,494
495,493,487,494,493
495,493,487,494,493
495,493,488,494,493
495,493,489,494,494
495,493,489,494,494
495,493,489,494,494
496,493,489,494,494
496,493,489,494,494
495,493,488,494,494
495,494,488,494,493
495,494,487,494,494
495,493,487,494,493
495,495,487,494,493
495,492,487,494,494
495,493,488,494,494
495,494,489,494,493
495,493,489,495,494
495,493,490,494,494
495,493,490,494,493
495,493,489,494,493
495,493,489,495,494
495,493,488,494,494
497,493,488,495,494
498,493,487,494,493
498,493,487,495,494
498,493,487,494,493
495,493,487,495,494
492,493,488,494,494
493,493,489,494,494
494,493,489,495,494
495,493,490,494,494
495,493,489,495,494
495,493,489,494,494
495,493,489,494,493
495,493,488,494,494
495,493,487,494,494
495,493,487,494,494
495,493,486,494,493
495,493,487,494,494
495,493,487,495,494
495,493,488,494,493
495,493,489,494,493
495,494,489,494,494
495,493,490,495,494
495,493,489,494,494
495,493,489,494,493
495,494,488,494,494
495,493,488,494,493
495,493,487,495,494
495,493,487,494,493
495,493,487,494,493
495,494,487,494,493
495,493,488,495,493
495,493,489,495,493
495,493,489,494,493
495,493,490,494,493
495,493,490,494,493
495,493,489,494,494
495,493,489,494,494
495,493,488,494,494
495,493,487,495,494
495,493,487,494,494
495,493,486,494,493
495,493,487,494,493
495,494,488,494,494
495,494,488,494,493
495,493,489,494,493
495,493,490,494,494
495,493,490,494,493
495,493,490,494,493
495,493,489,494,493
495,493,488,494,493
495,493,488,494,493
495,493,487,494,494
496,493,486,494,494
495,493,487,494,493
495,493,487,494,493
495,493,488,494,494
495,493,488,494,494
496,493,489,494,493
496,493,489,494,494
496,493,490,494,493
495,494,489,494,494
495,494,489,494,493
495,492,488,495,494
495,491,487,494,493
495,494,487,494,493
495,493,487,494,494
495,493,487,494,494
495,493,487,494,493
495,493,488,494,493
495,493,489,494,494
495,493,489,494,493
495,493,489,494,494
495,493,489,494,493
495,493,489,494,493
495,493,488,494,493
495,493,488,494,493
495,494,487,494,493
495,492,486,494,493
495,493,486,494,494
495,493,487,494,494
495,493,487,494,493
495,493,488,494,493
495,493,489,494,493
495,493,489,494,493
495,493,490,494,493
495,493,489,494,494
495,493,489,494,493
495,493,488,494,494
495,493,487,494,493
495,493,487,494,494
495,493,486,494,493
497,493,486,494,493
498,493,487,494,493
499,493,488,494,494
498,493,488,494,493
495,493,489,495,494
491,493,489,494,493
493,494,489,494,493
495,493,489,494,493
495,493,488,494,493
495,493,488,494,493
495,493,487,494,493
495,493,486,494,493
495,493,486,494,493
495,493,487,494,493
495,493,487,494,493
495,493,488,494,493
495,493,489,494,493
495,493,489,494,493
495,493,489,494,493
495,493,489,494,493
495,493,489,494,493
495,493,488,494,493
495,493,488,494,493
495,493,487,494,493
495,493,486,494,493
495,493,486,494,493
495,493,487,494,493
495,493,488,494,493
495,493,488,494,493
495,493,489,494,493
495,493,489,494,493
495,493,490,494,494
496,493,489,494,493
495,493,488,494,493
496,492,488,494,493
496,492,487,495,494
499,492,486,494,493
499,492,486,494,493
499,494,487,494,493
498,495,488,494,493
493,494,488,494,494
491,493,489,494,494
493,493,489,494,493
495,494,490,494,494
495,494,490,494,493
495,494,489,494,494
495,493,488,494,493
495,493,488,494,493
495,493,487,494,493
495,493,487,494,493
495,493,487,495,494
495,493,487,494,493
495,493,488,494,493
495,493,489,494,493
495,493,489,494,493
495,493,490,494,493
495,493,490,494,493
495,493,489,494,493
495,493,489,494,493
495,493,488,494,493
495,493,487,494,493
495,493,487,494,493
495,493,486,494,493
495,493,487,494,493
495,493,487,494,493
495,493,488,494,493
495,493,489,494,493
495,493,489,494,493
495,493,490,494,493
495,493,490,495,494
496,493,489,494,493
495,493,488,494,493
495,493,488,494,493
495,492,487,494,493
495,494,487,494,494
496,494,487,494,493
495,493,487,493,493
495,493,488,494,493
495,493,488,495,494
495,493,489,494,493
495,493,489,494,493
495,493,490,494,493
495,493,489,494,493
495,493,489,494,493
495,493,488,494,493
495,493,487,494,493
495,493,487,494,493
495,493,486,494,493
495,493,487,494,493
495,493,487,494,493
495,493,488,494,493
495,493,489,494,493
495,493,489,494,493
495,493,490,494,493
495,493,490,494,493
495,493,490,494,493
495,493,489,494,493
495,493,488,494,493
495,493,488,494,493
495,493,487,494,493
495,493,487,494,493
495,493,487,494,493
495,493,488,494,493
496,493,489,494,493
495,493,490,494,493
495,493,490,494,494
495,493,490,494,493
495,493,490,494,493
495,493,490,494,493
495,493,489,494,493
495,493,488,494,493
495,493,488,494,493
495,493,487,494,493
495,493,487,494,493
495,493,488,494,494
495,493,489,494,493
495,493,489,494,493
495,493,490,494,493
495,493,490,494,493
495,493,490,494,493
495,493,490,494,493
495,493,489,494,493
495,493,489,494,493
495,493,488,494,493
495,493,487,494,494
495,493,487,494,494
495,493,487,494,493
495,493,488,494,493
495,493,489,494,493
495,493,489,494,493
495,493,490,494,494
495,493,490,494,493
495,493,490,494,493
495,493,489,494,494
496,493,489,494,493
495,493,488,494,493
495,493,487,494,493
495,493,487,494,493
495,493,487,494,493
495,494,487,494,493
495,493,488,494,493
495,493,489,494,493
495,493,489,494,493
495,493,490,494,493
495,493,490,494,493
495,493,489,494,493
495,493,489,494,493
495,493,488,494,493
495,493,488,494,493
495,493,487,494,493
495,493,487,494,493
495,493,487,494,493
495,493,488,494,493
495,493,488,494,493
495,493,489,494,493
495,493,489,494,493
495,493,490,494,493
495,494,490,494,493
495,493,489,494,493
495,493,488,494,493
495,493,488,494,493
495,493,487,493,493
495,493,487,494,493
495,495,487,494,493
495,492,487,494,493
495,493,487,494,494
496,492,488,494,493
495,492,489,494,493
495,493,489,494,493
495,493,489,494,493
495,494,489,494,494
495,493,489,494,493
495,493,488,494,493
495,491,487,494,493
495,492,487,494,493
495,494,486,494,493
495,493,486,494,493
495,493,487,494,493
495,493,488,494,493
495,493,488,494,493
495,493,489,494,493
495,493,489,494,493
495,493,489,494,493
495,493,489,494,493
495,493,488,494,493
495,493,487,494,493
495,493,487,494,493
495,493,487,494,493
495,493,486,494,493
495,493,487,494,493
495,493,487,494,493
495,493,488,494,493
495,493,489,494,493
495,493,489,494,493
496,493,489,494,493
498,493,489,494,493
498,492,489,494,493
499,493,488,494,493
498,493,487,494,493
495,493,487,494,494
491,493,486,494,494
493,493,487,494,494
494,493,487,494,493
495,493,488,494,494
495,493,489,494,493
495,493,489,494,494
495,493,490,494,493
495,493,489,494,493
495,493,489,494,493
495,493,488,494,493
495,493,488,494,493
495,493,487,494,493
495,493,487,494,493
495,493,486,494,493
495,493,487,494,493
495,493,487,494,493
495,492,488,494,494
495,492,489,494,493
495,493,489,494,493
495,493,489,494,493
495,493,489,494,493
495,493,489,494,493
495,493,488,494,493
495,493,487,494,493
495,493,487,494,493
495,493,486,494,493
495,493,486,494,494
495,493,487,494,493
495,493,488,494,493
495,493,488,494,493
495,493,489,494,493
495,493,489,494,493
495,493,489,494,493
495,493,489,494,493
495,493,488,494,494
495,493,488,494,493
495,493,487,494,493
495,493,487,494,493
495,493,486,494,493
495,493,487,494,493
495,493,487,494,493
495,493,488,494,493
495,493,489,494,493
495,492,489,494,493
495,492,489,494,493
495,493,489,494,494
496,494,489,494,493
495,494,488,494,493
495,493,487,494,493
495,493,487,494,493
495,493,486,494,493
495,493,487,494,493
495,493,487,494,493
495,493,488,494,493
495,494,489,494,493
495,492,489,494,493
495,491,489,494,494
495,491,489,494,493
495,494,489,494,493
495,493,488,494,493
495,493,488,494,493
495,493,487,494,494
495,493,487,494,493
495,493,486,494,493
495,493,486,494,493
495,493,487,494,493
495,492,488,494,493
496,492,488,494,493
495,493,489,494,493
495,493,489,494,494
495,493,489,494,493
495,493,489,494,493
495,493,488,494,494
495,493,488,494,493
495,493,487,494,493
495,493,487,494,493
495,493,486,494,493
495,493,487,494,493
495,493,487,494,493
495,493,488,494,493
495,493,489,494,493
495,493,489,494,493
495,493,490,494,493
495,493,489,494,493
495,493,489,494,493
495,493,488,494,493
495,493,487,494,493
495,493,487,494,493
495,493,486,494,493
495,493,487,494,493
495,493,487,494,493
495,493,488,494,493
495,493,489,494,493
495,493,489,494,493
495,493,489,494,493
495,493,489,494,493
495,493,489,494,493
495,493,488,494,493
495,493,488,494,493
495,493,487,494,493
495,493,486,494,493
495,493,486,494,493
495,493,487,494,493
495,493,487,494,494
495,493,488,494,493
495,493,489,494,493
495,493,489,494,493
495,493,489,494,493
495,493,489,494,493
495,493,489,494,493
495,493,488,494,493
495,493,487,493,493
495,493,487,494,493
495,493,486,494,493
495,493,486,494,493
495,493,487,494,493
495,492,488,494,493
495,493,488,494,493
495,492,489,494,493
495,493,489,493,493
496,493,490,493,490
493,491,490,490,489
494,489,490,494,495
505,500,490,498,495
499,493,488,494,493
492,492,486,487,487
485,488,488,504,500
498,495,487,490,488
488,488,487,495,501
502,497,488,496,495
495,494,488,494,493
495,493,489,494,493
495,494,490,494,493
495,494,489,494,493
495,492,489,494,493
495,493,488,494,493
495,492,487,493,494
495,492,487,495,493
492,489,485,488,488
490,489,487,498,507
504,497,487,495,494
496,493,487,494,493
495,493,488,494,493
493,493,489,494,493
495,494,489,494,493
494,491,488,496,496
496,491,488,494,493
495,493,488,494,493
495,494,487,494,493
495,493,487,494,493
495,493,486,494,493
495,494,486,494,493
495,493,486,494,494
495,493,487,494,493
495,493,488,494,493
495,493,489,494,493
495,493,489,494,493
495,493,489,494,493
495,493,489,494,493
495,493,489,494,493
495,493,488,494,493
495,493,487,494,493
495,493,487,494,493
495,493,486,494,493
495,493,486,494,493
495,493,487,494,493
495,493,487,494,493
495,493,488,494,493
495,493,489,494,493
495,493,489,494,493
495,493,489,494,493
495,493,489,494,493
495,493,489,494,493
495,493,488,494,493
495,493,487,494,493
495,493,487,494,493
495,493,486,494,493
495,493,487,494,493
495,493,487,494,493
495,493,488,494,493
495,493,489,494,493
495,493,489,494,493
495,493,489,494,493
495,493,489,494,493
495,493,489,494,493
495,493,488,494,493
495,493,488,494,493
495,493,487,494,493
495,493,487,494,493
495,493,486,494,493
495,493,487,494,493
495,493,487,494,493
495,493,488,494,493
495,493,489,494,493
495,493,489,494,493
495,493,489,494,493
495,493,489,494,493
495,493,489,494,493
495,493,488,494,493
495,493,487,494,493
495,493,487,494,493
495,493,486,494,493
495,493,486,494,493
495,493,487,494,493
495,493,488,494,493
495,495,489,494,493
495,493,489,494,493
495,492,489,494,493
495,493,489,494,493
495,493,489,494,493
495,493,488,494,493
495,493,488,494,493
495,493,487,494,493
495,493,486,494,493
495,493,487,494,493
495,495,487,494,493
495,492,487,494,493
495,493,488,494,493
495,491,488,494,493
495,493,489,494,493
495,494,489,494,493
496,493,489,494,493
495,493,489,494,493
495,493,488,494,493
495,493,487,494,493
495,493,487,494,493
495,493,486,494,493
495,493,486,494,493
495,493,487,494,493
495,493,487,494,493
495,493,488,494,493
495,493,489,494,493
495,493,489,494,493
495,493,489,494,493
495,493,489,494,493
495,493,489,494,493
495,493,488,494,493
495,493,487,494,493
495,493,487,494,493
495,493,486,494,493
495,493,487,494,493
495,493,487,494,493
495,493,488,494,493
495,493,488,494,493
495,493,489,494,493
495,493,489,494,493
495,494,489,494,493
495,493,489,494,493
495,493,488,494,493
495,493,487,494,493
495,493,487,494,493
495,493,486,494,493
495,493,486,494,493
495,493,487,494,493
495,493,487,494,493
495,493,488,494,493
495,493,489,494,493
495,493,489,494,493
495,493,489,494,493
495,493,489,493,493
495,493,489,494,493
495,493,488,494,493
495,493,487,494,493
495,493,487,494,493
495,493,486,494,493
495,493,486,494,493
495,493,487,494,493
495,493,487,494,492
495,493,488,494,493
495,493,489,494,493
495,492,489,494,493
495,493,489,494,493
495,493,489,494,493
495,492,488,494,493
495,492,487,494,493
495,493,487,494,493
495,493,486,494,493
495,493,486,494,493
495,493,486,494,493
495,493,487,494,493
495,493,488,494,493
495,493,489,494,493
495,493,489,494,493
495,493,489,494,493
495,492,489,494,493
495,493,489,494,493
495,493,488,494,493
495,493,487,494,493
495,493,487,494,493
495,493,486,494,493
495,493,486,494,493
495,492,487,494,493
495,493,487,494,493
495,493,488,494,493
495,493,489,494,493
495,493,489,494,493
495,493,489,494,493
495,493,489,494,493
495,493,488,494,493
495,493,487,494,493
495,493,487,494,493
495,493,487,494,493
495,493,486,494,493
495,493,487,494,493
495,493,487,494,493
495,493,488,494,493
495,493,489,494,493
495,493,489,494,493
496,494,489,494,493
495,493,489,494,493
494,493,489,494,493
495,493,488,494,493
495,493,487,494,493
495,493,487,494,493
495,493,486,494,493
495,493,486,494,493
495,493,487,494,493
495,493,487,493,493
495,493,488,494,493
495,491,488,494,494
495,493,489,494,493
495,493,489,494,493
495,493,489,494,493
495,493,488,494,493
495,492,488,494,493
495,493,487,494,493
495,493,487,494,493
495,493,486,494,493
495,493,486,494,493
495,493,487,494,493
495,493,488,494,493
495,493,489,494,493
494,492,489,494,494
495,493,489,494,493
495,493,489,494,493
495,493,489,494,493
495,493,488,494,493
495,493,487,494,493
495,493,487,494,493
495,493,486,494,493
495,493,486,494,493
495,493,487,494,493
495,493,487,494,493
495,493,488,494,493
495,493,489,494,493
495,493,489,494,493
495,493,489,494,493
495,493,489,494,493
495,493,489,494,493
495,493,488,494,493
495,493,487,494,493
495,493,487,494,493
495,493,486,494,493
495,493,486,494,493
495,493,487,494,493
495,493,488,494,493
495,492,488,494,493
495,493,489,494,493
495,492,489,494,493
495,494,489,494,493
495,493,489,494,493
495,493,488,494,493
495,493,487,494,493
495,493,487,494,493
495,493,486,494,493
495,493,486,494,493
495,493,486,493,493
495,492,487,494,493
495,492,488,494,493
495,492,488,494,493
495,493,489,494,493
495,493,489,494,494
495,493,489,494,493
495,493,488,494,493
495,493,488,493,493
495,493,487,494,493
495,493,487,494,493
495,493,486,494,493
495,493,486,494,493
495,493,487,494,493
495,493,488,494,493
495,493,488,494,493
495,493,489,494,493
495,493,489,493,493
495,493,489,494,493
495,493,489,494,493
495,493,488,494,493
495,493,487,494,493
495,493,487,494,493
495,493,486,494,493
495,493,486,494,493
496,493,486,494,493
495,493,487,494,493
495,493,488,494,493
495,495,489,493,493
495,493,489,494,493
495,493,489,494,493
495,493,489,494,493
495,493,489,494,493
495,493,488,494,493
495,493,487,494,493
495,493,487,494,493
495,493,486,494,493
495,493,486,494,493
495,493,487,494,493
495,493,488,494,493
495,493,488,494,493
495,492,489,494,493
495,491,489,494,493
495,494,489,494,493
495,493,489,494,493
495,493,488,494,493
495,493,488,494,493
495,493,487,494,493
495,493,486,494,493
495,493,486,494,493
495,493,486,494,493
495,493,487,494,493
495,493,488,494,493
495,493,488,494,493
495,493,489,494,493
495,493,489,494,493
495,493,489,494,493
495,493,489,494,493
495,493,488,494,493
495,493,487,494,493
495,493,487,494,493
495,493,486,494,493
495,493,486,494,493
495,493,486,494,493
495,493,487,494,493
495,493,488,494,493
495,493,489,494,493
495,493,489,493,493
495,493,489,494,493
495,493,489,493,493
495,494,489,493,493
495,493,488,494,493
495,493,487,494,493
495,493,487,494,493
495,493,486,494,493
495,492,486,494,493
495,493,487,494,493
495,493,488,494,493
495,493,488,494,493
495,493,489,494,493
495,493,489,494,493
495,493,489,494,493
495,493,489,494,493
495,493,488,494,493
495,493,487,494,493
495,493,487,494,493
495,493,486,494,493
495,493,486,494,493
495,493,486,494,493
495,493,487,494,493
495,493,488,494,493
495,493,489,494,493
495,493,489,494,493
495,493,489,494,493
495,493,489,494,493
495,493,489,494,493
495,493,488,494,493
495,493,487,494,493
495,493,487,494,493
495,492,486,494,493
495,493,486,494,493
495,493,487,494,493
495,493,488,494,493
495,494,489,494,493
495,493,489,494,493
495,492,489,494,493
495,493,489,494,493
495,493,489,494,493
495,493,488,494,493
495,493,487,494,493
495,493,487,494,493
495,493,486,494,493
495,493,486,494,493
495,493,487,494,493
495,493,487,494,493
495,493,488,493,493
495,493,489,494,493
495,493,489,494,493
495,493,489,494,493
495,493,489,494,493
495,493,489,494,493
495,493,488,494,493
495,493,487,494,493
495,493,487,494,493
495,493,486,494,493
495,493,486,494,493
495,492,487,494,493
495,491,487,494,493
495,492,488,494,493
495,493,489,494,493
495,493,489,493,493
495,493,489,494,493
495,493,489,494,493
495,493,488,494,493
495,493,487,494,493
495,493,487,494,493
495,493,486,494,493
495,493,486,494,493
495,493,486,494,493
495,492,487,494,493
495,493,488,494,493
495,493,489,494,493
495,493,489,494,493
495,493,489,494,493
495,493,489,494,493
495,493,489,494,493
495,493,488,494,493
495,493,487,494,493
495,493,487,494,493
