Sensor0,Sensor1,Sensor2,Sensor3,Sensor4

494,491,737,495,494
497,491,559,493,493
494,495,386,496,493
494,496,269,492,494
496,494,224,495,494
496,491,224,492,494
496,492,264,494,494
492,490,350,491,494
492,491,458,494,494
495,490,597,493,494
493,489,761,495,494
492,493,824,496,494
496,494,795,497,494
497,493,667,495,493
496,493,476,494,493
496,492,329,495,493
495,493,247,494,493
495,495,218,495,494
493,493,240,495,494
493,492,295,492,494
492,493,395,493,494
492,490,524,494,494
493,490,675,493,494
493,490,804,495,494
495,494,816,493,494
492,493,754,497,494
495,492,582,496,493
494,494,413,495,494
494,491,277,492,494
496,492,224,493,493
492,492,221,494,494
494,494,255,494,493
493,491,335,494,494
493,491,447,493,494
493,491,582,493,494
494,492,742,495,494
495,493,823,496,494
494,493,799,495,494
496,492,688,495,494
496,493,504,495,493
495,494,352,496,493
495,494,251,495,493
494,493,216,493,494
493,493,233,494,494
494,492,282,493,494
493,492,379,494,494
493,492,507,494,494
493,491,650,494,494
494,491,794,494,494
494,491,816,494,494
493,492,769,495,494
495,492,611,495,493
494,492,438,495,494
494,493,297,494,493
494,493,228,494,493
493,491,217,495,494
494,492,248,493,494
494,491,319,494,494
495,493,438,493,494
493,491,569,494,494
494,491,722,493,494
495,490,816,494,494
493,490,801,496,494
497,492,710,493,493
495,495,527,494,493
495,494,375,494,493
494,494,257,493,493
495,491,215,494,494
494,494,228,494,494
494,494,271,493,494
495,491,363,494,494
493,491,483,493,494
494,493,627,495,494
492,493,779,494,494
494,492,821,495,494
493,491,784,495,493
494,494,636,494,493
496,494,451,495,493
495,493,308,494,493
496,491,237,493,493
494,493,218,495,494
494,492,243,494,494
495,491,309,494,494
494,493,415,494,494
493,491,550,494,494
493,492,701,493,494
492,492,815,494,494
493,492,810,494,494
494,493,732,496,493
495,494,555,494,493
494,493,400,494,493
496,495,264,494,493
494,493,218,494,493
495,493,225,494,493
493,493,263,494,494
495,492,351,493,494
493,491,483,493,494
493,492,615,493,494
492,492,759,495,494
494,492,818,495,494
494,492,789,494,494
496,494,658,494,493
494,493,490,495,493
495,493,343,496,493
494,493,235,494,493
494,493,210,495,494
493,493,234,493,494
495,492,292,495,494
493,492,401,494,494
494,492,530,494,494
495,491,674,494,494
492,492,801,495,494
495,492,809,494,494
495,493,747,496,493
495,492,576,495,493
495,493,410,494,493
495,495,273,494,493
496,493,222,494,493
494,493,221,494,494
495,493,253,493,494
494,492,335,494,494
494,491,453,494,494
494,492,587,494,494
493,493,744,494,494
493,493,820,496,494
494,492,798,494,493
496,493,685,495,493
496,493,501,495,493
495,493,352,495,493
495,493,248,495,494
494,493,213,494,493
494,493,233,494,494
494,492,282,494,494
495,492,386,494,494
494,492,516,495,494
494,491,651,494,494
494,491,791,494,494
495,492,815,495,494
494,492,763,496,494
494,493,606,495,494
495,494,442,495,493
494,494,299,495,493
496,494,227,493,493
494,492,218,493,494
495,492,247,494,494
494,493,321,494,494
493,492,442,493,494
494,491,572,494,494
493,493,723,493,494
494,491,818,493,494
494,494,800,496,494
494,494,707,496,493
496,493,523,495,493
496,493,370,493,493
496,495,254,493,493
494,492,216,494,493
494,492,228,492,494
496,493,273,492,494
492,490,366,494,494
493,491,485,494,494
493,493,631,492,494
494,493,784,495,494
493,492,820,494,494
493,491,781,493,494
493,492,632,495,493
498,492,443,493,493
497,492,301,496,493
493,495,236,494,494
493,491,219,496,494
495,491,246,493,494
494,491,312,494,494
492,493,413,492,494
494,491,548,495,494
492,490,707,492,494
495,491,817,495,494
493,492,810,494,494
494,491,732,494,493
494,493,550,494,493
496,492,387,495,493
494,494,268,493,493
495,492,221,493,494
496,493,228,494,494
495,491,265,493,494
495,491,352,492,494
494,491,474,494,494
492,491,609,494,494
492,489,763,495,494
495,494,823,493,494
495,494,791,494,494
495,493,655,496,494
494,492,472,494,493
494,495,328,495,493
496,492,244,494,493
493,492,216,495,494
493,492,241,492,494
494,493,298,494,494
492,494,400,495,494
495,491,524,494,494
492,490,683,491,494
492,490,807,492,494
494,493,814,496,494
496,491,750,494,493
494,493,576,495,493
495,492,401,496,493
495,495,275,493,493
496,495,224,493,493
494,493,222,496,494
493,491,255,493,494
495,490,339,495,494
493,491,452,493,494
493,491,585,492,494
493,492,753,493,494
493,491,823,494,494
496,494,796,496,494
495,492,681,493,493
496,492,495,495,494
495,494,343,495,493
496,492,251,493,493
493,494,215,494,493
495,493,235,495,494
495,494,288,495,494
493,491,383,494,494
493,492,511,495,494
492,490,661,493,494
495,492,795,495,494
495,491,816,496,494
494,491,763,494,493
495,493,601,496,493
497,495,424,493,493
496,494,288,493,493
496,492,231,493,493
495,492,222,493,494
492,491,250,494,494
494,494,327,492,494
494,493,436,492,494
493,493,569,493,494
492,490,731,493,494
495,490,823,493,494
494,493,803,495,494
494,492,704,493,494
493,496,519,495,493
495,492,363,494,494
495,494,259,493,494
493,494,218,495,493
494,493,233,492,494
492,490,278,493,494
493,491,370,494,494
493,491,489,493,494
495,491,636,495,494
496,493,787,495,494
495,493,821,493,494
495,491,780,494,494
497,492,629,495,493
495,492,444,494,493
495,495,303,495,493
494,493,235,494,493
493,494,218,493,494
493,491,247,492,494
493,492,312,493,494
492,491,417,493,494
495,490,553,494,494
492,490,711,490,494
492,492,819,494,494
493,492,807,492,494
497,490,726,494,493
497,493,545,497,494
494,492,384,495,493
495,492,264,494,494
493,492,220,494,494
492,492,229,494,494
493,491,269,494,494
492,493,357,495,494
493,493,475,495,494
495,492,612,493,494
495,492,770,495,494
492,490,820,496,494
494,491,791,495,494
495,494,653,494,493
494,492,466,494,493
495,495,321,495,493
496,493,243,494,494
493,491,219,493,494
495,494,243,493,494
493,492,301,494,494
494,492,403,494,494
494,491,530,494,494
492,490,687,492,494
493,491,811,495,494
495,491,813,494,494
493,492,746,494,493
495,492,569,496,493
494,493,402,494,493
493,492,275,496,493
496,494,225,495,494
495,494,225,493,493
493,491,257,495,494
494,493,340,495,494
493,493,455,495,494
492,491,589,492,494
495,490,755,494,494
492,490,825,495,494
493,491,794,493,494
495,493,679,496,493
494,494,491,495,493
497,494,343,495,493
494,492,248,496,494
495,494,218,494,494
495,495,238,492,494
494,492,286,494,494
494,495,384,493,494
493,492,510,493,494
492,493,665,495,494
494,491,797,495,494
493,491,815,494,494
496,495,760,494,494
494,494,600,495,493
494,492,418,494,493
494,494,283,496,493
496,494,231,495,494
493,491,222,494,494
496,494,253,495,494
493,493,328,495,494
494,493,439,494,494
493,491,571,495,494
492,490,736,494,494
492,493,822,495,494
495,492,802,496,494
496,495,703,494,494
495,493,515,494,493
494,494,361,495,493
494,493,256,494,494
493,493,219,493,494
494,492,232,493,493
493,494,280,493,494
494,493,374,493,494
494,491,496,492,494
494,491,639,495,494
493,492,788,495,494
495,492,819,495,494
496,494,778,496,493
496,494,624,495,493
494,495,442,494,493
494,492,302,493,494
495,491,233,493,493
496,492,218,494,493
493,493,247,494,494
493,492,316,494,494
494,493,420,493,494
493,493,551,493,494
493,493,711,494,494
493,492,819,495,494
494,492,808,495,494
494,492,723,495,494
495,494,544,495,494
495,494,387,494,493
495,493,263,494,494
495,493,220,494,493
494,493,229,494,494
495,492,271,494,494
494,493,359,493,494
493,492,491,495,494
493,492,623,494,494
494,492,771,494,494
494,492,820,494,494
494,492,787,494,494
495,493,648,495,494
495,493,483,495,494
496,493,336,493,494
495,493,232,495,493
494,493,211,494,493
494,494,235,495,494
494,493,299,495,494
494,493,417,494,494
494,492,549,494,494
493,492,682,496,494
493,492,804,495,494
494,493,806,496,494
495,492,739,495,493
495,494,567,495,493
496,494,405,495,493
495,494,268,494,493
495,494,218,494,493
494,492,220,493,493
494,493,256,493,494
494,492,341,495,494
494,492,463,494,494
494,491,596,493,494
492,490,752,495,494
494,492,822,495,494
494,492,794,495,493
495,492,671,495,493
495,494,488,495,493
495,494,343,494,493
496,493,245,494,493
495,494,214,495,494
493,492,236,494,494
495,492,289,494,494
494,492,391,494,494
493,492,522,494,494
494,492,664,494,494
493,493,795,494,494
494,493,813,495,494
495,493,755,496,493
494,493,595,495,493
495,494,430,495,493
495,493,290,494,493
493,493,223,494,494
495,493,218,494,493
494,493,251,493,494
494,492,328,494,494
493,492,455,494,494
494,491,585,494,494
493,492,733,495,494
493,492,818,494,494
494,493,798,495,494
496,492,693,495,493
495,494,518,495,493
496,494,365,494,493
495,494,248,493,494
495,493,211,494,493
495,492,229,495,494
493,494,276,494,494
494,493,375,494,494
494,491,503,494,494
494,492,641,493,494
493,491,786,495,494
494,492,816,495,494
495,493,774,495,493
494,493,616,495,493
494,493,443,494,493
496,493,302,495,493
494,493,231,494,494
495,492,217,493,494
493,493,246,494,494
493,492,316,494,494
493,492,431,494,494
493,491,561,493,494
494,491,713,494,494
492,491,816,494,494
495,493,804,495,494
495,492,716,496,494
495,493,539,496,494
495,493,387,495,493
495,493,258,494,493
494,493,216,495,494
494,493,225,494,494
494,493,268,494,494
495,491,361,494,494
494,492,492,494,494
494,492,623,495,494
493,491,771,496,494
493,493,819,495,494
494,492,784,495,493
495,493,641,496,493
496,493,473,494,493
495,493,326,494,493
495,492,233,494,493
494,492,214,494,493
495,493,239,493,494
493,492,302,493,494
494,493,415,493,494
493,491,546,493,494
493,492,690,493,494
495,491,810,495,493
494,492,808,496,494
494,492,737,497,494
495,493,563,496,493
495,493,403,496,493
494,494,267,494,493
494,492,217,494,493
495,492,222,494,494
494,492,257,494,494
493,493,344,494,494
493,491,469,494,494
493,492,604,495,494
493,491,756,494,494
494,491,820,496,494
494,493,792,494,493
494,494,667,496,493
495,493,488,495,493
496,494,344,495,493
495,494,240,495,493
494,493,213,494,493
494,493,235,494,494
495,493,290,494,494
494,492,398,495,494
494,492,528,494,494
493,492,666,494,494
493,491,795,494,494
495,493,811,495,494
493,492,752,496,493
495,494,587,495,493
495,493,424,495,493
495,494,284,495,493
494,492,221,493,493
495,493,219,494,494
494,492,251,494,494
494,492,331,493,494
494,492,452,494,494
494,492,585,494,494
494,491,735,493,494
493,493,820,494,494
495,493,798,495,494
495,494,689,495,493
495,493,511,495,493
495,493,361,495,493
495,492,248,494,493
494,494,212,493,494
494,493,230,494,494
494,492,279,494,494
494,492,377,494,494
493,492,507,495,494
493,491,644,495,494
493,491,790,495,494
494,492,815,494,494
494,493,771,495,494
496,492,613,495,493
495,494,444,495,493
494,493,301,494,493
495,493,228,494,493
494,493,216,494,494
494,493,244,494,494
494,493,317,493,494
494,492,435,494,494
493,492,566,494,494
493,492,717,495,494
493,492,816,495,494
494,493,802,495,493
495,492,714,496,494
494,494,536,496,494
495,493,383,495,493
494,493,254,495,493
494,493,215,494,493
494,493,226,493,494
494,493,269,494,494
494,492,361,493,494
494,491,492,494,494
493,492,625,494,494
493,494,773,495,494
494,493,817,495,494
494,493,784,496,494
497,492,637,495,493
495,494,464,495,493
495,494,320,495,493
494,494,234,495,494
494,494,214,494,494
494,492,241,494,494
495,493,305,494,494
494,492,416,494,494
494,493,548,494,494
494,492,694,493,494
493,492,812,494,494
494,494,808,494,494
495,492,733,494,494
495,494,557,496,493
495,493,401,495,493
495,493,264,495,493
495,493,217,494,493
494,494,223,494,493
495,492,259,494,494
494,492,347,494,494
494,492,474,493,494
493,492,608,494,494
493,491,758,494,494
493,493,821,496,494
495,492,791,495,493
494,493,662,496,493
495,496,488,493,494
495,493,340,494,493
495,492,239,494,493
495,493,212,494,494
494,492,235,493,494
494,493,291,494,494
494,492,400,494,494
494,491,528,495,494
494,492,671,494,494
493,492,800,495,494
494,493,811,495,494
495,493,752,494,493
494,494,584,495,493
495,493,419,495,494
495,494,280,494,493
494,493,221,495,493
494,493,219,494,494
494,492,251,493,494
494,492,333,494,494
494,492,456,494,494
495,492,588,494,494
493,492,740,494,494
494,492,820,494,494
494,492,796,494,493
495,494,686,495,494
495,494,507,495,493
496,494,356,494,494
496,494,247,494,494
495,493,213,494,493
495,492,232,493,494
494,492,281,494,494
494,493,383,494,494
494,492,512,495,494
494,492,648,494,494
493,492,789,495,494
495,492,815,496,494
494,494,767,495,493
495,494,609,495,493
496,493,441,494,493
495,494,299,495,493
495,493,228,494,494
495,493,218,494,494
494,492,246,494,494
494,492,319,494,494
494,492,437,494,494
493,493,568,494,494
494,492,720,496,494
493,493,818,495,494
494,491,801,495,494
495,492,710,495,494
496,493,531,495,494
496,492,380,495,493
495,493,255,494,493
495,493,216,494,493
494,493,226,494,493
493,492,270,494,494
494,491,365,494,494
494,492,494,494,494
494,492,629,494,494
494,492,778,493,494
494,493,818,494,494
493,492,782,495,493
495,493,635,495,493
495,493,461,495,493
496,494,317,495,493
496,492,233,494,493
495,492,214,494,493
493,493,241,493,494
493,492,308,494,494
494,492,422,493,494
494,493,556,493,494
494,492,699,494,494
493,492,812,495,494
494,493,806,495,494
495,493,731,495,493
495,493,557,494,493
495,493,399,495,493
495,494,264,495,494
495,494,217,494,493
494,493,224,493,494
493,493,262,493,494
494,492,349,494,494
494,492,476,494,494
494,492,610,494,494
493,492,758,494,494
494,493,820,495,494
494,493,790,495,493
495,492,656,495,493
496,493,481,495,493
495,494,337,495,493
495,493,238,494,493
494,493,212,495,494
494,493,238,495,494
493,493,295,493,494
494,493,400,494,494
494,492,530,494,494
494,492,675,494,494
495,491,804,493,494
494,493,811,495,494
495,493,749,495,494
497,494,579,495,493
495,494,414,494,493
496,493,275,494,493
494,494,222,495,493
495,492,221,493,494
493,492,253,494,494
494,492,336,494,494
494,493,458,494,494
494,491,592,493,494
493,492,745,494,494
494,492,821,495,494
495,493,796,495,494
495,493,683,494,493
495,493,507,495,493
495,493,355,494,493
496,493,245,493,493
495,492,211,494,493
495,493,231,495,493
494,492,283,494,494
494,492,387,494,494
494,492,518,493,494
494,493,651,493,494
493,492,790,494,494
494,492,814,494,494
495,493,762,494,493
495,493,604,495,493
495,494,438,495,493
495,494,297,495,494
497,495,226,494,493
494,492,217,493,494
495,494,246,494,494
494,493,322,494,494
493,492,440,494,494
494,491,571,494,494
493,492,723,495,494
495,492,818,496,494
494,493,801,495,494
494,493,703,495,494
495,494,524,494,493
494,495,375,494,493
495,493,255,495,493
494,492,214,494,493
494,493,228,494,494
495,494,272,496,494
494,493,367,494,494
493,493,496,494,494
493,492,630,492,494
494,494,780,493,494
494,493,818,494,494
494,493,781,495,494
494,491,631,495,493
496,494,460,496,494
496,494,316,496,493
494,493,231,494,493
495,493,214,493,494
494,493,242,494,494
494,492,309,495,494
494,492,426,494,494
494,492,559,494,494
494,491,702,494,494
494,491,813,495,494
494,492,804,494,494
495,493,727,493,493
496,494,553,495,493
495,494,396,495,493
495,494,261,494,494
495,493,217,494,494
495,493,222,495,494
494,494,263,495,494
494,493,351,494,494
494,492,480,494,494
493,493,614,494,494
493,491,763,494,494
494,492,819,494,494
494,493,788,495,494
494,492,653,496,493
495,494,476,495,493
496,494,333,495,493
494,494,239,494,493
494,493,213,492,494
494,493,238,493,494
493,492,296,493,494
493,492,404,494,494
493,492,536,493,494
494,492,679,494,494
493,492,804,494,494
495,492,811,495,494
495,493,747,495,494
495,492,575,495,493
495,495,415,495,493
495,494,275,494,493
495,493,221,494,493
494,493,220,495,494
494,493,253,495,494
494,493,338,495,494
493,492,463,493,494
493,493,596,495,494
494,491,748,493,494
493,493,821,494,494
495,493,796,495,493
495,492,679,496,493
495,494,502,495,493
495,494,351,494,493
495,493,244,494,494
494,493,212,494,494
493,493,231,494,494
494,493,284,493,494
494,493,387,492,494
493,492,517,494,494
493,492,657,495,494
493,493,794,495,494
494,493,813,495,494
493,492,759,495,494
495,494,600,495,494
495,494,432,495,493
496,494,292,495,493
495,494,226,494,493
495,493,218,493,494
494,493,248,493,494
494,494,325,493,494
493,492,445,494,494
493,492,578,494,494
493,491,727,495,494
493,491,818,495,494
494,493,800,496,494
494,493,701,495,494
495,493,522,495,494
495,494,372,495,493
495,493,251,493,493
494,493,214,493,494
494,493,228,492,494
495,493,275,494,494
493,492,371,494,494
493,492,501,493,494
493,492,635,495,494
492,493,783,495,494
495,493,818,495,494
495,494,778,495,493
495,493,624,495,493
495,493,453,495,493
494,493,311,494,493
495,495,230,494,494
495,494,214,493,494
495,492,241,494,494
494,493,311,494,494
494,492,425,493,494
493,492,559,494,494
494,493,705,494,494
494,492,815,493,494
494,494,805,496,494
495,493,725,494,493
495,494,548,495,493
495,494,393,495,493
495,493,260,493,493
494,494,216,493,494
495,493,224,493,494
494,493,265,494,494
495,493,354,494,494
494,492,482,494,494
494,492,617,494,494
493,492,768,496,494
493,492,820,494,494
495,493,788,495,493
494,493,650,494,493
494,493,475,494,494
495,493,329,494,493
495,492,235,494,494
494,492,213,495,493
494,493,238,495,493
494,492,299,495,494
494,492,407,494,494
493,492,540,494,494
494,491,683,494,494
492,492,805,494,494
494,492,807,495,494
495,493,744,494,493
495,494,570,495,493
495,494,409,495,493
495,493,270,494,494
494,493,218,494,494
494,494,221,494,494
495,492,255,495,494
494,493,340,494,494
494,492,465,494,494
493,491,598,494,494
493,492,748,493,494
492,494,821,493,494
496,490,794,492,494
496,492,673,494,494
495,494,494,495,493
494,494,347,495,494
494,493,243,494,493
494,493,212,493,494
494,492,234,493,494
494,494,287,494,494
493,493,387,494,494
493,492,517,494,494
493,493,661,493,494
493,491,796,494,494
493,492,815,494,494
493,493,756,495,493
494,494,597,495,493
495,493,429,494,493
495,494,289,493,494
496,492,224,493,494
494,493,218,493,494
494,492,249,493,494
493,494,325,495,494
494,493,446,494,494
495,493,580,495,494
496,492,732,493,494
492,492,821,494,494
494,492,800,495,494
495,493,698,496,494
495,494,513,495,494
494,493,362,495,493
495,494,251,493,494
494,493,215,494,494
495,492,231,494,494
495,494,276,493,494
494,491,371,493,494
492,494,497,494,494
493,494,640,493,494
495,490,788,493,494
493,493,819,495,494
493,494,776,495,494
494,494,622,496,494
494,494,441,495,493
495,494,300,494,493
496,493,233,494,494
495,493,219,493,493
495,492,246,494,494
493,492,315,493,494
494,493,423,494,494
493,492,556,494,494
493,492,711,493,494
493,492,818,495,494
495,492,807,495,494
495,494,721,495,493
496,493,541,494,493
495,493,386,495,493
496,494,263,495,493
494,493,218,495,494
494,493,227,494,494
493,492,267,493,494
493,493,358,494,494
493,492,488,494,494
493,491,620,494,494
493,491,771,494,494
493,492,821,495,494
494,492,787,495,494
494,494,647,495,494
495,493,478,495,493
494,494,330,495,493
496,492,235,494,494
494,493,212,493,494
493,493,237,494,494
494,492,299,494,494
493,493,413,494,494
493,492,545,494,494
494,491,689,494,494
492,492,810,494,494
495,494,809,495,494
494,493,737,495,494
495,492,565,495,493
495,494,403,495,493
495,495,269,495,493
494,494,218,495,493
494,493,221,495,494
495,493,255,494,494
493,493,343,494,494
492,492,460,494,494
493,492,597,494,494
492,493,756,493,494
493,492,822,495,494
493,494,797,496,494
495,493,673,496,493
496,493,485,495,493
495,494,338,494,493
496,494,246,494,493
495,492,215,494,494
495,494,236,494,494
494,493,290,494,494
494,493,389,494,494
493,492,520,494,494
492,492,667,494,494
491,491,798,495,494
494,493,815,494,494
495,494,758,495,494
495,493,593,496,494
495,494,425,494,493
494,494,287,494,493
494,493,226,494,493
495,493,220,494,494
493,493,251,494,494
493,492,330,494,494
493,491,452,494,494
494,491,585,494,494
494,491,735,494,494
494,492,821,494,494
494,493,801,495,494
495,492,693,495,494
495,494,520,495,493
495,494,367,494,493
495,494,247,494,494
495,494,213,494,494
493,493,228,494,494
494,493,276,494,494
495,492,377,494,494
494,492,507,494,494
493,491,641,493,494
493,493,788,494,494
494,493,816,494,494
494,493,774,495,494
494,492,617,495,494
495,494,445,494,493
495,493,301,493,493
495,493,229,494,493
495,493,216,494,494
494,492,244,494,494
494,493,315,494,494
494,492,428,494,494
493,492,561,494,494
493,492,714,494,494
493,491,818,496,494
495,491,806,494,494
494,493,717,495,493
494,494,535,495,493
495,492,382,493,493
494,493,257,493,494
494,493,215,494,494
494,493,225,495,494
494,493,268,494,494
493,493,358,493,494
494,492,490,494,494
492,492,623,494,494
494,493,772,495,494
493,492,820,495,494
494,494,785,494,494
495,494,641,494,494
496,492,468,495,493
494,493,324,494,493
494,492,235,492,494
494,494,213,495,494
494,493,239,494,494
494,494,302,494,494
494,492,413,493,494
494,492,546,494,494
493,491,692,494,494
493,491,811,494,494
494,493,808,495,494
494,493,735,495,493
495,494,561,494,494
495,494,402,494,493
496,494,266,494,493
494,493,218,492,494
494,493,222,494,494
494,492,257,493,494
494,493,343,493,494
493,492,468,494,494
494,492,604,493,493
493,492,756,493,494
494,493,820,493,494
494,492,795,495,493
496,495,667,495,493
495,493,487,495,493
495,494,341,494,493
495,493,241,494,493
495,492,213,493,494
494,493,235,494,493
493,493,290,494,494
493,492,393,494,494
494,491,526,494,494
494,492,671,494,494
492,492,798,495,494
494,491,812,494,494
495,494,753,494,494
494,493,587,495,493
495,493,421,495,493
495,495,282,494,493
495,493,222,495,493
494,493,219,494,494
495,492,250,493,494
495,493,331,494,494
494,492,453,494,494
494,493,587,494,494
494,492,736,495,494
493,493,821,495,494
494,493,800,495,494
494,493,690,495,493
495,494,510,494,493
495,494,360,495,493
495,494,248,494,493
495,493,212,494,493
493,492,230,494,494
494,492,285,494,494
494,492,412,493,494
494,492,550,493,494
493,492,678,494,494
493,491,774,494,494
494,493,804,495,494
495,492,760,495,494
495,493,629,495,493
495,493,476,494,493
495,494,333,495,493
495,494,218,494,493
496,492,195,494,494
494,492,227,494,494
494,493,320,494,494
494,492,461,493,494
493,492,594,493,494
494,492,716,495,494
494,492,796,495,494
494,493,784,495,494
494,494,706,494,493
495,493,558,495,493
495,493,410,494,493
495,495,273,494,493
495,494,190,494,493
494,493,204,494,494
494,493,254,493,494
494,492,376,493,494
494,491,519,493,494
494,492,650,494,494
493,493,751,495,494
494,493,796,495,494
495,493,765,495,493
494,493,644,494,493
494,493,492,494,493
495,494,347,494,493
495,493,227,494,493
494,492,190,494,494
494,492,219,493,494
494,492,300,493,494
493,492,440,494,494
494,492,578,493,494
494,491,699,495,494
494,493,788,494,494
495,493,787,495,494
494,492,720,495,493
496,493,576,494,493
495,493,428,494,493
496,493,290,495,493
494,494,192,493,493
494,493,199,493,494
494,494,241,494,494
494,492,357,494,494
494,493,500,493,494
494,492,632,494,494
493,493,739,494,494
494,492,798,495,494
494,493,773,495,494
494,493,663,493,493
495,493,511,495,493
495,494,368,494,493
495,493,238,494,493
494,494,187,494,494
494,491,213,493,494
494,492,282,494,494
494,493,419,493,494
494,493,556,494,494
494,491,684,494,494
493,492,778,493,494
494,492,790,495,494
494,493,735,494,493
495,494,600,495,493
495,494,447,495,493
496,493,307,494,493
494,494,200,494,493
494,493,196,494,493
495,493,232,494,494
494,493,337,494,494
493,492,482,494,494
492,492,616,494,494
495,492,729,494,494
494,492,798,495,494
493,492,779,495,494
494,492,684,495,493
494,493,533,495,493
495,493,384,494,493
495,495,255,495,493
495,494,186,494,494
494,494,210,493,494
495,492,268,493,494
494,493,400,493,494
494,493,538,494,494
493,492,669,494,494
493,492,765,494,494
494,492,794,494,494
494,493,749,494,493
494,493,618,495,493
495,495,465,496,493
494,493,325,494,493
495,493,212,494,493
495,493,192,494,494
495,492,225,494,494
494,492,320,492,494
493,491,462,493,494
493,492,596,494,494
493,492,715,494,494
492,492,795,494,494
493,492,782,494,493
494,493,701,494,493
495,492,551,494,493
495,493,407,494,493
495,494,270,494,493
495,493,188,493,494
493,493,205,494,494
494,493,256,493,494
493,492,380,493,494
494,492,521,494,494
493,492,653,494,494
493,492,753,495,494
493,492,798,494,494
494,492,764,494,494
494,493,640,495,494
495,494,488,494,493
495,494,342,494,493
493,494,224,494,493
494,492,190,493,494
493,494,220,493,494
494,492,303,494,494
493,491,442,493,494
493,493,581,493,494
493,491,703,494,494
494,492,787,494,494
494,492,786,495,494
494,493,718,496,493
494,493,574,494,493
494,493,426,494,493
496,494,286,494,493
495,494,190,495,493
494,492,199,492,494
494,493,245,494,494
493,492,359,493,494
492,492,504,493,494
493,492,637,493,494
493,492,741,494,494
494,491,798,494,494
494,492,771,494,493
495,493,659,495,493
495,492,507,494,493
494,494,364,495,493
495,494,238,495,493
495,493,187,494,494
495,493,215,493,494
493,493,286,493,494
494,492,422,493,494
493,492,559,494,494
493,492,686,495,494
492,492,779,495,494
493,492,790,495,494
494,493,733,494,493
494,493,593,494,493
494,493,444,494,493
495,493,304,495,493
495,493,198,494,493
495,493,196,494,493
495,492,232,494,494
494,493,340,493,494
494,492,483,493,494
494,491,616,494,494
494,492,729,495,494
494,491,799,494,494
495,493,775,495,493
494,493,678,494,493
495,493,528,495,493
495,493,379,493,493
495,493,249,493,493
495,493,187,493,493
494,493,210,494,493
494,492,270,493,494
494,492,403,493,494
494,492,542,494,494
493,493,671,493,494
493,494,768,495,494
494,492,791,494,494
494,492,746,495,493
495,493,615,495,493
496,493,463,494,493
495,494,320,495,493
495,494,208,494,493
495,492,194,494,494
495,493,226,494,494
495,493,324,493,494
494,492,466,493,494
493,492,600,493,494
494,490,717,494,494
493,492,796,494,494
495,492,781,495,494
494,492,697,494,493
495,494,547,494,494
495,493,403,493,493
495,494,266,494,493
495,493,189,494,494
495,491,204,493,494
495,492,258,494,494
493,492,383,493,494
494,492,524,494,494
494,492,655,494,494
494,493,755,494,494
494,492,796,494,494
495,492,761,494,493
495,493,635,494,493
495,493,483,494,493
494,493,340,494,493
494,493,220,494,494
494,493,190,494,494
494,494,220,494,494
494,492,305,493,494
493,491,446,493,494
493,491,582,494,494
494,491,703,493,494
494,492,791,494,494
494,492,784,494,494
495,493,714,495,493
495,493,570,494,493
495,492,422,495,493
495,493,281,494,493
496,493,191,493,494
494,493,201,494,494
495,492,248,494,494
494,492,363,493,494
493,492,505,494,494
494,492,637,494,494
494,491,741,495,494
494,492,797,494,494
494,493,768,495,494
496,493,656,496,494
495,493,503,494,493
496,493,358,493,493
495,493,232,493,494
495,494,189,493,494
494,493,216,493,494
494,492,289,494,494
494,493,427,495,494
493,493,563,494,494
494,492,688,493,494
494,493,780,495,494
494,494,788,495,494
495,493,732,494,493
495,494,590,494,493
495,493,439,493,493
495,494,299,492,494
495,492,195,493,494
495,492,198,494,494
494,493,235,493,494
494,492,345,493,494
493,492,488,494,494
494,492,619,493,494
493,493,730,495,494
494,493,799,494,494
494,492,774,495,493
495,493,674,494,493
495,494,524,494,493
495,493,379,495,493
495,493,247,494,493
494,492,187,494,494
495,493,211,494,494
494,492,274,493,494
494,493,406,493,494
494,493,544,493,494
493,492,673,494,494
493,493,769,495,494
494,492,790,495,494
494,492,744,495,493
495,493,612,495,493
495,494,460,495,493
495,494,317,494,493
495,494,207,494,493
494,493,194,495,494
494,493,227,493,494
494,492,327,493,494
493,493,469,494,494
493,491,603,494,494
493,492,719,494,494
492,492,796,495,494
495,492,779,495,494
495,493,696,494,493
495,493,545,494,493
495,493,398,495,493
495,493,263,495,493
495,493,188,494,494
495,493,207,493,494
494,493,261,493,494
494,493,388,492,494
494,492,528,493,494
493,492,659,494,494
493,491,756,496,494
494,493,794,495,494
494,493,761,496,494
494,493,631,495,493
495,493,480,495,493
495,494,336,494,493
495,493,217,493,494
494,492,192,494,494
494,493,222,494,494
493,493,310,493,494
494,491,450,493,494
493,491,585,493,494
494,492,705,495,494
493,491,791,495,494
493,492,784,495,494
494,493,713,496,493
495,494,566,494,493
495,493,419,494,493
496,494,280,493,493
495,493,192,494,493
494,492,203,494,494
493,493,251,493,494
494,492,368,493,494
494,493,509,493,494
493,492,639,494,494
494,491,743,495,494
494,492,798,495,494
495,492,769,496,494
494,493,652,495,493
495,494,500,495,493
496,493,356,494,494
495,493,230,493,493
494,492,189,494,493
494,493,217,495,494
495,493,290,493,494
494,492,429,493,494
494,492,565,494,494
493,492,691,493,494
493,491,784,495,494
494,492,787,494,494
495,493,727,495,494
495,493,586,495,493
496,494,435,494,493
495,493,294,495,493
496,493,193,494,494
494,493,198,494,493
494,493,236,494,494
494,492,347,493,494
494,492,490,493,494
494,491,625,493,494
495,493,734,494,494
494,492,799,495,494
494,492,776,495,493
495,492,671,494,493
495,494,521,496,493
495,494,374,494,493
495,493,245,494,493
495,494,188,494,494
495,493,212,493,493
495,493,276,493,494
493,492,411,493,494
494,492,547,493,494
494,492,676,495,494
494,490,769,494,494
494,492,791,495,494
495,492,740,494,494
496,493,608,495,493
495,494,456,495,493
495,494,316,494,493
495,493,205,493,494
494,493,196,495,494
495,493,229,493,494
494,492,330,492,494
493,492,472,493,494
494,492,604,494,494
493,493,721,493,494
493,492,797,494,494
494,493,780,495,494
495,493,692,494,494
495,493,542,493,494
496,493,393,494,493
496,492,258,494,493
494,495,188,493,494
495,493,207,494,494
493,494,261,494,494
494,493,390,494,494
494,492,530,494,494
494,493,661,494,494
493,492,761,494,494
494,492,795,495,494
494,493,758,495,494
496,493,629,494,493
495,493,477,494,493
495,493,332,495,493
495,493,215,494,493
494,493,192,494,494
494,492,222,494,494
494,492,312,493,494
494,492,452,493,494
494,493,586,493,494
494,492,708,494,494
493,491,793,495,494
494,491,784,494,494
494,492,710,495,493
495,493,562,494,493
495,493,414,495,493
495,494,277,493,494
495,494,191,493,493
495,493,203,494,494
494,492,252,493,494
493,492,370,493,494
494,492,512,493,494
493,492,644,494,494
494,492,743,493,494
494,492,797,495,494
494,494,767,496,493
495,493,649,494,494
495,494,496,494,493
495,493,353,494,493
495,494,229,494,493
495,493,190,493,493
494,493,217,494,494
494,493,295,493,494
494,492,433,494,494
494,492,568,494,494
493,492,694,493,494
495,492,787,494,494
494,493,787,495,494
494,492,725,494,493
495,493,583,494,493
496,494,434,494,493
495,494,292,494,494
495,494,192,494,493
495,492,197,494,494
494,493,237,492,494
494,493,351,493,494
494,492,493,493,494
494,492,627,494,494
494,491,736,494,494
494,492,799,494,494
494,493,773,493,493
495,494,670,494,493
495,494,517,496,494
495,494,372,494,493
495,494,242,494,493
495,494,187,495,494
495,492,212,493,494
495,493,279,494,494
494,492,414,493,494
494,492,550,493,494
494,492,680,495,494
493,491,772,494,494
494,493,790,494,494
495,493,740,495,493
495,494,606,494,493
496,494,451,494,493
495,494,311,494,493
495,495,202,494,493
494,493,195,493,494
495,493,228,494,494
494,492,333,494,494
494,493,476,494,494
494,492,609,494,494
493,493,724,495,494
494,492,798,495,494
495,493,780,495,493
494,495,689,495,493
495,494,538,494,494
495,495,391,494,493
495,493,258,494,494
496,493,187,494,494
494,493,208,494,494
494,493,265,493,494
495,493,393,494,494
494,492,533,494,494
493,491,663,494,494
494,492,764,495,494
494,493,794,495,494
494,492,756,494,493
495,494,626,495,494
496,494,474,494,493
495,494,330,494,493
495,494,214,495,493
494,494,193,494,494
494,493,224,493,494
494,492,315,494,494
494,493,455,493,494
494,492,588,493,494
493,493,711,494,494
495,492,795,494,494
494,492,784,495,494
495,493,708,494,493
495,494,559,494,493
495,494,412,495,493
495,494,273,495,493
495,494,190,494,494
495,493,203,494,494
494,493,254,493,494
493,492,374,493,494
493,493,515,494,494
493,492,648,495,494
494,491,747,495,494
493,492,797,494,494
494,493,767,494,493
495,493,647,494,493
495,493,493,495,494
495,494,348,494,493
494,493,226,493,493
494,493,189,493,494
495,493,217,494,494
493,492,297,494,494
495,493,436,493,494
494,493,574,493,494
493,491,697,494,494
494,491,786,495,494
493,492,787,494,494
495,493,725,495,494
495,495,581,495,494
495,493,430,495,493
495,494,291,495,493
495,494,191,494,494
495,494,199,493,494
494,492,239,493,494
495,492,353,493,494
494,492,496,494,494
494,492,628,494,494
494,493,737,494,494
493,492,799,495,494
494,492,772,495,494
495,492,666,494,493
495,493,514,494,494
495,494,371,495,494
496,493,239,495,493
495,493,188,493,494
494,492,213,493,494
494,493,281,494,494
493,492,416,493,494
493,492,552,494,494
494,493,682,493,494
495,493,776,495,494
494,492,790,496,494
494,493,738,495,494
495,494,601,495,494
496,494,448,494,494
495,494,307,494,493
495,494,200,495,493
495,493,196,495,494
495,493,230,493,494
493,493,335,493,494
494,493,477,494,494
493,492,613,494,494
494,491,726,496,494
495,492,798,494,494
494,491,779,495,494
496,493,686,495,494
496,493,535,494,493
496,494,386,495,493
495,493,255,494,493
495,493,186,494,494
494,493,208,493,494
495,494,266,494,494
494,493,398,494,494
493,493,537,495,494
493,492,667,494,494
494,492,764,495,494
494,493,794,495,494
495,494,753,495,494
495,493,621,495,494
495,493,470,495,494
495,495,327,495,493
494,495,213,494,494
495,494,194,494,493
494,493,225,494,494
494,492,319,493,494
493,492,460,493,494
493,493,592,493,494
493,492,712,495,494
494,492,796,494,494
494,493,783,494,494
494,491,704,496,493
495,494,555,495,493
495,494,409,495,494
495,493,271,495,494
495,493,190,494,493
494,493,205,493,494
494,493,255,493,494
494,492,376,493,494
494,493,519,494,494
494,491,650,494,494
494,493,752,495,494
494,491,798,496,494
494,493,766,496,493
495,493,643,495,493
496,494,490,494,493
495,494,345,494,494
496,494,224,494,493
495,493,190,493,493
495,492,220,493,494
494,492,301,493,494
494,492,440,494,494
494,492,577,494,494
493,493,700,495,494
494,492,788,495,494
495,493,785,495,494
495,492,722,494,493
495,493,576,495,494
496,494,428,495,493
496,495,287,494,493
495,494,190,494,494
494,493,200,494,494
494,494,242,494,494
494,492,358,493,494
494,492,501,494,494
494,493,633,494,494
494,493,738,495,494
495,492,798,495,494
495,492,772,495,494
494,494,663,495,493
495,494,510,494,493
495,494,367,494,493
495,494,238,494,493
496,493,188,494,494
495,492,214,493,494
494,492,284,492,494
495,492,421,492,494
494,492,556,494,494
493,493,683,495,494
494,492,777,495,494
494,491,789,495,494
495,493,736,495,494
495,494,599,495,493
496,494,448,495,493
495,493,305,494,493
497,493,197,493,493
495,493,196,493,493
495,493,232,494,494
494,493,339,493,494
494,492,479,494,494
494,492,613,494,494
493,493,727,493,494
494,493,799,495,494
495,493,778,494,494
495,493,683,495,494
495,493,533,495,494
495,494,382,494,493
495,493,253,494,494
495,493,187,494,493
494,492,210,493,493
494,493,270,493,494
494,493,400,493,494
494,492,537,494,494
494,493,668,495,494
494,491,767,495,494
494,493,792,496,494
494,493,751,494,493
495,493,619,495,494
495,494,466,494,493
495,494,324,495,493
494,494,211,494,494
495,493,195,494,494
494,492,227,493,494
495,492,322,492,494
495,492,461,492,494
494,492,596,493,494
494,493,715,495,494
495,491,795,496,494
495,493,781,495,494
495,493,700,496,494
495,493,551,495,493
495,493,406,494,493
496,493,270,494,493
495,493,190,494,494
494,493,206,494,493
494,494,258,494,494
493,492,382,493,494
494,491,521,494,494
495,492,652,493,494
493,491,752,495,494
495,493,797,494,494
494,493,763,494,494
496,493,639,494,494
495,494,487,495,493
496,493,343,495,493
494,493,221,495,493
496,492,191,493,494
494,494,221,493,494
495,492,304,494,494
494,491,442,494,494
494,493,578,494,494
494,492,701,493,494
494,492,790,494,494
495,493,784,495,494
494,493,717,495,494
496,493,572,495,493
496,494,425,494,493
495,493,283,495,494
497,493,193,493,494
495,493,201,493,494
495,493,245,493,494
493,492,361,494,494
494,493,503,494,494
494,492,635,494,494
493,491,735,494,494
494,493,797,495,494
495,492,763,495,494
495,493,643,496,494
494,494,453,494,493
495,493,297,494,494
495,493,233,495,494
494,495,206,492,494
494,493,227,493,494
494,492,289,494,494
494,493,390,495,494
494,493,496,493,494
493,493,680,493,494
495,492,803,494,494
492,493,809,495,494
495,493,748,494,493
496,494,575,495,493
496,493,386,495,493
496,492,278,494,493
495,494,226,495,493
494,494,224,494,494
495,493,256,493,494
495,492,338,493,494
494,493,441,494,494
493,493,576,494,494
495,494,747,494,494
494,493,824,494,494
494,492,816,494,494
495,492,679,497,493
495,494,534,495,493
496,494,387,494,493
496,494,238,494,494
494,492,206,494,493
495,494,229,494,494
495,494,276,493,494
494,493,392,494,494
495,492,524,493,494
495,492,660,494,494
495,491,787,494,494
494,493,808,495,494
495,492,757,496,493
496,493,613,495,493
496,493,448,494,493
495,494,309,496,493
496,494,218,494,493
495,493,210,493,494
494,494,240,494,494
495,493,316,493,494
494,492,429,494,494
495,492,569,494,494
494,493,719,494,494
494,491,816,494,494
495,492,798,494,494
496,493,713,495,493
495,493,546,494,493
495,493,394,494,493
495,494,256,494,493
495,493,205,494,494
495,493,220,494,494
494,493,270,493,494
494,492,394,492,494
495,492,536,494,494
493,492,664,494,494
495,491,762,494,494
494,492,802,495,494
495,493,768,495,494
495,492,641,496,494
496,493,489,495,493
495,493,345,494,493
496,494,226,494,493
495,493,194,494,493
493,493,223,494,494
494,492,306,493,494
493,492,438,494,494
494,492,569,494,494
493,491,685,494,494
495,492,797,495,494
495,493,791,495,494
496,494,714,494,493
496,493,548,494,493
495,495,394,494,493
495,493,254,494,494
495,494,207,493,493
495,493,217,494,494
495,492,257,493,494
495,493,346,494,494
494,493,471,494,494
493,492,606,493,494
495,491,761,493,494
494,493,817,495,494
495,492,785,494,494
495,494,652,495,494
497,493,470,495,493
496,493,327,495,493
495,494,239,495,493
495,492,212,493,494
495,494,236,494,494
495,494,296,494,494
494,493,403,494,494
495,493,534,494,494
494,491,681,495,494
493,492,806,495,494
495,492,810,495,494
494,493,744,495,494
494,494,579,495,493
496,493,421,495,493
496,494,281,495,493
495,493,217,493,493
495,494,219,494,494
496,492,253,494,494
494,492,344,493,494
494,492,478,494,494
494,492,609,493,494
494,491,740,495,494
494,493,815,494,494
495,493,791,494,493
495,493,679,495,493
496,493,515,494,493
495,494,367,494,493
495,494,236,494,493
496,492,205,494,494
494,493,227,493,494
495,494,280,494,494
495,492,396,493,494
493,493,527,494,494
493,492,655,495,494
493,492,787,494,494
496,493,809,494,494
494,493,755,494,494
496,493,598,495,494
495,493,435,494,493
495,493,292,495,494
495,494,222,493,493
495,493,215,493,494
494,493,245,493,494
495,493,323,494,494
494,493,439,494,494
494,492,573,494,494
493,491,725,493,494
493,492,817,495,494
494,492,799,495,494
495,493,699,496,494
497,494,520,495,493
495,493,369,495,493
496,493,253,495,494
494,493,215,493,494
495,492,229,493,494
494,492,274,493,494
495,491,370,494,494
494,493,500,495,494
494,493,636,494,494
493,493,784,494,494
495,492,817,496,494
495,492,777,494,494
495,493,626,495,493
496,493,460,495,494
495,493,313,494,493
496,493,230,494,493
495,492,212,494,494
495,493,242,494,494
494,493,312,494,494
495,492,434,494,494
494,492,566,494,494
494,493,704,494,494
494,493,811,494,494
495,492,801,494,494
495,492,720,495,493
496,493,552,495,493
495,494,399,494,493
496,494,259,493,493
495,493,215,494,494
494,493,224,493,494
494,493,264,493,494
495,493,354,493,494
494,492,486,493,494
494,492,616,495,494
493,491,762,495,494
495,492,817,495,494
493,493,785,495,494
494,493,647,495,493
496,494,474,494,493
496,494,330,495,494
495,493,237,493,493
495,492,214,494,494
495,492,239,492,494
494,494,299,494,494
494,492,406,494,494
494,493,538,494,494
494,491,682,493,494
494,492,806,494,494
494,493,808,495,494
494,493,742,496,494
496,494,571,495,493
495,493,412,495,493
496,494,273,495,493
495,493,221,493,493
495,492,222,493,494
494,493,258,493,494
495,493,342,493,494
494,492,467,493,494
494,492,601,493,494
494,491,750,494,494
494,492,819,495,494
496,493,792,494,494
496,494,675,495,493
495,494,500,494,494
495,494,353,494,493
495,494,243,494,493
495,493,213,493,493
494,492,234,493,494
494,493,287,493,494
494,493,393,493,494
494,492,523,493,494
494,492,658,493,494
494,492,792,495,494
495,494,810,494,494
495,493,755,495,493
495,493,595,494,493
495,494,431,495,493
496,494,291,494,493
494,493,227,494,494
495,493,220,495,493
494,493,251,493,494
494,493,327,493,494
493,492,448,493,494
495,492,580,493,494
494,491,729,494,494
493,492,817,494,494
495,493,798,495,494
496,492,696,494,493
495,494,517,494,494
496,494,369,494,493
496,493,253,494,494
495,493,214,494,493
495,494,231,493,494
495,492,277,492,494
494,493,375,492,494
494,492,503,494,494
494,492,636,493,494
494,491,784,494,494
494,493,815,495,494
495,492,775,493,494
496,494,620,494,493
496,493,453,495,494
496,494,308,493,494
495,494,231,493,493
495,493,218,493,494
495,493,244,493,494
495,492,315,493,494
495,493,431,493,494
494,492,561,493,494
494,492,707,495,494
493,492,814,494,494
495,493,802,494,494
496,495,719,494,493
495,494,545,494,493
495,493,391,494,493
495,494,260,494,493
496,494,219,493,494
495,493,227,493,494
494,492,268,493,494
493,492,358,493,494
494,492,486,493,494
494,492,620,494,494
494,493,768,494,494
494,493,816,495,494
494,493,785,495,494
495,495,643,494,493
496,494,470,495,494
495,493,327,494,493
495,495,236,495,493
495,492,215,493,494
494,493,239,492,494
495,493,303,493,494
495,492,411,492,494
494,493,543,493,494
493,492,687,493,494
494,492,807,494,494
495,492,807,494,494
494,493,735,494,493
495,493,565,494,494
496,494,407,493,493
495,494,271,493,493
496,493,222,494,493
495,493,223,493,493
496,492,259,493,494
494,493,344,493,494
494,492,468,493,494
494,493,602,494,494
496,490,751,493,494
495,492,819,495,494
494,493,791,494,493
495,493,668,494,493
496,494,495,494,493
495,494,350,494,494
496,493,244,493,493
495,493,215,493,493
496,492,236,493,494
495,493,290,493,494
494,493,395,493,494
495,493,523,493,494
493,492,661,493,494
494,491,795,494,494
495,491,808,495,494
495,493,752,495,493
496,494,592,494,493
495,495,426,494,493
496,494,288,494,493
495,492,226,493,493
495,493,221,494,494
495,492,252,492,494
495,493,331,494,494
495,493,450,494,494
494,492,583,493,494
494,491,732,494,494
494,492,816,494,494
495,492,795,493,493
495,494,693,494,493
495,495,514,494,493
495,494,363,494,493
495,494,252,493,493
495,493,216,493,494
495,492,233,494,494
494,492,280,493,494
495,492,378,493,494
494,492,507,493,494
494,492,640,494,494
492,493,784,494,494
494,493,812,493,494
494,492,770,494,494
495,494,614,494,493
496,494,447,494,493
496,493,312,494,493
496,493,232,493,493
494,494,218,493,494
495,492,247,493,494
495,493,334,493,494
493,493,472,493,494
494,492,599,493,494
494,491,720,494,494
495,493,798,494,494
496,494,788,495,494
495,493,712,494,493
495,493,566,494,493
495,493,421,494,493
495,493,284,494,494
495,494,198,493,493
494,493,211,493,493
495,493,259,492,494
495,493,378,493,494
494,491,517,494,494
493,491,647,494,494
495,494,749,494,494
494,492,795,494,494
495,492,765,495,493
495,493,647,494,493
495,493,496,494,493
496,494,353,494,493
496,494,233,494,493
495,493,194,493,493
493,494,223,493,494
494,493,300,493,494
494,492,437,493,494
495,493,573,493,494
495,492,696,493,494
494,492,783,494,494
494,492,785,494,494
495,493,722,493,493
495,493,580,495,493
495,493,434,494,493
496,494,295,494,493
495,494,197,493,493
494,493,203,492,493
495,493,243,493,494
494,492,357,493,494
494,492,498,494,494
494,491,629,493,494
494,491,735,492,494
494,493,794,493,494
496,492,770,494,494
495,494,663,494,493
496,494,514,494,493
495,493,373,494,493
495,495,246,494,493
495,493,191,493,493
494,492,217,493,493
493,492,284,493,494
494,492,418,493,494
494,492,552,494,494
494,492,678,493,494
493,493,770,494,494
494,494,787,494,494
496,493,733,495,493
495,493,601,494,493
496,493,452,494,493
497,495,311,495,493
496,493,207,493,493
494,493,199,494,494
495,492,235,492,494
495,492,338,493,494
494,492,478,494,494
494,492,610,493,494
494,491,724,494,494
494,492,792,495,494
494,492,775,494,494
496,494,682,494,493
495,493,537,494,493
495,493,390,494,494
495,495,260,494,493
496,493,191,494,494
495,492,213,492,493
495,493,268,493,494
494,493,398,493,494
494,492,535,494,493
493,491,666,495,494
494,491,761,494,494
494,491,789,495,494
495,493,751,495,493
496,493,621,494,493
495,493,470,494,493
496,494,329,493,493
495,493,218,494,493
495,493,197,493,493
495,494,228,493,494
493,493,321,493,494
494,492,460,493,494
493,492,591,492,494
494,492,710,493,494
494,492,789,494,494
495,494,777,494,494
494,493,702,495,493
495,494,555,495,493
495,493,411,494,493
496,494,275,494,493
496,492,193,494,494
494,492,207,495,494
494,495,251,492,494
495,492,346,492,494
494,492,452,493,494
493,491,610,493,494
494,491,764,494,494
495,493,809,494,494
495,493,775,494,493
495,493,630,494,493
495,494,444,495,493
496,493,299,494,493
494,493,238,493,493
495,493,218,492,494
495,492,242,494,493
494,492,306,493,494
494,493,408,493,494
494,492,518,495,494
494,491,697,493,494
494,492,812,493,493
494,491,806,493,494
495,493,752,494,493
496,493,605,495,494
496,494,384,493,493
496,493,266,493,493
495,493,221,494,493
496,492,225,494,494
496,493,263,493,494
495,494,350,493,494
494,492,494,493,494
493,492,627,493,494
494,491,747,495,494
493,492,808,494,494
496,493,776,494,494
495,493,662,494,493
495,493,492,494,493
496,494,355,494,494
496,494,234,494,493
495,492,209,493,494
495,492,233,493,494
494,493,289,493,494
494,491,390,494,494
494,493,523,493,494
494,492,666,493,494
494,491,793,494,494
494,493,804,495,494
494,493,749,494,493
494,494,603,494,493
496,494,443,495,493
496,494,300,494,493
496,494,213,494,493
495,493,213,493,493
495,493,248,493,494
494,493,351,494,494
495,492,490,493,494
494,492,620,494,494
495,492,731,492,494
494,492,799,495,494
494,492,779,495,494
494,493,684,495,493
496,494,535,495,493
496,495,390,494,493
494,494,261,494,493
495,493,193,493,493
494,494,217,493,493
494,492,274,494,494
494,492,400,494,494
494,493,528,494,494
495,492,651,493,494
492,491,768,494,494
495,492,795,495,494
494,493,749,494,493
495,494,602,495,493
496,494,442,495,493
495,495,297,495,493
495,494,220,493,493
495,494,212,494,493
494,492,241,493,494
494,492,316,493,494
495,493,429,493,494
494,492,561,494,494
493,491,715,494,494
494,492,810,495,494
495,493,794,494,494
497,492,705,494,493
496,493,522,494,493
495,493,372,495,493
495,494,257,495,494
494,493,217,494,493
495,493,230,494,494
496,493,273,494,494
493,492,364,494,494
494,492,493,495,494
495,492,626,493,494
495,491,774,494,494
495,492,813,494,494
494,492,778,496,494
496,493,633,495,493
495,494,470,495,493
496,494,327,495,493
496,494,233,495,493
496,494,217,494,493
494,494,243,494,493
495,493,309,494,494
495,492,433,493,494
495,493,565,493,494
493,492,691,493,494
494,492,803,494,494
495,493,798,494,494
494,491,723,494,493
496,494,561,495,493
495,493,409,495,493
496,494,270,493,494
495,493,216,492,494
494,492,223,492,494
496,492,263,493,494
495,493,351,494,494
494,492,478,494,494
494,491,608,494,494
493,491,754,494,494
494,491,812,494,494
494,493,783,494,494
494,494,655,496,494
495,493,477,494,493
496,493,334,494,493
495,494,242,494,493
494,493,217,493,494
495,492,239,493,493
495,492,297,494,494
494,493,399,493,494
494,492,528,494,494
495,492,675,495,494
494,491,799,493,494
495,492,806,494,494
494,493,743,494,493
496,494,577,495,493
496,493,414,494,493
495,493,278,495,493
495,493,226,493,493
495,493,225,493,494
495,493,257,494,494
494,492,339,494,494
494,493,464,495,494
495,491,595,494,494
493,492,740,495,494
493,492,815,493,494
495,494,792,494,494
496,493,679,495,493
496,494,511,494,493
496,494,364,495,493
495,493,247,494,493
496,493,215,493,493
495,493,235,493,493
495,494,284,494,494
495,493,391,493,494
494,492,522,494,494
494,492,649,494,494
493,491,785,494,494
494,492,806,495,494
493,493,755,495,493
495,494,602,495,493
496,494,440,494,493
496,494,300,494,493
495,493,229,494,493
495,492,220,493,493
495,493,249,494,494
494,492,324,492,494
495,492,440,493,494
493,492,570,494,494
493,492,719,493,494
495,492,814,494,494
493,492,795,495,494
494,493,702,495,493
495,494,522,495,493
495,493,375,495,493
496,493,258,494,493
495,493,220,493,494
494,493,232,493,493
493,494,277,492,494
494,492,368,494,494
494,493,497,494,494
494,492,629,493,494
493,492,778,493,494
495,493,813,494,493
495,493,776,494,493
496,494,627,495,493
495,493,460,494,493
496,494,317,494,493
495,494,236,494,493
494,493,220,493,493
494,492,246,494,493
494,493,313,493,494
494,492,430,494,494
494,492,561,493,494
494,492,699,493,494
494,492,807,495,494
495,492,799,495,494
494,493,722,495,493
496,494,552,496,493
495,493,399,495,493
495,493,264,495,494
496,493,221,494,493
495,494,228,493,493
495,492,267,494,494
494,493,355,494,494
495,493,483,494,494
494,492,613,494,494
494,492,759,494,494
494,492,814,494,494
494,492,784,494,493
495,493,650,494,493
496,493,478,495,493
495,494,335,494,493
496,493,241,494,493
495,493,217,493,493
496,493,241,494,494
496,493,299,494,494
494,493,403,493,494
494,491,532,493,494
494,491,676,491,494
494,493,802,495,494
494,492,806,496,494
496,492,742,494,494
498,495,569,494,494
496,494,406,496,493
495,493,274,492,493
495,491,226,494,493
494,492,226,493,493
496,495,257,495,494
494,493,341,491,494
495,492,453,493,494
495,490,587,492,494
492,493,748,495,494
495,490,819,494,494
496,491,795,495,494
495,494,678,497,494
495,494,488,493,493
495,493,343,494,493
496,494,254,493,494
494,493,221,494,493
495,492,240,493,494
494,493,291,494,494
494,491,387,494,494
494,492,510,493,494
494,491,661,494,494
492,492,794,495,494
494,492,811,494,494
494,493,758,495,493
496,492,599,496,494
497,493,430,495,493
497,493,294,495,494
496,491,233,492,493
496,495,224,494,494
495,492,253,495,494
495,492,330,491,494
492,493,447,494,494
496,492,578,494,494
495,491,723,493,494
494,491,816,494,494
494,492,797,495,493
495,492,698,495,493
496,494,517,495,493
496,493,371,494,493
496,494,257,494,493
496,493,219,494,493
495,492,234,493,493
495,493,279,493,494
495,492,372,495,494
494,493,498,494,494
494,492,633,494,494
495,491,783,494,494
494,492,816,494,494
495,491,775,495,493
496,494,623,494,493
496,493,452,495,493
496,494,308,494,494
496,493,236,494,493
495,493,221,493,493
493,493,248,494,494
495,494,315,493,494
495,492,425,493,494
494,493,556,493,494
494,492,709,494,494
496,492,813,495,494
495,493,802,494,494
494,493,722,494,493
496,494,542,496,493
496,493,389,494,493
496,494,265,495,493
495,494,221,494,493
496,492,231,494,494
496,493,270,494,494
495,492,357,494,494
493,493,482,494,494
495,491,615,493,494
493,493,766,494,494
495,491,816,494,494
495,493,785,496,494
496,494,646,495,493
496,493,468,495,493
496,494,326,494,493
495,492,242,494,493
496,493,218,495,493
494,492,242,493,494
495,493,302,493,494
495,492,410,495,494
494,492,542,494,494
493,491,684,493,494
494,491,804,495,494
495,492,806,495,494
495,493,740,495,493
497,495,568,495,494
495,494,412,494,493
495,494,275,495,493
496,492,222,493,493
496,493,225,494,494
494,493,258,494,494
494,492,342,494,494
495,492,468,493,494
494,492,600,494,494
493,493,748,494,494
494,493,818,494,494
494,492,791,495,493
495,493,672,495,493
496,494,495,495,493
495,493,349,495,493
495,494,245,494,493
495,493,216,493,493
495,494,238,494,493
494,494,290,493,494
495,493,390,493,494
495,492,520,493,494
494,492,660,494,494
492,493,793,494,494
494,491,808,496,494
496,493,754,497,493
495,495,592,494,493
495,493,424,495,494
496,494,287,494,493
495,493,228,494,493
494,493,223,495,494
496,492,252,493,494
495,492,331,494,494
494,492,446,494,494
495,491,580,494,494
494,492,731,494,494
495,492,817,494,494
495,491,797,495,494
496,493,695,496,493
495,495,515,495,493
496,494,366,494,493
496,493,253,494,493
495,492,216,495,493
495,493,233,493,494
494,492,280,493,494
493,492,378,493,494
494,492,507,494,494
494,492,639,494,494
493,493,783,495,494
494,492,814,495,493
495,493,772,495,493
495,493,616,495,494
496,494,452,494,493
496,495,309,495,494
496,494,231,495,493
495,492,219,494,494
493,494,246,494,493
494,492,316,493,494
495,493,431,494,494
494,492,562,494,494
494,492,709,494,494
494,492,814,496,494
494,493,801,496,494
494,494,715,495,493
495,494,539,495,493
496,494,388,494,493
496,494,261,494,493
496,494,219,494,493
496,493,230,494,494
494,493,271,494,494
495,493,359,493,494
495,492,486,494,494
494,492,619,494,494
493,490,768,495,494
494,492,817,494,494
493,493,783,495,494
495,493,643,495,493
495,494,468,496,493
495,495,325,495,493
495,493,238,495,493
495,493,217,493,494
495,494,242,493,494
495,493,304,494,494
495,493,414,495,494
493,491,547,494,494
494,492,690,495,494
494,491,806,495,494
495,492,805,495,494
493,493,736,495,494
496,493,564,495,494
495,494,405,495,493
496,493,270,496,493
495,494,221,494,493
495,493,224,494,493
495,493,260,494,494
494,492,346,495,494
493,493,471,494,494
494,491,604,494,494
494,491,752,495,494
496,491,817,495,494
495,493,790,494,494
495,493,665,496,493
495,494,488,495,493
496,494,346,495,493
495,494,244,494,493
495,493,214,493,493
494,493,237,494,494
495,492,292,494,494
494,493,395,494,494
495,492,524,494,494
494,491,664,494,494
493,490,794,494,494
495,491,808,496,494
495,493,750,495,494
495,494,587,495,493
495,494,425,495,493
496,495,286,494,494
496,493,226,495,493
494,492,221,494,493
494,493,253,494,494
494,492,331,494,494
494,492,452,494,494
494,492,585,494,494
493,491,734,494,494
493,491,818,495,494
494,492,794,495,494
495,492,690,495,494
495,494,513,495,493
496,493,361,494,493
495,494,249,494,493
494,492,215,494,493
494,492,233,494,494
495,492,280,494,494
494,492,380,494,494
494,492,508,494,494
494,492,642,493,494
494,492,785,494,494
494,492,812,495,494
495,492,769,494,493
495,494,612,495,493
495,493,444,494,494
495,494,304,494,494
495,493,231,494,493
494,493,218,494,494
494,492,246,494,494
494,492,319,494,494
494,492,434,494,494
494,491,563,494,494
493,491,713,494,494
493,492,814,495,494
494,493,800,494,494
495,493,712,495,493
497,493,533,495,493
495,494,384,494,493
495,494,259,494,493
495,494,218,494,493
493,492,229,494,493
494,491,272,493,494
494,494,363,493,494
494,492,491,494,494
493,492,623,494,494
494,492,773,495,494
494,492,817,495,494
495,493,782,494,493
495,493,637,495,493
495,494,468,495,493
496,494,324,495,494
496,493,235,494,494
494,493,217,494,494
494,492,242,494,494
493,492,305,493,494
494,492,419,494,494
494,492,552,493,494
494,492,693,494,494
494,491,809,494,494
494,492,804,495,494
494,494,732,495,493
495,494,560,495,493
496,494,403,495,493
495,494,266,495,493
495,493,219,494,493
494,493,224,494,494
494,492,260,494,494
494,493,347,493,494
494,492,474,494,494
495,492,606,493,494
494,492,757,495,494
494,493,817,494,494
495,493,787,496,493
495,493,661,495,494
496,494,485,495,493
495,494,341,494,493
496,492,241,494,493
494,493,215,494,494
494,492,238,494,493
494,492,294,493,494
494,493,400,494,494
493,491,529,494,494
494,493,669,495,494
493,492,796,495,494
495,493,807,495,494
494,495,749,495,493
495,493,582,495,493
496,495,420,494,493
496,495,283,494,494
495,494,225,494,494
495,493,221,494,494
494,493,254,495,494
494,492,335,494,494
494,492,457,494,494
494,492,589,494,494
494,492,736,494,494
494,492,818,494,494
494,492,793,495,494
495,494,686,495,494
496,494,509,495,493
496,494,359,495,493
496,492,249,493,493
495,493,214,494,494
494,492,234,495,494
494,494,282,494,494
495,492,383,493,494
494,492,512,494,494
494,492,647,494,494
494,492,787,494,494
494,492,813,495,493
494,493,765,494,494
495,494,608,495,493
495,493,440,494,493
496,493,299,494,493
494,494,229,494,493
494,494,219,495,494
494,493,248,494,494
495,491,321,494,494
494,492,438,495,494
494,493,568,493,494
493,492,718,494,494
493,492,816,494,493
494,492,798,495,494
494,493,709,495,493
496,493,528,496,493
496,494,378,494,493
495,494,256,493,493
495,493,218,495,494
496,493,228,493,493
495,492,273,494,494
495,493,366,494,494
494,491,496,493,494
494,492,628,495,494
494,492,775,495,494
493,492,816,495,494
494,492,780,496,493
495,494,633,495,494
496,494,462,495,493
496,494,320,495,493
496,494,234,495,493
496,493,216,494,494
494,493,243,494,494
494,493,308,493,494
494,492,422,493,494
494,493,553,494,494
494,492,695,494,494
494,492,810,494,494
494,493,804,495,494
494,493,727,496,493
495,494,555,495,493
495,494,399,495,493
496,494,264,494,493
495,494,219,494,493
495,494,224,494,493
494,493,264,494,494
495,494,351,493,494
495,492,475,494,494
494,493,609,494,494
493,491,760,494,494
495,491,818,495,494
493,492,788,496,494
494,492,659,495,493
497,494,482,495,493
495,494,337,495,493
495,493,240,494,493
494,493,216,495,494
495,493,238,494,494
494,492,295,494,494
494,493,403,494,494
493,493,533,495,494
493,492,675,494,494
495,490,801,495,494
496,493,808,495,494
494,493,745,496,493
496,493,579,496,493
495,494,417,495,494
495,495,278,495,493
494,495,223,493,493
495,493,222,494,493
495,492,253,494,494
494,492,337,493,494
494,492,459,494,494
494,492,593,495,494
493,492,741,493,494
494,492,817,495,494
495,493,794,495,493
495,492,682,496,494
496,494,504,495,493
495,494,355,495,493
496,493,247,494,493
494,493,214,493,493
495,493,233,494,494
495,492,284,493,494
494,493,384,494,494
494,493,515,494,494
493,493,650,494,494
494,490,791,494,494
494,492,813,494,493
495,493,762,494,493
495,494,603,495,493
496,494,436,495,494
496,495,298,495,493
495,493,228,494,494
495,493,220,494,494
495,493,250,494,494
494,492,342,493,494
494,492,481,494,494
494,493,611,495,494
493,492,727,495,494
495,492,804,494,494
495,493,788,495,494
495,493,704,494,494
496,493,555,494,493
495,494,410,494,494
496,493,274,494,493
495,494,194,494,493
494,492,211,493,493
494,492,261,494,494
495,493,386,493,494
494,492,526,494,494
494,492,657,494,494
494,493,755,493,494
494,492,795,495,494
496,493,761,496,494
496,493,638,494,493
495,493,486,494,493
496,494,342,494,494
496,493,225,495,493
494,493,193,494,493
494,493,224,494,493
494,493,307,493,494
493,492,448,493,494
493,493,584,493,494
494,492,703,494,494
493,491,788,495,494
493,494,783,494,494
495,493,715,495,493
496,493,570,495,493
496,494,424,495,493
495,493,286,494,493
495,493,192,494,493
495,494,204,493,493
495,492,249,494,494
494,492,365,493,494
494,492,507,495,494
493,492,638,494,494
495,492,741,494,494
494,492,796,494,494
493,492,769,494,493
495,494,656,494,494
496,494,505,495,493
496,494,364,495,493
495,493,238,495,493
495,492,190,494,494
494,492,218,494,494
494,494,290,494,494
495,492,427,493,494
494,492,563,494,494
494,492,688,494,494
494,491,777,494,494
493,494,787,495,494
495,493,730,495,493
495,493,591,495,493
495,493,441,495,493
495,493,302,494,493
495,493,198,493,493
494,492,199,493,493
494,492,236,495,494
494,493,346,493,494
494,492,488,494,494
495,492,621,495,494
494,493,732,493,494
494,492,797,495,494
494,492,774,495,494
494,494,676,495,493
496,494,525,495,494
496,494,381,494,493
496,494,251,495,493
495,494,188,494,493
494,494,213,494,494
494,493,275,494,494
493,492,408,494,494
493,492,545,494,494
494,491,674,494,494
494,493,766,494,494
494,493,790,495,494
495,492,743,494,493
495,493,612,495,493
495,493,460,495,493
496,493,320,495,493
495,493,212,494,493
494,493,196,494,494
494,492,230,494,494
494,492,328,494,494
494,492,469,493,494
494,492,602,494,494
494,492,718,494,494
494,493,793,494,494
494,493,779,495,494
494,493,693,495,493
495,493,545,494,493
495,493,402,494,493
495,493,267,494,493
495,493,188,493,493
495,493,208,495,493
495,492,262,494,494
494,493,387,494,494
494,492,526,495,494
493,492,657,494,494
494,492,754,494,494
495,493,792,495,494
495,495,758,495,493
495,494,633,495,494
495,494,482,495,493
495,493,338,494,493
495,493,221,494,493
494,493,192,493,494
494,492,224,494,494
494,493,310,492,494
494,492,451,494,494
493,492,585,495,494
493,492,706,494,494
494,492,789,494,494
495,492,781,494,494
494,493,712,495,493
495,493,566,495,494
496,494,418,495,493
495,494,282,494,493
495,493,190,493,494
496,493,203,493,494
494,490,246,494,494
494,492,337,494,494
494,492,444,493,494
494,492,597,494,494
493,491,756,494,494
495,492,810,495,494
495,492,778,495,493
495,493,643,495,493
495,494,453,495,493
495,494,302,494,493
494,492,240,495,493
494,494,215,495,494
494,493,240,494,494
493,492,300,495,494
494,492,399,494,494
495,493,506,493,494
494,492,688,493,494
493,493,807,496,494
495,494,810,494,494
495,493,742,497,494
494,491,570,494,494
495,494,382,495,494
496,494,278,495,493
494,493,228,495,494
494,494,229,494,494
495,493,270,496,494
494,492,346,494,494
493,492,475,494,494
494,492,613,494,494
493,492,748,495,494
493,493,819,495,494
494,493,792,495,494
495,496,685,494,493
495,494,485,495,493
495,493,348,496,493
495,492,244,494,493
495,493,213,495,493
494,493,234,494,494
494,493,285,494,494
493,493,389,493,494
494,491,531,494,494
493,492,665,494,494
495,491,791,495,494
494,492,809,494,494
495,492,752,495,494
495,494,593,496,493
495,494,431,495,493
496,493,293,494,493
495,494,223,494,494
494,492,219,495,494
495,493,248,494,494
494,494,336,494,494
494,492,472,494,494
493,492,602,494,494
494,492,720,493,494
493,493,808,495,494
494,491,790,495,494
494,493,702,495,493
493,494,550,494,494
495,494,403,494,493
495,495,272,494,493
495,494,196,494,494
493,493,214,493,494
494,492,269,493,494
494,492,394,493,494
494,492,523,494,494
494,492,645,494,494
492,490,764,494,494
493,492,799,495,494
493,493,761,495,494
495,493,610,496,494
495,494,448,495,493
496,493,302,495,493
497,492,222,494,493
493,491,207,493,494
493,491,239,494,494
495,492,308,494,494
494,493,415,494,494
493,493,547,494,494
493,492,708,495,494
493,492,814,495,494
495,492,799,496,494
495,492,718,495,493
496,493,538,494,493
496,494,375,494,493
495,494,263,493,493
495,492,220,493,494
495,493,229,493,494
494,493,269,493,494
495,492,357,494,494
493,492,478,494,494
494,492,614,494,494
494,493,771,494,494
494,491,819,496,494
494,491,787,494,494
494,493,647,495,494
495,495,477,495,493
495,494,332,495,493
495,494,236,493,493
494,493,214,494,494
495,492,239,493,494
494,493,303,493,494
494,492,430,493,494
493,492,562,493,494
494,493,685,495,494
493,491,801,495,494
494,492,801,495,494
494,494,733,494,493
495,493,582,495,494
495,493,428,494,494
495,493,286,494,494
495,494,209,493,493
495,492,213,494,494
494,493,251,493,494
494,492,349,493,494
494,493,482,493,494
494,491,610,494,494
494,491,740,495,494
494,492,809,495,494
496,492,784,495,493
495,494,663,495,493
495,494,495,495,494
495,494,346,495,493
495,494,238,494,493
495,493,208,493,493
494,492,231,494,494
493,492,286,494,494
495,493,386,494,494
494,492,517,494,494
494,491,661,494,494
495,491,793,494,494
494,492,809,494,494
493,492,751,495,493
494,493,590,494,493
495,494,420,494,494
495,494,282,493,493
495,493,226,495,493
494,492,221,493,493
494,492,251,494,494
494,493,330,493,494
494,492,447,494,494
494,491,581,494,494
494,492,734,493,494
493,492,820,495,494
494,492,798,494,494
495,493,695,496,494
495,493,519,495,493
495,494,368,495,494
496,494,250,495,493
494,493,215,495,493
495,494,231,495,493
494,492,279,494,494
495,492,384,494,494
494,492,516,494,494
493,492,647,494,494
494,492,782,494,494
494,493,811,494,494
495,493,770,494,493
496,493,618,496,493
495,493,456,496,494
496,494,312,494,493
495,493,226,495,493
494,493,213,494,494
495,492,242,494,494
495,492,314,494,494
495,492,436,493,494
494,492,565,494,494
494,491,708,493,494
495,491,812,495,494
496,492,799,494,494
495,493,712,496,493
495,493,535,496,493
496,494,383,494,493
496,494,259,494,493
495,492,217,493,493
495,492,228,494,494
495,493,270,494,494
494,493,359,494,494
494,491,485,493,494
494,491,618,493,494
494,491,769,494,494
495,492,817,494,494
494,493,784,496,494
495,494,641,496,494
496,493,466,494,493
496,493,322,495,493
495,494,237,494,493
495,494,216,494,494
495,492,241,494,494
494,493,304,494,494
494,494,415,493,494
494,493,549,494,494
494,492,691,493,494
493,491,810,493,494
494,492,806,495,494
494,493,737,495,493
495,494,563,495,493
495,494,406,495,493
496,493,268,495,493
495,493,219,493,493
495,492,223,493,493
494,492,258,493,494
494,493,347,494,494
494,493,475,493,494
494,492,606,493,494
494,492,754,493,494
494,491,816,496,494
494,492,787,494,494
495,494,665,495,494
496,494,488,495,493
495,494,343,495,494
495,493,241,494,494
494,494,212,495,494
494,493,236,494,494
494,493,292,493,494
494,492,396,494,494
494,492,525,494,494
494,492,665,494,494
492,491,796,495,494
496,492,808,495,494
495,492,749,497,493
497,493,585,495,493
495,493,420,494,493
496,494,283,494,493
495,492,226,493,493
496,494,220,494,493
494,492,253,494,494
495,492,333,494,494
494,492,452,493,494
494,493,585,494,494
494,492,736,494,494
493,494,817,494,494
494,493,796,495,493
496,492,686,496,493
495,494,510,494,493
495,494,360,494,493
496,493,249,494,493
495,493,214,495,494
494,492,232,494,493
494,493,281,494,494
494,493,379,493,494
493,492,509,494,494
494,492,645,494,494
494,494,787,494,494
493,491,813,494,494
495,493,770,494,493
495,492,612,494,493
495,494,445,494,493
496,494,303,496,493
496,493,229,494,493
495,493,218,495,493
494,492,247,494,494
496,493,319,494,494
495,493,436,494,494
494,493,566,494,494
494,492,716,494,494
496,492,813,493,494
495,493,800,495,494
495,494,712,496,494
495,494,532,495,493
495,494,381,495,493
495,494,257,494,493
495,493,218,494,494
494,492,229,494,494
494,492,272,494,494
492,493,363,494,494
494,492,492,493,494
494,492,623,493,494
494,492,774,494,494
494,493,816,494,494
494,492,783,495,493
496,493,637,495,494
495,494,462,495,493
496,494,320,495,493
497,495,237,493,494
495,493,217,493,494
496,493,242,493,494
493,492,307,494,494
495,493,415,495,494
494,492,550,495,494
493,492,694,494,494
492,492,808,494,494
496,492,803,494,494
494,493,731,495,493
496,493,558,495,493
496,493,402,495,494
496,493,266,494,493
495,495,220,494,493
494,494,226,495,494
495,492,262,494,494
494,493,349,493,494
494,493,473,493,494
494,492,606,494,494
493,491,758,494,494
494,492,819,495,494
493,493,789,494,494
495,493,662,494,493
495,493,486,496,493
495,493,340,494,493
495,494,240,494,494
495,494,214,494,494
495,492,237,493,494
495,493,293,494,494
494,492,402,494,494
494,493,530,494,494
494,491,670,494,494
494,492,798,495,494
495,493,807,495,494
496,493,749,495,493
495,494,582,495,493
495,494,418,495,493
496,494,281,494,494
494,494,223,494,493
494,493,221,494,494
492,492,253,494,494
494,492,334,494,494
494,492,456,493,494
493,492,589,494,494
495,491,739,493,494
494,492,818,495,494
495,493,795,494,494
493,492,686,496,494
496,494,506,495,493
495,494,355,494,493
496,492,249,495,493
494,493,215,494,494
494,492,234,493,494
494,493,283,494,494
494,493,380,494,494
494,492,511,493,494
494,492,649,492,494
493,491,790,494,494
494,493,814,496,494
494,493,764,495,493
496,493,607,495,494
495,493,440,495,494
495,494,301,495,493
494,494,230,495,493
494,493,219,495,494
494,493,247,494,494
494,493,322,494,494
494,493,441,493,494
495,492,571,494,494
494,492,718,494,494
494,492,816,495,494
493,492,800,495,494
495,493,708,496,493
495,493,531,495,493
495,494,380,494,493
495,494,254,493,494
495,494,216,493,494
494,493,228,494,494
494,493,273,494,494
493,492,366,494,494
494,493,497,493,494
494,493,629,494,494
493,492,776,494,494
495,491,815,494,494
495,493,780,495,493
496,493,633,494,494
496,493,460,494,493
495,493,316,494,493
494,493,234,494,493
495,493,216,495,493
494,492,243,494,494
494,492,309,494,494
494,492,419,494,494
494,492,554,494,494
494,493,698,494,494
495,492,811,495,494
494,493,803,495,494
495,492,729,495,493
495,494,552,495,493
495,493,398,495,493
495,494,265,494,494
494,492,219,495,494
494,492,226,493,494
494,492,264,494,494
494,493,351,494,494
494,492,477,495,494
494,491,608,494,494
494,492,760,495,494
494,492,818,494,494
495,493,789,494,493
495,492,656,496,493
496,493,479,495,493
496,494,337,495,493
496,493,240,494,494
494,492,214,493,493
495,493,239,495,494
495,494,297,494,494
495,493,402,494,494
494,492,533,493,494
494,491,674,494,494
495,491,800,494,494
494,493,809,495,494
495,492,747,496,493
496,493,579,496,493
496,494,416,495,493
495,493,279,493,493
495,493,222,494,493
496,493,222,494,494
493,492,254,494,494
494,492,336,494,494
494,492,461,494,494
495,492,594,494,494
495,493,741,494,494
495,491,817,494,494
495,493,794,495,494
494,492,681,495,493
495,493,503,495,493
495,493,353,495,493
495,493,248,493,493
494,492,214,493,494
495,493,234,495,494
494,492,285,493,494
495,492,385,493,494
494,493,515,494,494
493,493,651,494,494
493,491,791,494,494
494,493,812,495,494
494,492,760,493,493
496,493,602,494,493
495,494,435,495,493
495,495,296,494,493
494,494,229,494,493
494,492,220,494,494
494,493,250,494,494
494,493,324,494,494
494,493,443,493,494
493,492,573,493,494
493,492,721,493,494
493,493,816,495,494
495,492,799,495,494
494,492,703,495,493
495,492,525,495,493
495,493,378,495,493
495,494,255,494,494
495,493,216,494,493
494,492,230,494,494
495,492,274,494,494
494,492,369,493,494
494,491,499,494,494
493,491,632,494,494
495,491,778,495,494
494,492,816,494,494
494,491,776,494,494
496,493,628,494,493
496,494,459,495,493
495,493,314,495,493
495,493,233,494,493
495,493,217,494,494
494,493,243,494,494
494,492,310,493,494
495,492,422,493,494
495,493,557,494,494
493,492,703,495,494
494,492,813,495,494
494,493,802,494,494
495,491,725,495,494
495,493,548,495,493
495,494,393,494,494
496,494,263,495,493
494,493,219,494,493
495,493,226,494,494
494,492,265,493,494
494,492,355,494,494
494,492,481,493,494
494,492,613,494,494
493,490,763,494,494
494,492,817,495,494
493,492,787,496,494
495,493,653,495,493
495,493,477,495,493
495,494,334,494,493
496,494,240,495,493
493,493,214,493,493
493,493,237,493,494
494,492,298,493,494
494,492,406,493,494
494,493,536,495,494
494,492,676,495,494
493,491,803,495,494
493,491,809,495,494
496,493,745,494,493
494,491,571,496,494
495,492,407,493,494
495,494,274,493,493
495,494,223,494,493
495,493,223,494,494
494,493,257,494,494
494,492,340,493,494
494,493,453,493,494
494,492,590,494,494
494,491,747,493,494
494,492,822,494,494
495,492,796,494,494
495,493,679,495,493
497,494,495,495,493
495,493,348,495,493
495,493,248,494,493
495,493,217,494,493
495,492,237,494,494
495,493,288,494,494
494,492,388,493,494
494,492,519,494,494
494,491,658,493,494
492,492,794,494,494
495,492,813,495,494
496,493,759,495,493
496,494,602,495,493
495,493,438,495,493
496,494,298,494,493
496,493,227,494,493
495,494,218,494,493
495,493,248,493,494
494,491,325,494,494
494,492,452,494,494
495,492,583,494,494
494,492,723,496,494
494,492,814,494,494
495,493,795,493,494
494,494,699,495,494
495,493,524,494,493
496,494,374,494,493
496,493,250,493,493
495,493,213,494,493
495,493,229,494,493
495,493,276,493,494
495,492,370,494,494
493,493,497,495,494
494,492,631,493,494
493,490,782,495,494
495,492,815,496,494
495,492,776,495,493
496,494,623,496,493
496,493,447,493,493
495,494,308,494,494
496,493,234,493,493
494,493,218,493,493
494,493,246,494,494
494,492,314,494,494
495,492,422,494,494
495,492,556,494,494
494,490,708,492,494
493,491,814,495,494
494,491,803,494,494
495,493,722,496,494
496,494,545,495,493
496,494,393,495,493
495,494,263,494,494
495,494,218,494,493
495,493,227,494,494
494,494,268,494,494
495,493,357,493,494
494,493,488,493,494
494,491,619,494,494
493,492,765,495,494
493,491,817,495,494
493,492,783,495,493
495,493,649,495,493
496,494,477,495,493
495,494,333,494,493
495,493,236,494,494
496,493,214,493,493
494,493,237,493,494
494,493,299,494,494
494,493,411,494,494
494,492,541,495,494
494,492,682,494,494
493,493,803,494,494
494,492,805,495,494
494,492,740,495,494
495,494,565,495,493
495,493,407,494,493
495,494,270,495,493
495,492,222,494,493
494,493,223,494,494
494,493,257,494,494
495,492,341,494,494
494,493,463,494,494
494,492,595,494,494
494,491,749,494,494
493,491,819,495,494
494,493,794,494,493
495,493,674,495,494
496,494,493,495,493
495,493,349,494,493
495,495,245,492,494
495,494,215,493,494
495,493,236,494,493
494,492,288,495,494
494,492,391,494,494
493,492,521,494,494
493,492,660,493,494
494,491,793,494,494
494,494,811,495,494
496,494,755,495,493
495,493,595,495,494
495,494,430,494,493
495,494,289,496,494
495,492,225,494,493
495,493,219,494,494
494,492,249,493,494
494,494,328,494,494
493,492,447,494,494
494,493,580,494,494
493,492,729,495,494
494,492,819,495,494
495,492,798,495,494
495,493,697,495,493
496,494,517,494,493
495,494,366,495,493
496,494,250,494,493
495,493,215,494,493
494,493,231,494,494
494,493,276,493,494
494,493,373,493,494
494,492,503,494,494
493,491,639,495,494
495,494,786,494,494
494,492,815,495,494
494,491,772,495,494
495,493,619,496,494
496,494,447,495,493
495,494,306,494,493
494,492,232,494,493
495,493,217,494,494
496,492,245,493,494
495,492,315,493,494
493,492,428,493,494
495,492,560,494,494
495,491,708,494,494
494,491,814,495,494
495,492,803,495,494
495,492,720,495,493
495,492,542,494,493
496,494,389,494,494
495,493,261,494,493
494,493,218,494,493
495,492,226,494,494
494,493,270,494,494
494,492,359,493,494
494,492,488,494,494
494,492,621,493,494
494,491,768,494,494
494,492,818,495,494
496,494,784,495,493
495,493,643,495,493
495,493,473,494,493
496,493,327,495,493
493,494,236,493,493
495,493,214,493,494
494,493,240,493,494
495,492,301,493,494
494,492,409,493,494
494,493,542,494,494
493,493,687,496,494
493,492,808,495,494
494,493,807,495,494
495,493,737,494,493
495,493,564,494,493
495,493,405,494,493
496,493,268,493,493
494,493,221,495,493
495,492,224,495,494
494,493,258,495,494
494,493,344,494,494
494,492,468,494,494
494,493,602,494,494
494,491,751,493,494
494,492,819,495,494
494,492,791,494,494
495,494,670,494,493
495,494,492,495,494
495,494,347,494,494
494,492,242,494,493
494,493,213,495,494
494,493,235,493,494
494,492,289,493,494
493,492,395,494,494
494,491,524,493,494
494,492,662,494,494
494,490,795,495,494
494,492,810,494,494
494,493,753,495,494
495,493,590,495,493
495,495,425,495,493
494,493,287,494,493
495,493,225,494,493
494,493,221,493,494
494,492,252,494,494
494,494,331,494,494
494,492,450,494,494
495,492,582,493,494
494,492,732,494,494
493,492,818,495,494
493,493,799,495,493
495,493,692,495,493
496,493,514,494,493
496,493,364,494,493
496,493,250,494,493
494,493,215,493,494
493,492,231,493,493
495,493,278,494,494
494,493,377,494,494
494,492,508,495,494
494,492,641,494,494
492,491,787,494,494
494,493,814,495,494
495,493,771,495,493
496,494,614,495,493
495,494,448,494,493
495,494,305,494,494
494,494,230,494,493
494,493,217,495,494
494,491,245,494,494
494,493,318,493,494
493,493,434,494,494
493,492,563,493,494
493,492,713,493,494
492,492,814,494,494
494,494,801,494,493
494,493,715,495,493
494,494,535,495,493
496,493,384,494,493
495,494,259,493,493
495,493,218,494,494
494,493,227,493,494
495,493,270,494,494
495,492,361,494,494
495,492,489,493,494
494,492,622,494,494
493,492,770,495,494
495,492,816,495,494
494,493,784,495,494
494,493,639,496,493
494,494,466,495,493
495,493,324,494,493
496,494,237,494,493
494,492,214,493,494
495,494,241,494,494
494,491,305,493,494
495,492,416,492,494
493,493,548,493,494
494,492,690,494,494
494,492,809,493,494
494,493,807,494,494
494,492,734,493,494
494,494,562,495,493
495,494,406,495,493
495,494,266,496,493
494,492,218,495,494
495,493,223,492,494
495,491,259,493,494
494,493,345,493,494
493,492,470,494,494
493,492,603,494,494
494,490,757,494,494
494,493,818,494,494
494,493,790,495,494
494,493,664,495,493
495,494,483,495,493
495,494,340,494,493
495,494,242,493,493
494,493,215,493,494
494,492,238,495,494
494,492,291,493,494
494,492,396,493,494
493,491,526,494,494
494,492,670,493,494
492,491,798,494,494
494,493,810,495,494
494,492,750,496,493
495,494,587,495,493
495,494,422,494,493
495,494,284,495,493
494,493,225,494,493
494,494,221,493,494
493,492,253,493,494
494,492,334,493,494
494,492,459,493,494
494,493,589,493,494
493,491,733,493,494
493,493,816,494,494
494,492,795,495,493
494,493,688,494,493
495,494,512,495,493
495,494,362,494,493
495,494,247,494,493
494,493,213,494,494
494,493,231,494,493
495,492,281,494,494
494,494,381,493,494
493,492,510,494,494
494,493,644,494,494
492,491,788,494,494
494,492,814,494,494
494,492,766,494,493
495,493,610,495,493
495,494,441,494,493
495,493,300,495,493
494,493,229,493,493
496,493,218,493,494
495,493,247,494,494
495,493,319,493,494
494,492,434,493,494
494,492,565,495,494
493,492,717,495,494
494,491,816,495,494
495,492,801,494,494
494,493,712,496,494
494,493,533,495,493
495,493,382,495,493
495,493,256,494,494
494,493,216,494,494
494,492,227,494,494
495,493,270,494,494
494,492,363,494,494
493,492,494,494,494
493,492,626,493,494
492,491,775,494,494
493,492,817,494,494
494,492,781,494,494
496,493,635,496,493
495,493,464,494,493
494,493,320,493,493
495,493,236,494,493
495,494,216,494,494
494,494,242,493,494
493,494,307,494,494
493,492,420,494,494
493,492,552,494,494
494,491,694,494,494
494,492,810,494,494
493,493,805,495,494
495,494,731,496,493
494,494,556,496,493
494,495,400,494,493
495,493,266,494,493
494,493,220,495,493
494,492,225,493,494
494,492,262,494,494
493,492,349,493,494
494,492,475,495,494
494,492,607,494,494
493,490,757,493,494
493,492,820,494,494
493,492,790,495,493
494,493,660,495,493
495,494,485,495,493
495,493,341,494,493
495,493,241,493,493
494,493,214,494,494
494,493,237,493,494
494,492,295,494,494
495,491,401,494,494
493,491,531,494,494
493,492,672,494,494
494,492,799,494,494
496,493,809,493,494
496,494,748,494,494
493,496,579,495,493
494,495,414,495,493
496,493,276,495,494
494,492,222,493,494
494,493,223,493,494
494,492,252,493,494
492,494,335,494,494
495,491,445,492,494
494,493,582,494,494
492,493,746,493,494
491,491,819,496,494
494,491,796,493,494
493,492,684,493,494
494,495,498,496,493
494,494,341,494,493
496,492,253,495,493
495,492,217,495,494
495,492,236,494,494
495,492,287,493,494
492,491,382,495,494
492,491,502,492,494
495,491,652,495,494
491,492,792,493,494
494,490,815,494,494
493,491,769,493,494
495,491,609,494,494
494,492,427,495,493
494,492,289,495,494
496,491,233,495,493
492,495,223,496,494
494,491,253,492,494
494,494,326,492,494
496,490,429,495,494
495,492,563,494,494
491,490,725,494,494
495,493,821,494,494
495,492,804,494,494
495,493,709,496,493
495,494,525,495,493
494,493,373,494,493
495,493,260,496,493
494,494,220,494,494
493,493,231,494,494
493,492,276,494,494
494,492,368,494,494
494,492,497,494,494
494,492,632,494,494
492,492,779,493,494
492,491,818,494,494
494,493,780,495,493
495,493,633,495,493
494,494,466,495,493
495,494,320,494,493
495,493,232,494,493
494,493,216,495,494
494,493,243,494,494
494,493,309,494,494
493,492,426,494,494
493,492,557,495,494
494,492,701,494,494
494,491,812,495,494
494,492,803,494,494
494,492,727,496,493
496,493,549,495,493
495,494,393,495,493
495,494,265,494,493
493,493,220,495,493
494,492,226,494,494
495,493,264,494,494
494,493,352,494,494
493,492,472,493,494
494,491,605,493,494
494,492,763,495,494
493,493,820,494,494
494,493,788,494,493
494,495,657,495,493
496,494,472,494,493
495,495,330,494,493
495,495,244,493,493
494,494,217,494,494
494,493,241,493,494
494,493,299,493,494
494,492,401,493,494
494,492,532,494,494
493,491,678,495,494
493,491,804,495,494
495,493,810,494,494
495,494,745,495,493
495,493,579,494,493
495,495,419,494,493
495,494,280,493,493
495,493,222,493,493
494,492,222,493,494
494,492,256,495,494
493,491,339,495,494
494,493,469,495,494
493,492,600,494,494
494,493,742,494,494
495,492,818,494,494
494,492,792,494,493
494,493,679,495,493
495,494,509,496,493
496,494,357,495,494
494,495,241,495,493
495,494,211,494,493
494,492,231,493,494
494,494,281,493,494
494,493,386,494,494
494,492,515,494,494
493,492,652,494,494
493,493,791,494,494
493,493,811,494,494
494,494,757,494,493
495,494,600,494,493
495,494,429,494,493
495,493,291,493,493
495,493,229,493,493
495,493,221,493,493
494,493,249,494,494
495,493,326,494,494
495,492,441,494,494
494,491,573,493,494
493,491,726,494,494
493,492,817,494,494
494,491,799,495,493
495,493,703,495,493
495,494,521,496,493
495,493,373,494,493
494,492,256,495,493
495,494,218,494,493
493,492,231,494,494
494,493,277,493,494
494,492,371,494,494
494,492,500,494,494
495,492,633,493,494
493,491,781,494,494
494,492,814,494,494
493,493,777,495,494
495,493,625,494,493
495,495,457,495,493
496,494,314,495,493
494,493,233,494,493
495,493,217,494,493
493,492,244,493,494
495,492,312,495,494
493,493,424,494,494
493,492,558,493,494
494,491,703,494,494
494,493,813,495,494
494,492,802,495,494
493,493,724,495,493
496,495,547,495,493
495,494,392,495,493
496,494,261,494,493
494,493,218,493,493
494,492,226,494,494
494,493,267,494,494
494,492,354,494,494
494,492,480,493,494
493,492,614,493,494
494,493,765,495,494
494,493,819,496,494
493,492,786,495,493
495,493,651,496,493
495,494,473,495,493
494,494,330,494,493
495,493,239,493,493
495,493,216,493,494
494,493,240,494,494
494,492,301,493,494
494,493,407,494,494
493,492,539,494,494
493,492,683,493,494
493,492,804,494,494
495,494,809,496,494
495,492,741,495,493
496,493,569,495,493
496,494,409,494,493
495,494,274,494,493
495,494,222,493,493
493,493,223,494,494
495,493,257,493,494
494,493,342,493,494
495,492,465,493,494
493,491,597,493,494
494,489,749,494,494
494,492,819,494,494
493,492,794,495,493
494,493,674,497,494
495,494,497,495,494
496,494,351,494,493
495,493,245,494,494
493,494,214,494,494
494,493,237,493,494
494,494,287,494,494
493,493,389,494,494
494,492,519,493,494
493,492,656,493,494
492,492,793,494,494
495,492,811,494,494
493,493,754,496,493
494,494,596,495,494
495,494,430,495,493
495,493,290,495,493
494,493,227,494,493
494,493,220,494,494
494,494,251,494,494
493,493,327,495,494
494,493,447,494,494
493,492,579,494,494
493,492,729,492,494
494,492,817,494,494
494,492,799,493,494
494,494,698,495,493
496,493,518,495,493
495,493,367,495,493
495,493,253,493,493
495,493,216,493,493
494,493,230,494,494
494,493,277,493,494
494,493,373,493,494
493,493,502,493,494
492,492,637,493,494
493,492,784,494,494
493,491,815,496,494
495,494,775,495,493
494,493,620,495,493
496,493,449,494,493
495,493,307,494,493
494,493,234,494,494
494,492,219,493,494
494,493,247,494,494
494,493,316,493,494
494,492,430,493,494
493,492,561,493,494
493,494,705,495,494
492,492,814,494,494
495,494,802,495,494
496,494,721,495,493
495,493,541,495,493
494,493,389,494,493
495,494,261,494,493
495,493,219,494,493
494,493,228,492,494
494,493,269,493,494
494,492,356,493,494
493,492,483,493,494
493,492,616,492,494
491,491,767,493,494
495,492,818,494,494
493,491,785,495,493
494,494,645,494,493
494,494,470,495,493
495,493,327,494,494
495,494,238,494,493
494,494,215,493,494
495,493,242,493,494
494,492,303,494,494
494,492,411,493,494
493,492,543,493,494
494,492,687,495,494
494,492,808,494,494
493,493,807,494,494
493,493,739,493,494
494,493,567,494,493
496,493,409,495,493
495,494,269,494,494
495,494,220,493,493
494,492,222,493,493
493,494,258,494,494
493,493,344,493,494
493,493,469,493,494
493,492,602,494,494
493,492,750,495,494
493,492,818,495,494
494,492,791,494,493
494,493,669,495,493
495,493,490,495,494
495,494,347,494,493
496,494,243,494,493
493,492,215,493,493
494,493,237,494,494
494,491,291,492,494
494,491,391,493,494
492,492,520,493,494
494,490,662,495,494
494,491,794,494,494
493,492,810,492,494
493,493,752,494,493
495,493,590,494,493
495,494,420,494,493
496,494,284,494,493
494,492,228,494,493
494,493,222,493,494
493,493,253,494,494
493,492,332,493,494
493,492,445,492,494
493,493,580,494,494
492,493,735,495,494
493,491,818,494,494
493,493,797,495,494
494,492,693,494,493
495,493,512,494,493
496,493,364,494,493
495,493,251,494,493
495,493,216,494,494
493,492,233,493,494
493,493,279,493,494
495,492,379,493,494
494,492,508,493,494
493,492,641,495,494
493,492,786,494,494
494,492,814,495,494
493,494,770,494,493
495,493,615,494,493
495,494,449,495,493
495,493,305,494,493
495,493,230,494,493
494,492,218,493,493
495,493,247,493,494
494,492,318,493,494
494,492,434,494,494
493,492,563,493,494
493,491,710,494,494
493,491,813,494,494
494,493,800,495,494
493,493,714,494,493
495,493,535,495,493
495,494,383,495,493
496,495,258,495,493
494,493,219,493,493
495,494,227,494,494
494,493,271,493,494
494,493,361,494,494
493,491,489,493,494
493,493,622,493,494
491,492,770,493,494
493,492,817,494,494
494,493,784,494,493
494,493,640,495,493
495,494,466,495,493
495,493,324,493,493
494,494,237,494,494
494,493,216,492,494
494,493,242,493,494
494,495,306,492,494
493,492,416,493,494
493,492,548,493,494
493,492,690,493,494
492,491,808,494,494
494,493,806,494,494
493,493,732,494,493
495,494,562,494,494
495,494,405,495,493
495,494,267,493,493
493,493,219,493,493
494,492,224,494,494
493,492,260,493,494
494,491,346,492,494
493,492,473,493,494
493,492,605,493,494
493,491,755,493,494
493,492,817,494,494
495,493,787,494,494
495,493,663,494,494
495,493,487,494,493
494,493,342,494,494
494,493,242,493,493
494,494,213,493,493
493,493,238,494,494
493,492,291,493,494
493,493,397,494,494
493,492,527,493,494
492,493,667,492,494
494,492,796,494,494
494,493,807,494,494
496,493,750,494,493
494,494,585,495,494
495,493,421,494,494
494,494,283,494,494
493,493,225,493,493
494,492,222,493,494
494,493,254,492,494
494,493,334,493,494
493,492,455,493,494
493,492,587,493,494
493,491,734,493,494
493,493,816,493,494
494,494,795,494,494
494,493,687,494,493
494,493,508,494,493
494,493,360,494,493
495,494,249,494,493
494,494,213,493,494
494,494,233,492,494
494,493,281,493,494
494,492,381,492,494
493,492,510,494,494
493,492,643,493,494
491,491,787,494,494
494,492,813,494,494
494,493,768,494,494
495,493,609,494,494
495,494,443,493,493
494,493,302,494,493
496,492,229,493,493
494,494,218,494,494
494,492,248,493,494
494,492,320,492,494
494,492,437,493,494
492,492,567,493,494
493,491,714,495,494
494,491,815,494,494
494,491,800,494,494
493,492,710,494,493
496,494,531,494,493
495,494,381,494,493
495,494,256,493,493
494,494,217,493,494
494,493,229,493,494
494,492,272,493,494
495,493,363,492,494
493,492,494,493,494
492,492,626,493,494
494,491,774,494,494
494,492,816,494,494
493,493,781,494,494
494,493,634,493,493
495,493,462,493,493
496,494,318,493,493
495,493,235,493,493
494,493,216,493,494
494,493,241,493,494
495,493,308,493,494
493,492,421,494,494
493,492,552,493,494
493,491,694,494,494
493,492,810,494,494
494,492,804,494,494
495,493,730,494,493
496,493,556,494,493
494,494,399,494,494
495,493,267,493,493
495,493,219,492,493
494,493,225,493,494
494,493,262,492,494
494,492,350,493,494
493,492,476,493,494
493,491,608,493,494
493,493,757,493,494
494,492,817,494,494
494,493,788,493,494
495,494,658,494,493
495,494,484,494,493
495,494,339,494,494
494,494,240,494,493
495,493,214,493,494
493,492,238,491,494
494,493,295,491,494
494,492,402,493,494
493,492,531,493,494
492,492,672,494,494
492,491,799,493,494
494,492,808,493,494
493,492,748,495,493
494,493,580,494,493
495,493,418,494,493
494,493,279,493,494
494,494,222,493,493
494,493,220,492,494
494,494,254,492,494
494,493,336,492,494
494,492,458,493,494
492,492,591,493,494
494,491,741,493,494
493,493,818,493,494
493,492,792,493,494
494,493,683,495,493
495,493,505,494,493
495,494,353,494,493
496,494,246,495,493
494,493,214,492,493
494,492,233,492,494
494,494,284,493,494
494,492,384,493,494
494,491,514,493,494
493,492,649,492,494
493,492,790,493,494
493,492,812,494,494
495,493,763,494,493
494,494,605,494,493
495,493,437,494,493
494,494,298,493,493
494,493,229,493,493
494,493,218,493,494
494,493,248,493,494
494,492,323,493,494
494,492,441,493,494
494,491,571,493,494
495,491,721,493,494
494,491,817,495,494
494,492,800,494,494
495,493,705,494,493
495,494,527,494,493
496,493,378,494,493
495,493,256,494,493
495,494,216,493,493
494,493,229,492,494
493,492,273,493,494
494,492,366,493,494
494,492,497,493,494
492,491,629,494,494
494,491,778,494,494
493,492,816,495,494
495,492,779,494,493
495,493,631,494,493
495,494,460,494,493
494,493,314,494,493
495,493,233,494,493
495,493,217,494,494
495,493,244,493,494
494,492,310,494,494
494,493,424,493,494
493,492,557,494,494
494,491,700,492,494
493,492,811,494,494
494,492,802,495,494
495,493,726,494,493
496,493,552,494,493
495,493,396,494,493
496,494,263,494,493
494,493,218,493,493
494,492,224,492,493
494,494,264,493,494
494,492,353,493,494
494,492,480,493,494
494,492,611,493,494
494,492,759,493,494
494,492,817,494,494
494,493,786,493,493
495,494,654,495,493
495,493,478,494,493
495,493,335,494,493
494,493,240,494,493
495,494,214,494,493
494,493,238,493,494
494,493,298,494,494
494,491,405,493,494
494,492,535,494,494
494,492,676,492,494
493,491,801,494,494
494,492,807,494,494
494,493,742,495,493
495,493,573,495,493
495,494,414,493,493
495,494,276,494,493
495,493,222,493,493
494,492,221,493,494
495,493,255,493,494
494,492,338,493,494
494,492,461,493,494
494,492,595,493,494
493,493,743,493,494
493,492,819,494,494
494,493,793,493,493
495,494,679,494,493
496,494,501,494,493
495,493,353,493,493
495,494,245,494,493
494,494,214,493,493
496,494,235,493,494
494,492,285,493,494
494,492,388,493,494
494,492,518,493,494
494,491,654,493,494
493,492,791,494,494
494,491,812,494,494
494,492,758,494,493
495,493,600,494,494
496,493,434,494,493
495,493,293,493,493
496,493,228,492,493
494,493,220,493,493
494,492,250,493,494
494,493,326,493,494
493,493,445,493,494
493,491,575,494,494
493,491,723,493,494
493,491,816,494,494
494,492,798,494,494
494,493,700,494,494
495,493,521,494,493
494,494,372,494,493
495,493,252,494,493
494,492,217,494,493
494,493,231,493,494
495,493,277,493,494
495,492,371,492,494
494,492,499,493,494
494,493,632,493,494
494,492,780,493,494
494,493,816,494,494
494,493,775,494,493
494,494,624,495,493
495,493,455,494,493
495,493,312,494,493
493,493,232,494,493
494,492,217,493,494
494,492,246,494,494
494,493,313,493,494
493,493,426,493,494
494,492,567,494,494
494,492,703,494,494
493,491,812,494,494
495,493,801,495,494
496,493,730,494,493
495,493,582,494,493
495,494,433,494,493
495,493,295,494,493
495,494,202,493,493
493,493,213,493,494
495,493,260,493,494
494,492,373,493,494
493,492,514,493,494
493,492,644,493,494
493,491,747,494,494
494,492,799,494,494
494,493,767,495,493
495,493,655,494,493
495,494,503,495,493
495,493,360,494,493
495,494,238,494,493
495,493,193,494,493
493,493,222,494,494
494,493,295,492,494
494,491,433,493,494
494,492,566,493,494
493,493,691,494,494
493,491,778,494,494
494,492,786,495,494
495,493,728,494,493
495,494,587,495,493
496,494,439,493,493
495,494,300,493,493
495,494,199,494,493
494,493,201,493,494
494,493,240,493,494
494,492,351,493,494
494,492,491,494,494
494,492,622,494,494
494,493,732,494,494
495,493,796,495,494
495,492,773,494,493
495,493,672,494,493
495,494,521,495,493
495,494,379,494,493
495,493,250,494,493
496,493,191,493,493
495,492,217,493,493
495,492,277,493,494
494,492,409,494,494
493,491,546,493,494
494,492,675,495,494
493,493,766,494,494
494,493,790,495,494
494,492,739,494,493
495,494,609,494,493
495,494,458,493,493
495,493,318,494,493
495,493,209,493,493
494,492,197,493,494
494,493,231,493,494
493,492,331,493,494
494,492,474,492,494
493,492,604,494,494
495,493,721,494,494
494,493,793,494,494
495,492,777,494,494
496,493,690,494,493
496,493,541,494,493
495,493,395,494,493
495,494,264,494,493
495,493,190,494,493
494,494,210,493,494
494,493,264,493,494
494,492,392,493,494
493,491,529,495,494
494,491,660,494,494
494,491,756,493,494
494,492,792,494,494
495,494,755,494,493
495,493,628,495,493
495,494,476,495,494
495,493,335,493,493
495,494,222,494,493
495,492,194,493,493
495,493,226,493,494
494,492,314,493,494
493,492,454,494,494
494,491,586,493,494
494,492,707,494,494
495,491,788,494,494
496,493,780,495,494
494,493,707,495,493
496,492,562,495,493
495,493,416,494,493
495,494,282,494,493
495,493,193,494,493
494,492,206,494,494
494,493,255,493,494
494,492,371,493,494
494,492,511,494,494
494,492,642,493,494
494,492,743,495,494
494,492,793,494,494
494,491,764,495,493
495,493,647,494,493
495,494,497,494,493
495,494,355,493,493
495,494,233,494,493
494,493,192,493,493
495,492,220,494,494
494,491,296,494,494
494,492,434,493,494
493,493,570,493,494
493,493,694,493,494
493,492,780,493,494
493,491,785,495,494
494,492,723,495,493
495,493,582,494,493
494,493,435,494,493
495,495,295,494,493
496,494,197,493,493
495,493,201,495,494
494,492,240,493,494
494,491,352,494,494
494,493,494,493,494
494,492,627,493,494
493,492,734,494,494
494,492,795,494,494
495,491,769,495,493
495,493,667,495,493
495,494,516,494,493
495,493,374,494,493
494,493,248,494,493
495,493,190,494,494
495,493,216,493,494
493,492,281,493,494
494,492,414,494,494
493,492,550,494,494
493,492,677,494,494
494,493,767,495,494
495,493,788,495,493
494,492,736,495,493
495,493,604,495,493
496,493,454,494,493
496,494,313,494,493
495,494,208,494,493
494,493,197,494,493
495,492,233,493,494
495,493,333,494,494
493,492,475,493,494
493,492,608,494,494
494,492,722,494,494
493,493,794,494,494
495,493,776,494,494
494,492,687,495,494
495,493,537,494,493
495,494,392,495,493
496,493,261,494,493
495,494,190,493,494
494,493,212,493,494
495,493,267,493,494
494,493,394,494,494
495,493,533,494,494
493,491,662,494,494
494,492,758,494,494
494,492,791,495,494
495,492,752,495,493
494,493,624,495,493
495,494,472,495,493
496,494,330,494,493
494,494,216,494,493
494,493,196,493,494
495,492,227,493,494
494,492,318,494,494
494,492,457,493,494
494,492,587,494,494
493,492,707,495,494
493,492,790,494,494
494,492,779,495,493
495,493,704,495,493
494,493,556,495,493
495,493,411,494,493
496,494,276,495,493
495,494,195,495,493
495,492,206,493,493
494,494,256,492,494
493,492,374,493,494
493,492,515,494,494
494,491,643,494,494
493,492,744,494,494
494,492,793,496,494
494,492,762,494,493
495,493,643,494,493
496,493,492,494,493
495,493,350,493,493
494,494,229,493,494
495,493,194,493,493
494,493,222,493,494
494,492,300,494,494
494,491,437,494,494
494,492,573,494,494
495,492,693,494,494
494,493,784,496,494
495,494,786,495,494
496,493,712,494,493
495,493,541,495,493
495,494,362,494,493
495,492,259,494,493
495,492,214,494,494
494,492,215,495,494
494,495,257,493,494
494,492,341,493,494
495,493,444,494,494
493,493,591,494,494
493,492,755,493,494
493,492,816,495,494
494,491,789,495,493
495,494,662,494,493
496,493,472,494,493
496,494,311,496,494
495,493,248,494,494
496,494,220,494,493
495,493,240,494,494
493,493,295,493,494
495,493,394,493,494
494,492,497,494,494
492,491,674,494,494
493,491,800,494,494
494,493,824,495,494
495,493,757,495,494
495,494,599,495,493
495,493,448,494,493
495,493,286,494,493
495,493,221,494,493
495,493,218,494,493
495,494,250,495,494
494,492,333,494,494
493,491,456,493,494
494,492,595,493,494
495,492,730,493,494
494,492,812,494,494
495,492,790,494,493
494,493,693,495,494
496,493,496,495,493
495,493,358,494,493
496,493,247,495,493
495,493,213,494,494
495,494,231,494,494
495,492,280,494,494
493,493,375,494,494
494,492,504,494,494
494,491,643,493,494
495,492,786,495,494
494,492,812,494,494
495,492,766,495,493
494,492,619,496,493
496,493,464,495,493
496,493,320,494,493
495,493,223,494,493
495,494,214,494,493
494,492,243,494,494
495,493,333,494,494
494,491,472,494,494
494,491,601,494,494
493,491,718,494,494
493,492,797,494,494
495,493,785,495,494
495,492,706,495,493
496,493,558,495,493
495,493,413,495,494
496,494,278,493,493
496,494,196,493,493
495,492,212,494,494
495,492,257,494,494
494,493,369,494,494
494,492,503,494,494
495,492,628,494,494
493,492,757,495,494
494,491,801,495,494
494,492,767,496,493
496,493,624,495,494
497,493,457,494,493
496,493,313,493,493
495,494,229,494,493
495,493,210,494,494
495,491,238,494,494
494,493,303,493,494
495,492,409,494,494
494,492,542,494,494
494,491,692,494,494
494,492,807,495,494
494,492,801,495,494
495,492,727,494,494
496,493,550,495,494
496,493,393,495,493
495,494,268,495,493
496,494,222,494,494
495,493,227,493,494
495,492,264,494,494
496,493,349,493,494
494,492,475,494,494
493,491,607,494,494
494,491,757,495,494
495,491,816,494,494
495,492,787,495,493
495,492,658,495,494
496,494,494,495,493
495,494,350,495,493
496,494,239,494,493
495,493,212,494,494
494,492,237,495,494
495,493,294,493,494
494,492,415,494,494
493,493,545,494,494
494,493,669,493,494
494,491,792,495,494
496,492,800,495,494
495,492,741,494,493
495,493,589,495,494
496,493,432,495,493
496,494,290,494,493
494,494,216,493,493
494,492,216,494,494
495,492,250,494,494
494,493,334,493,494
494,492,463,493,494
495,491,591,494,494
495,491,733,493,494
493,493,811,493,494
494,492,788,495,494
495,492,677,495,494
496,494,501,495,493
494,494,351,495,493
495,493,248,493,493
494,493,214,495,493
494,492,234,493,494
493,494,283,494,494
493,493,380,493,494
494,492,508,494,494
493,491,648,493,494
493,492,788,494,494
494,493,812,495,494
494,492,761,495,494
495,494,602,496,493
495,494,434,494,493
496,493,297,494,493
495,494,231,495,494
494,492,222,494,494
494,493,251,493,494
494,493,324,494,494
495,492,442,494,494
495,492,571,494,494
493,491,717,495,494
493,492,814,494,494
494,494,797,495,494
495,492,703,495,493
495,493,531,495,494
495,494,383,495,493
496,493,256,494,494
494,492,216,495,493
494,493,230,493,494
494,492,274,493,494
494,492,371,493,494
494,492,501,494,494
494,492,632,494,494
493,492,774,495,494
496,492,813,496,494
495,492,776,496,493
496,494,628,496,494
496,494,462,495,493
496,494,318,494,493
495,493,234,493,493
495,493,218,493,494
494,493,244,493,494
495,493,310,494,494
495,493,423,494,494
495,492,556,494,494
494,492,699,494,494
494,492,808,494,494
494,492,800,495,494
495,492,724,496,493
497,494,549,495,493
495,494,393,495,493
496,494,266,495,493
495,494,222,494,494
495,493,229,493,494
494,492,267,494,494
494,492,352,493,494
495,493,479,494,494
495,491,609,495,494
495,492,758,495,494
495,493,816,495,494
495,492,784,494,493
495,493,653,494,494
495,493,479,495,493
495,494,337,495,493
495,493,243,494,494
495,493,217,494,494
495,492,240,494,494
494,492,299,494,494
494,492,409,494,494
494,492,536,494,494
494,492,675,493,494
494,492,800,495,494
494,491,805,494,494
495,493,742,495,493
496,493,575,495,493
496,493,417,494,493
496,493,279,495,493
496,492,222,495,493
493,493,224,493,494
496,493,257,494,494
494,492,339,493,494
494,492,459,494,494
494,491,591,495,494
494,490,743,494,494
494,492,816,494,494
494,492,788,494,493
495,493,677,495,493
497,494,497,495,493
495,494,350,494,493
496,493,249,495,494
495,492,218,494,494
494,493,237,494,494
495,492,288,493,494
495,493,386,493,494
494,492,515,494,494
494,491,655,493,494
494,491,789,494,494
494,492,808,494,494
495,492,757,495,493
496,494,600,496,494
496,493,434,494,493
496,494,297,494,494
495,493,232,494,493
495,493,224,495,494
494,491,252,494,494
494,493,328,493,494
494,492,449,494,494
495,491,577,494,494
495,493,720,494,494
494,492,811,494,494
494,493,795,495,494
495,494,698,496,494
496,493,525,495,493
497,493,376,494,493
495,494,255,494,493
495,492,219,493,493
494,492,231,494,494
496,492,277,494,494
494,492,372,494,494
494,492,499,494,494
494,492,629,496,494
494,493,777,495,494
494,492,811,495,494
495,493,773,495,494
495,493,623,495,494
495,493,453,495,493
496,494,313,494,493
495,493,236,494,494
495,493,220,494,494
494,493,249,494,494
494,493,314,494,494
494,492,424,494,494
494,492,556,494,494
494,493,703,494,494
493,492,809,494,494
495,493,801,495,494
494,493,721,495,494
496,493,545,495,493
496,494,393,495,493
495,494,265,494,493
495,493,222,494,494
495,494,231,495,494
494,493,269,494,494
494,493,357,493,494
494,493,484,493,494
494,492,614,494,494
492,491,762,496,494
493,493,814,495,494
496,493,783,495,493
496,494,647,495,493
496,494,475,496,493
496,494,332,494,493
495,494,241,494,494
493,493,219,494,493
495,493,243,494,494
495,492,302,494,494
494,492,410,494,494
495,492,539,494,494
495,492,680,492,494
494,491,801,495,494
494,492,804,495,494
495,493,735,495,493
496,494,566,495,494
495,494,410,494,493
496,494,274,494,493
495,494,226,493,493
495,492,226,494,494
495,492,261,494,494
494,493,344,494,494
495,493,465,494,494
494,491,596,494,494
494,490,746,494,494
495,492,814,494,494
495,492,789,495,494
495,493,669,495,494
496,494,496,494,493
496,493,351,493,494
495,494,248,495,493
495,494,216,493,494
495,493,240,494,494
495,492,290,494,494
495,493,392,494,494
494,492,521,494,494
493,492,657,492,494
496,491,791,495,494
494,491,807,494,493
495,492,752,495,493
496,492,593,496,493
496,494,430,495,493
496,493,292,494,493
494,493,229,494,494
496,493,223,493,494
495,493,254,494,494
494,493,330,494,494
495,492,448,493,494
495,491,579,494,494
492,492,728,495,494
495,492,814,494,494
494,492,795,493,494
496,493,694,495,494
496,494,517,494,494
496,493,368,495,493
496,492,255,494,494
496,493,218,494,493
495,492,233,494,494
494,492,280,494,494
494,492,376,494,494
494,492,505,493,494
493,492,635,495,494
495,493,779,494,494
494,492,811,495,494
495,491,769,496,494
496,492,617,495,493
496,494,449,495,493
496,494,309,495,493
496,493,235,494,493
494,493,220,494,494
495,491,249,495,494
494,493,318,494,494
493,491,430,494,494
495,492,559,494,494
493,491,707,495,494
495,492,810,495,494
495,493,796,495,494
496,492,715,496,494
496,494,559,496,493
495,493,416,495,493
496,493,284,495,493
495,492,213,494,494
495,492,224,494,493
495,493,270,494,494
493,492,385,495,494
494,491,523,494,494
494,491,650,494,494
494,493,748,495,494
495,492,797,494,494
494,492,766,495,494
496,492,650,496,493
496,493,500,496,493
495,494,359,495,493
495,493,238,494,493
495,493,198,494,494
495,493,227,494,494
494,492,301,494,494
494,492,437,493,494
494,492,572,494,494
494,493,693,495,494
494,491,779,494,494
495,493,781,495,494
495,493,720,495,494
495,494,581,495,493
495,494,434,495,493
496,493,298,495,493
496,494,201,494,493
495,493,205,494,493
495,493,245,494,494
494,492,356,494,494
494,492,497,495,494
494,492,626,494,494
492,493,731,494,494
494,492,790,494,494
494,492,768,495,494
495,493,665,496,493
495,493,515,495,493
495,492,376,494,493
495,493,251,494,493
495,493,194,493,494
495,494,219,493,494
494,492,284,493,494
493,492,417,493,494
494,492,551,494,494
494,492,676,495,494
494,492,765,495,494
495,492,784,494,494
493,493,733,495,493
494,493,601,495,493
496,494,453,495,493
496,493,316,494,493
495,494,211,494,493
495,493,200,494,494
495,493,236,495,494
494,492,338,494,494
494,492,476,494,494
493,491,608,494,494
494,493,720,494,494
495,492,789,494,494
494,493,773,495,493
495,493,683,496,493
495,494,537,495,494
496,494,392,495,493
495,493,263,495,493
496,493,193,493,493
495,493,215,494,494
494,492,270,494,494
494,492,398,493,494
494,493,534,495,494
495,492,663,495,494
494,491,757,494,494
494,492,787,494,494
494,492,749,495,493
495,493,621,494,493
495,494,472,495,493
495,493,333,494,494
495,493,221,494,493
494,492,198,494,494
494,494,231,494,494
494,493,320,493,494
494,491,460,494,494
495,491,589,494,494
494,491,707,494,494
493,493,785,495,494
495,492,776,494,493
495,493,700,495,493
495,494,555,495,493
495,493,412,494,494
497,493,279,494,493
495,493,195,494,493
495,493,209,494,493
494,492,259,494,494
494,492,378,494,494
494,491,517,493,494
494,491,645,495,494
493,491,743,494,494
495,493,788,496,494
495,492,758,495,493
494,493,640,495,494
495,493,491,495,493
495,493,352,495,493
496,494,233,494,493
494,494,195,494,494
494,492,225,494,494
494,492,303,494,494
494,491,438,494,494
493,492,574,494,494
494,493,694,495,494
494,493,779,495,494
493,493,780,494,493
495,492,716,495,493
495,493,576,495,493
497,493,430,494,493
496,493,292,495,493
495,493,197,493,493
494,493,205,493,493
495,493,247,493,494
493,491,357,494,494
494,492,498,494,494
495,492,628,494,494
493,492,733,494,494
494,491,791,495,494
494,491,764,495,493
495,493,660,495,493
495,493,510,496,493
495,494,370,495,493
496,493,245,494,494
496,493,194,493,493
495,493,221,494,494
495,492,286,494,494
494,491,420,494,494
494,491,555,494,494
495,491,679,495,494
493,491,766,495,494
494,491,783,495,494
494,493,729,494,493
494,493,596,495,493
494,493,448,495,493
495,495,311,494,493
495,493,208,495,493
496,493,201,494,493
494,493,237,493,494
495,492,342,493,494
493,492,480,494,494
494,491,611,494,494
495,493,722,494,494
494,492,790,495,494
495,492,771,494,494
494,493,679,495,493
495,493,530,495,494
495,493,387,494,493
495,493,260,494,493
494,493,192,493,493
493,491,215,493,494
495,493,274,494,494
493,492,401,494,494
494,492,537,494,494
494,492,664,493,494
493,491,759,494,494
494,493,786,495,493
494,492,745,494,493
494,493,616,495,493
495,494,469,495,493
496,493,329,494,493
496,493,218,495,493
494,493,199,493,493
495,494,231,494,494
494,493,323,494,494
494,491,461,493,494
493,492,591,494,494
493,493,708,494,494
493,493,788,494,494
494,493,775,495,494
495,493,697,495,493
496,493,551,495,493
495,493,407,495,493
496,494,273,494,493
494,493,196,493,493
495,493,211,494,494
494,493,260,494,494
495,492,381,494,494
494,492,520,494,494
494,492,647,494,494
495,492,745,495,494
494,492,789,495,494
495,493,759,495,493
495,492,637,495,493
495,493,488,495,493
495,493,345,494,493
494,494,229,494,494
495,493,197,494,494
494,491,225,493,494
494,491,306,493,494
494,492,443,494,494
494,491,577,494,494
494,491,695,494,494
494,492,784,495,494
494,492,778,493,494
494,493,714,495,494
495,493,572,495,493
496,494,426,495,493
495,494,286,495,493
494,493,198,493,494
495,493,203,494,494
495,492,254,494,494
494,493,336,493,494
494,492,439,495,494
494,492,586,493,494
494,492,750,494,494
495,492,810,494,494
495,490,779,495,494
495,492,649,495,493
496,494,464,495,494
495,494,308,494,493
494,493,245,494,493
496,493,218,493,494
495,491,242,493,494
493,492,298,494,494
495,493,396,493,494
494,492,499,494,494
494,491,676,493,494
494,492,801,494,494
494,492,806,496,494
493,493,748,495,493
495,493,578,495,493
495,494,388,495,493
496,493,283,494,493
495,493,231,494,493
495,493,230,493,494
494,492,256,493,494
494,492,340,495,494
494,492,471,493,494
494,492,608,494,494
493,493,736,495,494
494,493,811,494,494
493,492,800,495,494
497,493,686,495,494
496,493,513,495,493
496,492,373,494,494
495,494,249,494,493
494,492,209,494,494
495,493,231,494,494
495,492,280,492,494
496,492,382,494,494
494,492,522,494,494
494,491,656,495,494
495,491,781,494,494
495,492,803,494,494
494,491,753,495,493
495,493,597,495,493
496,493,434,494,493
495,494,302,495,493
495,493,228,493,493
495,493,219,493,494
495,492,249,494,494
494,492,331,494,494
494,491,460,494,494
495,491,588,494,494
494,492,708,494,494
494,492,804,495,494
495,492,788,495,494
495,492,704,495,493
495,493,558,494,493
497,494,414,494,493
495,493,279,495,493
494,493,200,494,494
494,492,217,493,494
494,492,266,493,494
494,492,388,494,494
494,493,527,493,494
494,492,656,494,494
495,491,752,494,494
495,491,791,495,494
494,492,757,495,493
495,493,627,495,494
496,493,471,495,493
495,493,324,495,493
496,493,217,494,493
494,493,204,493,494
494,492,233,494,494
494,493,302,494,494
495,493,423,494,494
493,492,553,494,494
494,492,688,494,494
494,491,798,495,494
494,493,792,495,494
494,492,715,495,493
495,494,541,495,493
494,493,386,494,493
494,493,262,494,493
495,493,218,494,493
495,492,226,493,494
494,493,265,494,494
494,493,352,493,494
494,492,473,494,494
493,492,604,494,494
495,491,755,494,494
495,492,811,496,494
493,492,780,495,494
495,492,648,495,494
496,493,475,494,493
495,492,336,494,494
494,494,242,493,494
495,493,216,494,494
495,493,242,495,494
493,493,300,494,494
494,492,416,494,494
495,493,544,494,494
494,492,672,493,494
494,491,793,494,494
494,493,799,495,493
494,492,736,496,493
495,494,580,495,493
496,493,428,495,493
495,494,288,495,493
495,493,218,493,493
495,493,220,494,494
494,493,254,493,494
495,492,345,493,494
495,492,474,494,494
494,492,603,494,494
494,492,732,494,494
494,492,806,496,494
495,492,781,495,494
495,493,669,496,494
495,493,506,495,493
496,494,360,494,493
496,494,240,493,494
495,493,211,494,493
495,494,234,493,494
495,492,284,494,494
495,492,390,493,494
494,492,518,494,494
494,492,650,494,494
493,492,784,494,494
495,492,802,495,494
495,492,749,496,494
495,494,592,495,493
495,494,428,495,494
495,494,291,494,493
495,492,231,493,494
495,493,224,493,493
495,493,253,493,494
495,492,329,492,494
494,493,444,494,494
494,492,575,494,494
494,492,721,494,494
494,492,812,494,494
494,492,791,494,494
494,493,695,494,493
496,494,521,495,493
496,493,374,494,493
496,495,255,494,494
495,492,220,494,493
494,494,233,493,494
494,492,281,495,494
494,492,379,494,494
495,492,508,494,494
494,492,636,493,494
494,491,778,495,494
495,493,810,495,494
495,494,772,496,494
496,493,622,495,493
497,492,461,495,493
496,493,319,495,493
495,494,233,495,494
495,493,217,493,493
494,493,247,493,494
495,493,315,494,494
495,493,434,494,494
494,491,564,494,494
495,491,702,493,494
494,492,806,495,494
495,492,795,496,494
494,492,715,496,493
496,493,545,495,493
496,494,393,494,494
495,493,260,494,493
496,493,221,493,494
495,493,229,493,494
495,492,271,493,494
494,493,358,493,494
494,493,483,495,494
494,491,614,493,494
493,491,761,495,494
493,492,813,494,494
496,492,781,494,493
496,493,644,495,494
495,493,468,494,493
496,493,324,495,493
495,492,240,494,493
495,493,219,494,494
494,494,244,493,494
495,493,304,494,494
495,491,410,493,494
494,492,541,494,494
494,492,682,493,494
495,492,802,494,494
494,493,803,495,494
495,494,736,495,493
495,495,564,495,494
495,493,408,495,494
496,494,274,494,493
495,493,224,493,493
495,491,226,494,494
495,492,262,494,494
495,492,347,494,494
495,492,472,494,494
494,492,602,493,494
493,492,747,494,494
494,492,814,494,494
495,491,786,495,493
495,494,667,495,493
495,493,496,495,494
495,493,351,494,494
495,494,244,494,493
495,493,214,494,494
496,492,238,494,494
494,492,291,494,494
495,492,396,493,494
494,492,525,494,494
493,492,659,493,494
494,491,790,494,494
495,492,807,495,494
495,492,747,495,494
496,492,589,495,493
496,494,425,495,493
494,492,287,496,493
496,493,227,494,494
495,492,222,493,494
495,492,254,494,494
496,492,331,493,494
494,493,448,493,494
493,491,580,493,494
496,491,730,494,494
495,492,815,495,494
494,492,794,495,494
494,492,690,494,493
496,495,511,495,493
496,494,363,494,493
495,494,251,494,493
495,493,216,494,494
494,492,235,494,494
495,493,282,494,494
494,492,380,493,494
494,492,507,494,494
493,492,640,495,494
493,491,783,494,494
495,491,813,495,494
494,492,770,495,494
495,494,614,495,493
496,493,447,494,493
495,493,307,494,493
495,493,231,493,494
495,493,219,494,494
495,493,248,494,494
494,492,319,493,494
493,492,434,494,494
494,492,563,493,494
493,492,709,493,494
494,490,812,494,494
495,492,799,495,493
495,492,713,495,493
496,493,535,495,493
496,493,384,494,493
496,493,259,494,493
495,493,218,494,494
496,492,230,493,493
494,492,271,494,494
494,492,362,493,494
495,492,489,494,494
494,491,621,493,494
495,492,770,495,494
494,491,815,496,494
495,492,782,495,493
495,493,641,496,493
497,494,466,495,493
495,493,323,495,493
495,492,236,494,493
494,492,218,493,493
496,492,244,494,494
495,492,306,494,494
494,492,416,495,494
493,491,549,494,494
493,489,693,495,494
494,492,809,494,494
494,492,806,495,493
494,494,734,495,493
497,493,561,495,493
496,493,403,494,493
496,493,268,494,493
495,493,221,494,494
495,493,226,494,493
495,492,263,493,494
495,493,349,493,494
494,493,475,494,494
494,491,607,494,494
494,491,755,494,494
495,492,819,494,494
495,492,791,495,493
495,493,665,496,493
496,493,486,495,493
496,493,344,496,493
496,494,244,494,493
495,493,215,493,493
494,493,240,493,494
495,492,296,494,494
494,491,400,493,494
494,491,529,494,494
493,491,665,493,494
493,491,798,493,494
495,493,811,495,493
496,492,751,495,493
495,494,586,494,493
496,493,421,494,493
496,493,283,494,493
495,494,226,494,493
494,492,222,494,494
496,493,256,494,494
495,492,336,493,494
494,492,456,493,494
494,493,590,493,494
493,491,739,493,494
495,491,821,494,494
495,492,799,496,493
495,492,691,496,494
497,493,511,495,493
496,493,360,494,493
495,493,249,495,493
495,493,215,493,493
495,492,235,493,494
495,492,284,494,494
495,491,384,493,494
495,492,513,493,494
494,491,648,492,494
494,492,792,495,494
494,491,816,494,493
494,492,770,494,493
495,494,610,495,493
496,493,441,495,493
496,493,298,495,493
495,494,229,494,493
495,494,219,493,494
495,492,249,494,494
494,492,321,494,494
495,491,438,493,494
495,492,569,494,494
494,491,719,494,494
494,492,817,496,494
495,492,803,495,494
495,492,713,495,493
495,494,530,494,493
496,494,378,494,493
497,495,256,494,493
495,493,216,494,493
494,492,228,493,493
495,493,271,493,494
494,492,366,493,494
494,492,495,493,494
494,492,628,495,494
494,492,778,494,494
495,491,820,494,494
495,492,783,494,493
496,492,637,495,493
496,493,461,494,493
495,493,319,494,493
496,493,233,494,494
495,493,213,493,493
495,493,241,493,494
493,492,307,493,494
494,491,418,495,494
493,492,553,494,494
494,492,698,493,494
493,492,814,494,494
494,492,808,494,494
496,493,733,495,493
495,493,557,495,493
495,493,398,494,493
496,492,262,494,493
495,493,216,493,493
496,492,223,493,493
494,493,261,493,494
494,492,349,493,494
495,492,479,493,494
494,491,611,493,494
494,490,761,494,494
494,491,821,495,494
494,491,791,494,493
496,493,661,494,493
495,493,482,495,493
496,493,336,494,493
496,493,236,494,493
495,493,211,494,493
495,492,235,494,494
495,492,292,493,494
494,492,403,493,494
494,491,534,493,494
493,489,675,492,494
495,492,801,494,494
496,491,813,495,494
493,493,749,495,493
495,493,578,495,493
496,494,416,494,493
496,494,283,494,493
495,493,217,492,493
495,493,217,493,493
496,493,251,493,494
494,492,358,492,494
494,493,499,493,494
494,492,630,492,494
493,492,741,493,494
494,491,809,495,494
495,492,786,495,494
495,493,688,494,493
495,493,534,494,493
496,494,384,494,493
496,494,255,494,493
495,494,185,493,493
495,494,210,493,494
494,492,272,493,494
493,492,405,493,494
494,492,544,493,494
494,491,677,494,494
494,492,772,493,494
494,491,799,494,494
494,492,752,495,493
496,492,619,494,493
496,492,464,493,493
495,494,320,494,493
495,493,208,493,493
495,492,189,492,494
495,493,224,493,494
494,492,322,493,494
495,492,465,493,494
494,491,601,493,494
494,491,721,494,494
494,491,800,495,494
495,492,786,494,494
495,492,703,495,493
496,492,550,493,493
495,493,402,494,493
495,493,264,494,493
496,493,183,494,493
496,493,203,494,494
493,492,255,493,494
495,492,383,493,494
494,491,527,494,494
493,492,659,494,494
494,493,758,494,494
495,493,802,496,494
495,492,766,495,493
495,493,639,494,493
496,494,483,495,493
495,493,336,495,493
495,493,219,494,494
495,492,185,493,493
494,493,217,494,493
494,492,304,493,494
494,492,448,493,494
494,492,587,493,494
494,491,710,494,494
495,491,795,495,494
494,492,792,494,493
495,493,721,494,493
496,492,572,495,493
495,493,420,495,493
496,493,279,494,493
496,493,183,493,493
496,493,195,493,493
494,492,241,493,494
494,492,362,494,494
494,492,508,493,494
494,491,642,494,494
493,492,750,494,494
494,491,806,494,494
494,492,775,494,493
495,493,660,494,493
496,493,503,494,493
495,494,357,495,493
495,493,229,493,493
495,492,177,494,494
495,491,210,493,494
495,493,284,493,494
493,491,426,493,494
495,492,566,494,494
494,492,694,493,494
495,491,787,494,494
494,492,796,495,494
494,492,738,495,493
496,492,593,495,493
496,493,437,494,493
495,492,293,494,494
496,493,188,494,493
494,492,190,494,493
495,492,228,493,494
495,493,341,494,494
494,491,489,493,494
494,492,626,493,494
496,493,739,494,494
495,492,807,494,493
495,491,782,495,494
495,493,680,495,493
496,492,523,495,493
496,493,371,494,493
495,494,240,494,493
495,492,175,494,493
495,491,201,494,494
494,492,266,493,494
494,492,404,493,494
495,491,546,494,494
494,491,680,495,494
493,492,777,494,494
493,491,800,494,494
494,492,751,494,493
495,492,614,495,493
495,493,456,495,493
496,493,310,495,493
494,493,196,494,493
495,492,180,493,494
494,493,217,493,493
494,492,319,493,494
494,491,468,494,494
493,491,604,494,494
494,493,726,494,494
494,491,805,494,494
495,492,788,494,494
495,492,699,495,493
495,493,543,494,493
496,495,392,495,493
496,493,252,494,493
495,492,171,492,493
494,493,193,494,494
