Sensor0,Sensor1,Sensor2,Sensor3,Sensor4

492,394,494,493,494
493,259,495,494,496
492,209,496,493,493
492,207,496,494,495
494,242,494,494,496
493,331,494,494,496
491,449,494,494,494
490,594,491,494,492
493,771,496,494,496
494,845,494,494,493
494,815,494,494,493
495,694,495,493,498
492,488,496,493,494
495,331,496,493,494
492,235,492,493,494
496,200,496,494,492
495,225,496,494,493
492,277,492,494,493
494,380,496,494,495
490,509,493,494,492
489,674,495,494,493
493,819,496,494,494
494,834,496,494,495
492,780,496,493,494
492,609,496,494,495
493,415,499,493,496
495,274,494,493,494
493,213,491,494,493
494,207,493,494,494
492,238,493,494,493
494,319,492,494,493
491,436,495,494,495
491,577,495,494,495
490,746,495,494,496
490,840,494,494,497
491,823,493,494,494
491,716,496,494,497
491,520,494,493,497
492,357,495,494,494
494,245,493,493,497
495,204,494,494,496
490,216,492,493,496
493,262,495,494,494
491,366,494,494,493
491,494,494,494,493
493,644,495,494,494
492,804,494,494,495
492,840,495,494,494
491,797,494,493,494
493,636,495,493,496
494,445,496,493,496
494,297,495,493,495
493,219,494,493,495
493,202,494,493,495
492,232,493,494,495
493,305,494,494,495
492,423,493,494,494
492,565,495,494,492
492,722,493,494,493
492,834,494,494,494
493,822,495,494,496
492,741,494,494,495
494,554,495,493,496
493,391,495,493,496
495,246,494,494,494
493,200,493,493,494
493,209,494,493,495
492,251,494,494,495
492,349,495,494,495
493,491,494,494,494
492,629,494,494,493
491,778,494,494,494
491,835,495,494,494
492,804,495,493,495
493,660,495,493,495
494,471,495,494,495
494,319,493,493,495
494,220,497,493,493
491,196,493,494,492
493,226,493,494,496
493,289,494,493,493
492,398,493,494,493
491,535,495,494,494
491,697,494,494,494
492,825,494,494,494
493,827,493,494,494
492,760,495,493,496
493,573,495,493,496
494,394,495,494,495
493,260,494,493,494
492,207,494,493,495
493,208,494,494,495
493,244,494,494,493
493,334,493,494,495
493,455,494,494,495
492,598,494,494,493
491,767,494,494,495
492,843,496,494,495
491,813,494,494,495
492,690,496,493,495
494,497,495,493,495
494,340,494,493,495
494,230,494,493,494
492,198,494,493,497
494,221,493,493,495
494,275,495,494,494
493,390,495,494,494
492,528,494,494,493
492,667,495,494,494
491,811,495,494,494
492,830,496,494,494
493,772,495,494,495
494,607,495,494,495
493,435,495,493,495
494,284,496,493,495
493,206,494,493,495
492,200,494,494,494
492,231,494,494,494
492,316,494,494,494
492,448,494,494,493
492,587,494,494,493
491,739,494,494,494
492,833,494,494,493
492,814,495,494,494
494,709,495,494,496
493,518,496,493,494
493,358,495,493,496
495,235,493,493,495
493,198,493,494,495
493,213,494,494,494
492,263,494,494,494
492,364,493,494,494
492,499,494,494,494
492,642,494,494,494
493,799,494,494,493
493,835,495,494,495
492,795,496,493,495
492,632,496,493,495
495,443,495,493,496
494,293,496,494,494
493,218,493,493,494
493,202,494,494,494
493,232,493,494,494
493,305,494,494,493
492,423,494,494,494
491,564,494,494,493
492,721,493,494,494
493,836,495,494,494
492,822,495,494,495
493,737,495,493,495
494,552,496,493,495
493,389,494,493,494
495,246,494,493,495
494,200,494,493,494
493,210,495,493,493
492,253,493,494,494
493,351,494,494,494
493,492,495,494,494
492,629,494,494,493
492,780,494,494,494
492,835,495,494,494
491,801,495,494,494
493,659,495,494,495
494,478,495,493,495
494,321,495,493,495
493,217,494,493,495
493,194,494,494,494
492,220,494,494,494
493,288,493,494,493
493,404,492,494,494
492,545,493,494,493
492,695,494,494,494
492,821,496,494,494
492,825,495,494,495
493,756,496,494,495
493,572,496,493,496
494,401,496,493,496
495,255,494,493,495
492,203,494,493,495
492,206,493,493,494
493,242,495,494,493
492,332,495,494,494
492,463,494,494,493
491,604,493,494,493
491,767,493,494,494
493,839,495,494,494
492,812,495,494,496
492,685,495,494,495
494,493,495,493,495
494,339,494,493,495
493,231,494,493,495
493,197,493,494,494
492,221,494,493,494
491,276,493,494,493
492,386,493,494,493
492,523,494,494,493
491,669,494,494,494
492,812,494,494,493
491,832,496,494,494
492,771,495,493,495
493,603,495,493,495
493,428,494,493,495
494,279,496,493,495
493,209,495,493,496
494,201,494,493,494
493,235,494,493,495
492,318,494,494,494
492,447,494,494,494
492,586,494,494,494
491,743,495,494,494
493,836,496,494,494
492,815,495,494,495
494,710,496,494,495
494,520,495,493,495
493,360,494,493,496
494,233,494,493,494
492,197,495,493,494
495,215,493,493,495
492,264,493,494,495
493,366,493,494,494
492,503,493,494,494
492,646,493,494,493
492,802,495,494,493
492,834,496,494,494
494,793,496,494,495
493,630,496,493,496
493,446,495,493,495
494,297,496,493,495
493,216,494,493,495
493,201,494,494,494
493,231,494,493,494
493,304,494,494,493
493,427,493,494,494
491,566,494,494,495
491,720,495,494,493
491,833,494,494,495
492,821,494,494,494
492,734,496,494,496
495,545,496,493,495
494,383,496,493,496
493,244,495,494,495
493,200,494,493,495
492,211,494,494,495
492,255,494,494,494
492,350,493,494,494
492,488,494,494,493
492,627,493,494,494
492,783,494,494,494
491,837,495,494,495
492,803,494,494,494
494,655,495,493,495
494,472,496,493,495
494,318,495,493,497
493,219,495,493,494
492,197,493,493,494
493,224,494,493,495
493,289,494,494,494
493,406,494,494,494
491,545,494,494,494
492,698,494,494,494
493,825,495,494,495
492,825,495,493,494
492,756,495,494,495
494,573,496,494,496
494,403,495,493,496
494,258,495,493,495
494,203,494,493,494
494,205,494,494,494
492,243,494,494,494
493,334,494,494,495
492,467,493,494,494
492,608,493,494,494
492,767,494,494,494
492,839,494,494,494
493,810,494,494,495
493,684,495,494,496
493,493,496,494,495
494,339,495,493,495
494,228,494,493,495
494,197,495,494,494
493,222,495,494,495
493,277,495,494,495
492,389,494,494,493
492,527,494,494,494
491,672,494,494,493
492,812,495,494,494
493,831,494,494,495
492,771,494,494,495
493,600,496,494,495
493,424,494,494,496
494,277,494,494,495
493,210,494,493,494
492,203,494,493,495
495,237,493,494,494
493,320,494,494,494
492,448,494,494,493
493,586,494,494,493
491,745,495,494,495
492,837,495,494,494
492,816,494,494,494
492,708,495,494,495
494,518,495,494,495
494,359,495,494,495
492,236,495,493,494
493,196,493,494,494
492,215,494,494,494
492,265,493,493,494
492,370,493,494,493
492,506,494,494,493
492,647,494,494,493
492,805,494,494,494
493,834,495,494,495
493,792,494,494,496
493,630,495,494,496
494,448,495,494,497
495,297,495,493,495
493,215,495,493,494
492,200,494,494,494
493,230,494,494,494
492,304,494,494,494
492,430,493,494,494
493,568,495,494,493
491,724,495,494,493
492,832,498,494,494
492,819,498,494,495
493,733,497,494,495
493,545,495,494,495
494,380,495,494,496
494,245,493,494,495
493,201,493,494,495
492,210,492,494,494
493,254,494,494,494
492,351,494,494,494
492,488,493,494,493
492,629,494,494,493
492,784,494,494,493
492,836,495,494,494
493,803,494,493,494
494,655,495,494,496
494,468,495,494,496
494,317,494,494,495
494,220,494,493,495
493,198,494,494,495
493,224,493,494,495
492,291,494,494,494
492,408,493,494,494
492,548,494,494,494
492,699,494,494,494
492,827,494,494,494
492,826,494,494,495
492,754,495,494,496
494,571,495,494,495
494,403,494,494,496
495,257,494,494,496
494,203,493,494,495
493,206,494,494,494
493,242,494,494,494
493,335,494,494,494
492,467,494,494,494
493,607,493,494,495
491,767,493,494,494
492,840,494,494,494
492,809,495,494,495
493,683,495,494,496
494,493,496,494,496
495,338,495,494,495
493,226,494,493,495
493,195,494,494,494
492,219,494,494,494
492,277,493,494,494
492,388,493,494,494
491,528,494,494,493
492,672,494,494,494
492,812,494,494,494
493,830,494,494,495
492,770,494,494,495
494,599,495,494,496
494,421,495,494,495
495,271,495,493,495
493,209,495,493,495
493,204,494,494,494
493,238,494,494,494
493,320,494,494,494
492,448,493,494,494
493,588,495,494,494
492,747,494,494,494
491,836,493,494,494
493,816,494,494,495
493,707,496,494,496
493,515,495,494,495
493,359,495,493,494
493,235,494,493,495
492,196,494,493,494
494,215,494,493,494
492,266,494,494,495
493,371,494,494,494
491,510,494,494,494
492,649,494,494,494
491,803,495,494,494
492,833,495,494,495
493,790,495,494,495
493,627,495,494,496
494,448,495,493,495
494,298,495,493,495
493,213,494,493,494
493,200,494,494,494
493,230,494,494,494
492,305,493,494,493
492,430,493,494,494
492,569,493,494,495
492,724,494,494,494
492,834,494,494,495
493,820,494,494,495
493,732,495,494,496
493,544,495,494,495
493,380,496,493,495
495,243,493,494,494
493,201,493,494,495
493,210,494,494,494
493,257,492,494,494
492,352,494,494,494
493,488,494,494,494
492,630,494,494,493
492,788,494,494,494
492,837,495,494,495
493,801,496,494,495
494,654,496,494,495
494,468,496,494,496
495,316,495,493,494
493,219,494,493,495
493,198,494,494,495
494,226,494,494,494
493,292,494,494,493
492,411,495,494,493
493,550,493,494,493
493,701,493,494,493
491,826,494,494,494
493,825,494,494,493
493,752,495,494,496
494,569,495,494,495
494,402,495,493,495
494,258,494,494,495
493,203,494,493,495
493,206,493,494,494
493,244,493,494,494
492,335,493,494,494
491,470,494,494,493
493,610,494,494,494
492,767,494,494,493
492,839,494,494,494
492,809,494,494,496
495,680,496,494,496
493,492,495,493,495
494,337,495,494,496
493,226,494,493,496
493,196,495,494,494
492,220,493,494,495
494,277,493,494,494
493,389,493,494,494
492,527,493,494,494
492,674,493,494,493
492,813,495,494,494
493,829,495,494,495
493,768,494,494,495
494,597,494,494,496
493,422,494,493,495
494,274,493,493,495
493,208,494,494,495
493,202,494,493,492
493,236,493,494,494
493,321,493,494,495
492,451,493,494,493
493,591,493,494,493
493,748,494,494,495
492,836,494,494,493
492,816,494,494,494
493,706,496,494,495
493,512,495,493,495
494,353,495,493,496
494,235,494,493,496
494,197,493,494,494
492,216,493,494,495
493,266,494,494,494
494,368,494,494,495
493,507,494,494,493
492,651,494,494,494
492,804,494,494,494
492,834,494,494,494
493,791,494,494,496
493,625,495,494,496
493,441,495,494,496
495,293,495,494,495
493,216,494,493,495
493,201,493,494,494
494,232,494,494,494
493,306,494,494,494
491,433,493,494,494
492,572,493,494,493
491,725,494,494,494
493,834,494,494,494
491,821,494,494,495
493,731,495,493,496
494,545,495,493,497
494,383,494,493,495
494,241,494,493,495
494,199,494,494,496
492,210,493,494,496
493,256,493,494,494
493,355,493,494,495
493,492,493,494,494
493,631,494,494,494
492,787,495,494,494
493,836,496,494,494
493,801,495,493,495
493,651,495,494,497
493,468,494,493,496
494,315,495,494,496
494,218,493,494,495
494,197,494,493,495
492,225,493,493,495
493,292,493,494,494
493,409,493,494,494
493,550,494,494,495
492,701,494,494,494
492,828,494,494,495
492,824,494,494,494
493,752,494,494,496
493,564,495,493,495
494,397,495,494,496
493,252,494,493,495
493,203,495,493,495
493,207,494,493,495
493,244,493,494,493
493,362,494,494,494
493,512,494,494,494
491,650,494,494,493
492,763,494,494,495
491,823,495,494,495
493,798,494,493,495
493,685,495,494,496
494,522,495,494,495
493,371,494,493,496
494,235,495,493,494
493,173,494,493,494
493,201,494,493,494
492,271,494,494,494
492,416,493,494,495
492,560,493,494,494
492,695,494,494,494
493,788,495,494,495
493,808,494,494,494
493,753,494,493,496
493,609,495,494,495
494,450,495,494,495
493,303,493,494,496
494,189,494,494,495
493,179,492,494,495
493,215,493,494,495
492,326,494,494,494
492,477,494,494,495
492,617,494,494,494
492,740,495,494,495
492,813,494,494,495
492,795,494,494,495
493,699,495,494,495
494,541,496,494,496
494,384,495,494,495
495,246,494,493,495
493,168,494,493,495
493,193,493,494,495
493,252,494,494,494
493,390,494,494,494
492,538,493,494,494
492,677,495,494,494
493,777,494,494,495
492,810,494,494,494
493,770,495,493,495
493,633,495,494,496
493,471,495,493,496
493,320,495,493,496
494,200,494,493,496
492,175,495,493,495
493,210,494,494,494
493,306,495,494,494
492,456,494,494,493
492,599,495,494,494
493,725,494,494,495
493,808,495,494,494
493,798,495,494,495
493,719,495,494,495
494,561,495,493,496
493,407,494,493,496
493,263,493,493,496
493,173,494,493,494
492,189,493,494,494
492,242,493,494,495
493,368,493,494,495
492,520,493,494,494
492,656,495,494,494
493,761,493,494,494
492,813,494,494,495
492,781,494,494,496
493,654,495,493,495
493,493,496,494,495
494,343,496,493,496
495,215,494,493,497
493,173,494,493,494
492,204,494,493,495
493,286,494,494,494
492,436,494,494,494
492,578,495,494,494
492,709,494,494,494
493,802,493,494,495
492,802,494,494,495
493,736,495,493,496
493,584,495,494,495
493,427,495,493,496
493,280,495,493,496
493,176,494,494,495
492,183,493,494,494
492,225,493,494,494
492,347,493,494,494
492,500,493,494,494
490,639,493,494,494
492,753,494,494,494
492,814,494,494,495
492,787,494,494,496
494,677,495,494,496
494,515,494,494,495
494,363,495,494,496
494,229,494,493,495
493,169,494,494,495
492,198,493,493,494
492,268,494,494,494
492,414,494,494,494
493,559,494,494,493
493,694,494,494,494
492,787,494,494,495
494,807,494,494,494
492,750,494,494,495
493,607,494,494,495
494,447,495,493,496
494,297,495,493,495
493,188,494,493,496
493,179,494,494,494
492,217,493,494,495
492,328,494,494,495
492,479,494,494,493
492,620,494,494,494
492,739,494,494,495
493,813,495,494,495
492,795,494,494,495
492,697,495,494,496
493,537,494,493,495
493,384,495,494,496
494,245,494,493,495
492,167,493,493,494
493,193,493,494,494
492,254,493,494,494
491,391,493,494,494
491,540,493,494,494
491,676,494,494,494
492,778,495,494,495
492,810,495,494,494
492,769,494,493,495
494,632,495,493,495
494,471,494,493,496
494,320,495,493,495
493,199,494,493,496
494,175,493,493,495
492,210,493,494,494
493,306,493,494,494
492,457,493,494,494
492,598,493,494,494
492,726,495,494,494
492,807,494,494,496
493,798,494,494,495
493,718,494,493,495
493,560,495,493,496
494,405,494,493,496
493,261,495,493,495
493,171,495,493,494
494,189,493,493,494
492,243,493,494,493
493,370,492,494,495
492,521,493,494,494
492,660,494,494,494
492,763,495,494,494
493,813,495,494,494
493,780,494,493,496
493,653,495,493,495
493,491,495,493,496
494,340,494,493,496
493,212,494,493,495
493,172,493,493,495
493,204,493,494,494
492,287,493,494,493
493,437,494,494,494
492,581,494,494,494
492,710,494,494,494
493,803,495,494,494
493,803,495,494,495
493,735,495,493,495
494,582,495,493,495
493,425,494,493,496
494,279,495,493,495
494,175,493,493,495
494,185,493,494,493
493,226,492,494,494
492,349,494,494,494
492,500,494,494,494
492,638,494,494,495
492,752,497,494,494
493,816,496,494,494
492,788,495,493,495
493,676,496,494,496
494,513,496,494,495
494,361,493,494,496
494,226,494,493,494
494,170,494,493,494
493,199,494,494,494
492,270,493,494,494
492,414,494,494,494
491,558,494,494,494
492,693,494,494,493
491,790,494,494,495
492,806,494,494,496
492,750,494,493,495
492,606,495,493,497
493,445,495,493,495
494,296,495,493,496
494,185,494,494,495
492,180,495,494,494
493,218,493,494,494
493,329,493,494,493
492,480,494,494,495
493,620,494,494,494
492,741,494,494,495
492,812,494,494,494
492,794,494,494,494
493,697,495,493,496
494,535,495,493,496
494,381,495,493,494
494,241,495,493,496
494,171,493,493,494
492,194,493,493,494
493,256,494,493,494
493,392,493,494,494
492,541,493,494,494
491,676,494,494,494
492,778,493,494,494
493,810,495,494,495
493,768,494,493,495
493,630,495,494,495
494,467,495,493,495
493,318,494,493,496
494,197,495,493,495
494,178,493,493,494
493,211,493,493,495
492,309,494,494,494
493,459,493,494,494
493,599,494,494,494
491,726,494,494,494
492,812,494,494,494
492,797,495,493,494
493,717,495,494,495
494,559,495,493,496
494,404,495,494,497
493,259,494,493,495
494,172,495,493,495
494,189,493,493,494
493,243,494,494,494
492,371,494,494,495
492,521,492,494,494
493,658,493,494,493
493,764,493,494,495
492,813,494,494,495
492,780,494,494,495
492,653,497,493,496
494,489,496,493,496
494,338,495,494,496
493,209,493,493,496
493,173,494,493,496
494,205,493,494,495
493,288,493,494,494
492,437,494,494,494
492,582,493,494,494
491,711,495,494,494
491,803,495,494,495
493,802,495,493,494
492,734,495,494,495
494,582,495,493,496
494,423,495,493,495
495,277,495,493,495
493,174,493,493,494
492,185,493,493,493
492,228,495,494,495
493,349,493,494,494
493,502,494,494,494
492,640,494,494,493
492,752,495,494,494
492,815,495,494,495
492,787,494,494,495
493,674,496,493,496
493,511,495,493,494
493,360,494,493,495
494,224,494,493,495
493,172,494,493,494
495,200,494,493,494
492,272,494,494,494
492,418,493,494,493
492,561,494,494,494
492,695,494,494,494
491,790,494,494,494
494,804,494,494,495
493,750,495,493,494
493,605,495,493,496
494,445,495,493,496
494,296,494,493,496
493,182,493,493,495
493,177,493,493,495
492,215,495,494,495
492,328,495,494,494
492,479,494,494,493
491,618,494,494,494
492,738,494,494,492
493,816,496,494,494
491,794,496,494,496
494,695,496,493,496
493,532,496,493,496
494,378,495,493,497
493,238,495,493,496
494,171,495,493,496
492,195,495,494,494
493,255,493,493,494
493,393,493,494,495
493,541,494,494,494
491,678,494,494,494
492,782,496,494,495
494,811,495,494,495
492,769,496,494,494
493,630,496,494,496
495,466,494,494,496
494,314,496,493,495
494,196,495,493,494
491,176,495,494,495
492,213,495,494,493
493,308,495,494,493
492,461,493,494,493
491,599,494,494,494
493,723,496,494,495
490,812,495,494,495
492,801,496,494,495
494,718,496,493,495
494,558,495,493,494
494,402,494,493,494
494,256,495,493,496
493,176,495,493,494
494,187,494,493,493
491,244,496,494,496
493,342,493,494,494
492,453,494,494,495
493,621,494,494,493
493,785,496,494,492
490,837,496,494,497
493,780,496,494,494
493,643,496,494,498
496,440,494,493,496
493,286,494,493,495
493,222,493,493,494
491,201,492,494,493
491,227,492,493,493
494,294,491,494,493
493,405,492,494,493
493,519,494,494,493
490,714,493,494,491
490,834,494,494,497
493,827,494,494,495
494,749,495,493,496
495,560,495,494,495
495,364,493,493,496
493,257,495,493,495
495,205,492,493,494
492,212,495,493,495
493,252,494,493,493
493,341,493,494,493
491,454,492,494,493
493,607,495,494,493
492,779,495,494,495
492,846,493,493,494
494,821,498,494,494
493,675,494,493,496
493,476,493,493,495
494,334,495,493,498
495,228,493,493,496
495,201,493,494,494
494,223,493,493,494
491,280,493,494,494
493,392,493,494,493
492,531,493,494,493
493,688,495,494,494
493,820,495,494,493
491,833,496,494,495
494,773,495,493,497
493,590,495,493,497
493,417,496,493,495
495,277,495,493,495
494,208,492,494,498
494,204,494,493,496
494,241,492,493,496
495,326,493,493,493
491,451,495,493,493
492,593,495,494,493
490,756,494,494,493
493,841,494,493,495
493,815,493,494,496
491,700,496,493,497
495,520,496,493,497
494,364,496,493,494
493,231,493,493,494
493,196,495,493,494
492,216,495,494,495
491,268,492,494,493
492,386,493,494,495
492,525,493,494,494
493,662,495,494,495
492,802,495,494,493
491,830,496,494,495
494,780,495,493,497
494,613,495,493,496
495,432,494,493,494
493,281,494,493,495
495,212,493,493,493
494,201,494,493,494
494,234,493,493,494
494,311,493,494,493
491,422,494,494,495
493,560,493,494,494
490,738,491,494,493
490,838,493,494,495
492,820,493,494,496
492,724,495,493,497
493,529,494,493,497
493,355,496,493,494
493,246,495,493,496
491,203,494,493,497
495,216,493,493,495
493,264,492,494,496
493,361,492,494,494
491,484,495,493,492
491,634,494,494,491
492,795,493,494,495
491,840,496,494,496
491,800,496,493,494
495,646,493,493,495
494,453,493,493,495
494,303,494,493,497
494,223,495,493,497
494,203,491,494,495
494,232,494,493,495
491,298,493,494,496
492,416,492,494,493
491,558,493,494,492
492,708,495,494,493
490,832,493,494,495
491,825,493,494,494
495,747,494,493,496
492,559,494,493,497
495,388,495,493,494
495,251,496,493,494
495,204,493,493,494
495,209,493,494,495
494,252,494,493,494
493,342,495,493,495
493,465,495,494,492
493,608,492,494,491
491,778,493,494,493
493,839,494,494,495
494,809,494,494,496
492,674,495,493,494
494,470,494,493,497
494,314,495,493,494
495,231,493,493,496
492,199,495,493,493
494,228,492,493,494
492,285,493,494,496
494,392,493,493,495
491,523,493,494,494
490,691,494,494,492
490,821,493,494,493
491,833,495,494,495
491,766,496,493,495
495,587,495,493,494
495,403,495,493,497
492,265,492,493,494
492,211,492,493,494
492,208,494,493,496
492,244,495,493,496
492,328,492,494,495
491,450,491,494,494
491,592,493,494,495
490,760,492,494,495
492,838,493,494,495
494,815,495,494,496
492,699,494,493,497
494,501,494,493,496
492,340,494,493,495
494,237,495,494,494
494,199,493,493,493
492,221,492,493,493
494,275,492,494,496
494,375,494,494,495
493,506,494,494,492
491,661,495,494,494
492,813,492,494,495
493,834,493,494,495
492,787,493,494,497
492,616,497,494,495
494,422,496,494,495
493,277,493,493,494
494,217,495,493,494
491,203,495,493,493
492,234,493,493,493
492,314,494,494,495
492,426,492,494,494
494,566,493,494,493
490,739,494,494,492
491,841,493,494,493
492,820,493,494,494
494,725,496,493,497
495,528,496,493,495
495,361,495,493,497
492,247,494,493,496
491,204,495,493,493
493,214,495,493,494
493,262,494,494,495
494,358,494,493,494
493,487,493,494,493
493,637,492,494,495
493,796,495,494,494
493,835,493,494,496
492,800,496,494,498
491,646,496,493,497
492,448,495,493,494
492,298,495,493,496
492,223,495,493,495
495,202,492,493,493
491,230,495,493,493
491,299,492,493,495
494,410,492,494,492
493,553,494,494,494
491,717,494,494,493
492,835,494,494,494
492,827,494,493,494
492,746,495,493,496
494,555,494,493,496
493,386,494,493,495
494,254,494,493,496
492,206,494,493,494
493,212,494,493,494
492,252,494,494,494
492,345,494,494,495
492,480,493,494,495
492,621,493,494,495
491,776,494,494,494
492,839,496,494,495
493,807,495,493,495
494,670,495,493,495
493,491,494,493,495
493,339,494,493,495
494,222,493,493,495
494,196,493,493,495
494,221,495,493,494
492,284,494,494,493
492,406,494,493,494
492,543,494,494,494
492,682,494,494,495
491,816,494,494,495
492,824,495,494,495
492,761,494,493,495
494,585,495,493,495
494,412,495,493,496
493,264,495,493,495
493,204,494,493,494
492,203,494,493,494
493,239,493,494,494
493,326,494,494,494
492,453,495,493,494
492,595,494,494,494
490,759,494,494,494
491,837,495,494,494
493,812,495,493,495
493,696,496,493,496
494,500,495,493,496
494,341,494,493,494
493,232,494,493,494
492,197,494,493,496
493,217,493,493,494
492,273,494,494,495
493,375,493,494,494
493,514,494,494,494
492,662,494,494,493
492,810,495,494,494
492,833,495,493,495
492,782,495,493,494
493,612,495,494,495
493,434,494,493,495
495,287,494,493,495
494,211,494,493,495
492,202,493,493,494
493,233,494,493,494
494,313,493,494,494
492,445,493,493,494
492,581,495,494,494
492,732,495,494,494
492,833,495,494,494
492,817,495,494,496
493,719,495,493,496
493,535,495,493,495
494,373,495,493,497
494,238,493,493,495
493,198,494,493,494
493,211,494,493,494
493,259,493,494,494
492,362,493,494,493
491,498,494,494,494
491,638,493,494,494
492,794,494,494,495
493,834,496,494,494
493,796,495,493,495
493,640,496,493,496
494,455,494,493,495
494,302,495,493,495
494,216,495,493,494
493,198,494,493,495
492,228,493,493,493
492,297,494,494,494
492,415,493,494,493
492,558,493,494,494
491,713,495,494,493
491,832,495,494,494
492,823,494,494,495
492,743,495,493,496
494,556,495,493,495
493,391,495,493,496
494,249,493,493,496
493,201,494,493,495
493,210,492,493,495
493,250,494,493,494
492,344,494,494,495
492,481,493,494,494
492,621,494,494,493
492,777,494,494,494
492,837,495,493,494
492,807,496,493,494
493,667,496,493,496
494,481,495,493,496
493,329,493,493,495
493,223,493,493,494
493,197,493,494,495
493,223,494,494,494
493,284,494,494,494
492,403,494,494,494
492,540,494,494,494
493,685,494,494,494
492,817,494,494,494
492,827,495,493,494
493,762,496,493,494
493,583,495,493,496
493,411,495,493,496
494,265,495,493,496
493,205,494,493,495
493,206,493,493,494
493,240,494,494,494
492,329,494,494,494
492,458,493,494,495
491,599,493,494,493
492,759,495,494,493
491,838,495,493,494
492,812,494,493,495
493,695,495,493,495
494,503,495,493,496
494,344,494,493,496
493,231,493,493,495
493,198,494,493,495
492,217,494,493,495
493,273,494,494,495
492,380,493,494,494
492,517,493,494,494
492,662,493,494,493
492,810,494,494,494
492,832,494,494,495
491,779,495,493,495
494,611,494,493,495
493,433,494,493,495
493,285,494,493,495
493,210,494,493,495
492,201,493,493,494
493,234,494,494,495
492,314,494,494,494
493,443,493,494,493
492,582,494,494,494
491,737,493,494,494
492,835,495,494,495
493,816,494,493,495
493,720,496,493,495
493,527,496,493,496
493,367,497,493,496
495,236,496,493,495
494,200,493,493,494
493,214,492,493,494
492,260,493,494,495
493,360,494,493,494
491,498,494,494,494
492,637,495,494,494
492,795,494,493,494
493,836,495,494,494
493,796,495,494,496
494,638,495,493,496
493,453,494,493,496
495,304,495,493,495
493,218,495,493,495
493,199,494,493,494
492,229,494,493,494
492,299,493,494,495
492,419,494,494,494
492,560,494,494,494
493,714,494,494,495
492,832,494,494,494
492,823,496,494,495
493,740,495,494,496
493,557,495,494,496
493,392,494,493,497
493,248,495,493,495
492,201,493,493,495
494,208,495,493,494
492,251,494,493,495
493,345,494,494,494
492,483,494,494,493
492,623,495,494,493
492,778,494,494,494
493,837,495,494,494
492,805,495,493,494
492,666,495,493,496
494,480,495,493,496
494,325,494,493,495
493,220,494,493,494
493,196,493,493,493
493,223,494,493,495
492,285,493,494,495
493,401,493,494,494
491,540,494,494,494
493,689,495,494,494
492,820,494,494,496
492,826,494,493,494
492,762,493,493,495
493,580,495,494,495
494,408,495,493,496
494,262,496,493,495
493,205,494,493,495
492,206,494,493,494
492,241,493,493,494
492,330,493,494,494
491,460,494,494,493
492,601,494,494,493
491,759,495,494,494
492,839,495,494,493
493,812,495,493,495
493,691,495,493,496
493,502,495,493,495
494,346,495,493,495
493,231,494,493,495
494,197,494,493,494
492,219,493,493,493
493,273,493,494,495
492,381,493,494,494
492,519,493,494,494
492,661,494,494,494
492,809,494,494,495
492,831,494,494,495
492,778,495,493,494
493,608,495,493,496
493,432,495,493,496
494,283,494,493,495
493,210,494,494,494
494,202,492,493,494
493,234,494,493,494
494,315,494,494,493
491,441,494,494,494
492,580,494,494,494
491,738,494,494,494
492,835,494,494,495
492,816,496,494,495
493,717,495,493,496
493,527,495,493,495
492,367,494,493,494
493,238,494,493,495
492,197,494,493,493
494,213,494,494,494
493,260,494,494,495
492,362,493,494,494
492,502,493,494,493
492,642,494,494,493
491,796,494,494,494
493,834,496,494,495
492,795,495,493,494
493,638,495,493,495
494,455,494,493,496
494,303,494,493,496
494,216,494,493,495
492,200,494,493,494
493,229,494,494,494
492,300,493,494,495
492,423,494,494,494
492,562,495,494,494
493,715,494,494,494
492,830,494,494,495
492,821,494,494,496
492,740,494,494,495
494,553,495,493,495
493,388,495,493,494
494,247,494,493,495
493,201,494,493,495
492,208,492,493,494
492,251,494,494,495
493,346,493,494,494
492,481,493,494,494
492,621,494,494,494
492,779,494,494,494
492,837,494,494,494
492,804,494,494,495
494,663,496,493,495
494,476,495,493,496
494,323,495,493,494
492,223,493,493,494
494,197,494,493,494
492,224,493,494,494
493,287,493,494,494
493,401,493,494,493
492,540,493,494,493
492,691,494,494,493
492,821,495,494,495
492,827,495,494,495
492,760,496,494,495
494,581,496,493,495
494,407,495,494,496
494,262,495,493,495
492,204,493,493,494
492,206,493,494,494
493,242,494,493,493
492,331,493,494,494
492,462,494,494,494
492,605,494,494,493
491,762,494,494,494
492,837,494,494,496
492,812,495,494,494
492,690,496,493,496
494,501,495,494,495
494,344,494,493,496
493,229,494,493,494
493,196,493,493,494
493,218,492,494,494
492,273,494,494,494
493,383,492,494,494
492,522,494,494,493
492,664,494,494,493
493,810,494,494,494
493,832,495,494,493
492,776,495,493,495
493,607,494,494,495
493,429,494,493,496
494,282,495,493,495
493,210,494,493,493
493,202,495,494,494
493,235,494,494,494
492,317,493,494,494
492,442,494,493,494
492,581,494,494,494
492,738,493,494,494
491,837,494,494,494
492,818,494,494,495
493,714,495,493,496
494,527,495,493,495
494,366,495,493,495
493,239,493,493,494
493,199,493,494,495
494,213,495,494,494
493,262,494,494,494
492,365,494,494,493
492,502,494,494,493
492,643,494,494,493
491,800,494,494,494
494,834,495,494,495
493,795,494,493,495
493,636,495,493,496
494,454,495,493,495
495,301,494,493,495
494,215,494,493,495
494,199,495,493,493
493,229,493,493,494
492,301,493,494,494
492,424,493,494,494
493,565,494,494,494
492,717,494,494,493
493,832,494,494,495
492,820,494,494,494
494,740,495,493,494
493,552,495,494,495
494,387,494,493,495
493,246,494,493,495
493,200,493,493,495
493,208,495,493,494
492,253,494,494,494
493,346,493,494,495
493,484,493,494,493
492,623,494,494,493
491,777,495,494,494
492,838,494,494,493
492,804,494,493,495
493,662,495,494,495
494,475,494,493,495
494,323,495,493,495
493,222,494,493,495
493,197,494,493,496
493,223,493,493,494
492,288,493,494,494
492,403,493,494,493
492,541,493,494,494
491,691,494,494,493
491,822,493,494,494
492,825,494,494,494
493,760,494,493,496
493,578,494,493,496
493,406,494,493,496
494,261,494,493,496
493,204,493,493,494
493,205,493,494,495
493,241,492,494,493
492,331,493,494,493
492,461,494,494,494
491,603,493,494,494
491,764,493,494,494
493,838,494,494,494
492,812,494,494,494
493,690,495,493,495
493,496,495,494,496
495,341,495,494,496
494,228,495,493,494
492,196,494,494,494
492,220,494,493,495
491,275,494,494,495
492,382,493,494,494
492,521,494,494,493
492,668,494,494,494
491,811,493,494,494
494,831,494,494,494
492,775,495,493,496
493,604,496,494,495
493,428,494,493,494
494,280,494,493,494
493,210,494,494,496
494,203,493,494,494
493,235,493,494,493
492,316,493,494,493
492,445,493,494,493
492,585,493,494,494
491,742,494,494,493
492,836,494,494,494
492,816,495,494,494
492,713,495,494,496
493,521,495,493,495
494,363,494,493,495
493,237,494,493,495
493,199,494,494,496
493,215,494,493,494
492,262,494,494,494
492,365,493,494,493
492,503,494,494,493
492,643,493,494,494
491,801,494,494,495
492,836,495,494,494
492,794,495,493,495
493,634,495,493,495
494,453,495,493,495
493,302,495,493,494
493,216,493,494,495
493,201,493,493,494
493,230,494,494,494
492,303,493,494,494
492,427,493,494,493
492,565,493,494,493
493,720,493,494,492
491,833,494,494,494
492,821,496,494,494
493,736,495,493,495
493,552,495,493,495
492,387,495,493,494
493,244,495,494,496
492,200,494,493,493
493,210,493,493,494
492,253,493,494,494
492,348,493,494,494
492,484,493,494,493
492,624,493,494,493
492,782,494,494,494
493,837,495,494,495
493,803,495,494,495
494,660,494,493,495
493,469,494,493,495
494,319,495,494,496
493,222,494,493,494
493,198,494,493,493
492,225,493,494,494
493,289,494,494,494
492,404,492,494,494
492,545,494,494,493
491,694,493,494,493
492,823,494,494,494
492,828,494,494,495
493,759,495,493,495
494,576,495,493,495
493,407,494,493,495
494,261,494,493,495
494,203,493,493,494
493,205,495,494,494
492,242,493,494,494
494,333,493,494,494
492,467,494,494,495
492,606,494,494,493
492,762,493,494,494
492,838,495,494,495
493,811,495,493,495
493,686,495,494,495
494,497,495,493,495
493,342,495,493,495
493,228,494,493,496
493,197,494,493,494
492,218,492,494,495
493,275,493,494,494
492,384,493,494,494
492,522,493,494,493
492,667,495,494,493
492,812,495,494,494
492,829,495,494,495
492,772,495,494,494
494,603,496,493,495
495,424,495,494,495
494,278,494,493,495
492,210,494,493,494
494,204,493,494,493
493,236,494,494,494
492,318,493,494,494
492,445,492,494,494
492,585,493,494,493
493,744,493,494,494
491,836,494,494,495
493,815,494,494,495
493,712,495,494,496
493,522,495,494,495
493,360,495,493,496
493,236,494,493,495
493,197,493,493,494
493,215,493,493,494
492,267,494,494,495
492,401,493,494,494
492,547,493,494,493
492,684,494,494,493
492,782,494,494,493
493,821,495,494,494
492,782,495,494,494
493,646,495,493,496
494,483,495,493,495
495,333,494,493,495
493,209,494,493,495
493,179,494,494,494
492,212,494,494,494
493,304,493,494,494
492,454,494,494,494
492,594,495,494,494
491,722,493,494,494
492,809,494,494,495
492,800,495,494,495
492,725,494,493,495
494,570,494,494,496
493,414,495,493,495
492,270,494,493,495
494,174,494,493,494
493,188,494,494,494
493,238,494,494,495
492,363,494,494,493
491,513,494,494,494
492,652,494,494,493
493,760,494,494,493
492,813,495,494,495
492,783,495,494,495
493,661,495,493,496
493,499,495,493,494
495,347,494,493,495
493,217,494,493,495
492,171,493,494,494
493,202,494,493,494
492,282,494,494,493
492,429,494,494,493
492,574,493,494,494
491,707,494,494,493
492,799,495,494,494
491,805,494,494,493
493,742,495,493,495
494,591,495,494,495
492,432,495,493,495
493,285,494,493,496
494,179,494,494,493
494,181,494,494,495
493,223,493,494,494
492,341,494,494,493
491,494,493,494,495
491,633,494,494,494
492,749,495,494,493
492,814,494,494,494
492,790,495,494,494
493,682,494,494,495
493,520,494,493,495
494,368,495,493,495
493,232,495,493,494
492,169,495,493,494
492,197,494,494,494
491,264,493,494,494
492,408,493,494,493
492,553,493,494,494
491,688,493,494,494
491,783,494,494,494
491,808,494,494,495
492,755,496,494,495
493,614,496,493,495
493,454,495,493,496
495,304,494,493,495
494,191,495,493,495
492,179,493,493,494
492,215,494,494,494
492,322,493,494,494
492,473,494,494,494
491,614,494,494,493
492,736,493,494,493
491,812,494,494,495
491,795,495,494,495
493,703,495,493,494
493,544,495,493,494
494,387,495,493,496
494,248,495,494,495
493,169,494,493,494
493,192,493,493,494
493,250,493,494,494
493,385,493,494,494
491,534,493,494,494
492,672,493,494,493
492,775,495,494,494
492,812,495,494,494
492,773,495,494,495
494,638,495,493,496
493,475,495,494,495
494,325,495,493,495
493,201,494,494,494
493,174,494,494,494
493,208,494,494,493
492,301,494,494,494
492,452,493,494,493
491,594,493,494,493
492,721,494,494,493
492,807,495,494,494
492,799,495,494,494
492,722,495,494,494
493,565,496,494,496
493,411,494,493,495
493,265,495,493,495
493,172,494,494,493
493,187,495,494,494
493,239,493,494,494
492,364,492,494,493
492,516,493,494,494
493,652,494,494,493
492,759,494,494,494
492,813,495,494,494
493,782,495,494,495
493,659,496,493,496
493,497,495,494,496
493,343,496,494,496
492,192,493,493,494
493,174,494,493,495
493,203,494,494,495
493,273,493,494,495
493,383,495,494,494
492,500,493,494,493
491,695,493,494,493
491,823,494,494,495
492,822,494,494,494
493,751,496,493,494
495,565,495,493,496
493,368,494,493,494
495,257,494,493,494
493,205,493,493,494
492,208,494,494,494
492,244,494,493,495
492,336,494,494,494
492,446,493,494,493
491,594,494,494,492
492,773,493,494,493
492,844,495,494,495
493,812,494,494,494
493,698,495,493,496
494,534,494,493,494
493,378,495,493,495
495,214,494,493,495
493,186,494,493,496
492,215,494,494,495
495,270,494,494,494
492,387,494,494,494
492,540,493,494,493
491,680,494,494,494
492,804,493,494,494
493,823,494,494,493
492,768,495,493,495
493,590,495,493,496
493,434,495,494,495
493,292,495,494,495
494,199,494,493,494
492,195,494,494,494
493,229,494,493,493
492,314,494,494,494
491,457,493,494,493
491,603,494,494,493
492,736,494,494,495
493,829,495,494,494
493,809,495,494,494
493,709,495,493,495
493,525,495,493,495
493,369,495,493,495
493,231,494,493,494
492,188,494,493,493
493,209,494,494,494
493,265,494,494,494
492,400,493,494,493
492,545,493,494,493
492,682,493,494,493
491,782,494,494,493
492,817,495,494,494
493,778,495,494,495
493,641,494,493,495
493,479,495,493,496
493,328,494,493,495
493,203,495,493,494
492,177,493,494,495
493,212,494,494,494
493,307,493,494,494
492,456,494,494,494
491,597,493,494,494
491,725,492,494,493
492,809,494,494,494
491,799,495,494,495
493,718,496,493,496
493,548,495,494,495
493,387,496,493,495
493,240,494,493,495
493,184,494,494,495
493,196,494,494,494
493,244,494,494,494
492,345,493,494,494
491,486,493,494,494
492,625,494,494,494
491,776,495,494,494
491,828,494,494,495
493,795,495,494,495
493,648,495,494,495
493,460,495,493,494
493,310,494,493,496
492,215,494,494,495
493,195,494,493,494
493,222,494,494,495
491,288,493,494,494
492,405,493,494,493
492,548,493,494,494
491,699,493,494,495
491,825,494,494,494
492,825,495,494,494
493,750,495,493,496
493,571,495,494,496
492,406,495,493,495
493,260,494,493,494
493,201,494,493,494
491,204,495,493,494
492,244,494,494,494
493,341,494,494,493
490,482,494,494,493
491,620,493,494,493
491,763,493,494,494
491,834,494,493,494
493,804,495,493,495
493,681,496,493,495
494,508,495,493,494
493,351,495,493,495
493,218,493,493,495
494,188,494,494,495
493,214,493,494,494
492,273,494,494,494
493,402,494,494,494
492,541,493,494,494
492,676,493,494,493
492,805,495,494,494
493,822,495,494,494
493,763,495,493,495
493,600,495,493,495
494,428,494,493,495
493,278,494,493,495
494,200,494,493,494
493,197,493,494,494
494,233,494,494,494
491,317,493,494,493
492,451,493,494,493
492,590,493,494,493
491,745,494,494,494
491,833,494,494,496
492,812,495,494,495
493,703,496,494,496
494,511,496,493,496
493,352,494,493,496
493,232,495,493,495
493,194,493,493,494
492,215,494,493,493
492,265,493,494,495
492,369,493,494,493
492,508,493,494,493
492,648,493,494,492
491,803,494,494,494
492,833,495,494,495
492,789,495,494,495
494,622,495,493,496
493,445,494,493,494
494,297,494,493,495
492,212,494,493,496
493,201,493,494,494
492,230,494,494,493
492,307,495,494,493
492,436,494,494,493
491,574,494,494,493
490,723,493,494,493
492,833,495,494,493
492,818,495,494,495
492,729,495,493,495
493,548,495,493,495
494,386,495,493,494
493,241,493,493,495
493,198,495,493,494
493,209,494,494,496
493,255,493,494,494
492,356,493,494,494
493,495,494,494,494
492,633,494,494,493
492,783,494,494,494
492,833,494,494,493
491,799,494,494,496
493,649,494,493,495
494,467,495,493,496
494,312,494,493,495
492,215,493,493,495
493,195,495,494,494
492,223,494,494,494
494,291,493,494,494
492,408,493,494,494
492,550,493,494,493
491,701,493,494,493
491,825,494,494,494
492,823,495,494,494
493,748,496,493,495
493,563,495,493,496
494,396,495,494,496
493,252,495,493,495
492,202,494,494,493
493,206,494,493,494
493,245,494,494,494
492,337,493,494,494
491,471,493,494,493
491,611,493,494,493
492,769,493,494,493
491,838,494,494,494
492,808,494,494,495
494,676,495,493,495
493,490,495,493,495
492,337,494,493,495
493,226,494,493,495
493,196,495,494,494
493,220,493,494,493
492,279,493,494,495
492,395,493,494,493
492,532,493,494,493
491,674,492,494,493
491,813,493,494,494
491,828,496,494,494
492,763,495,493,495
493,594,496,493,495
493,422,495,494,495
493,274,494,493,495
493,206,493,493,494
492,202,494,494,494
492,237,494,494,494
492,321,493,494,495
492,453,492,494,494
492,593,493,494,493
491,750,494,494,493
491,836,495,494,494
491,813,494,494,494
493,702,495,493,495
494,512,495,493,495
494,352,495,493,495
493,231,493,493,495
493,197,495,493,495
493,216,493,494,494
493,268,492,494,494
492,372,494,494,494
491,509,493,494,493
492,653,494,494,493
492,805,494,494,494
491,833,494,494,494
492,788,495,493,494
493,621,495,493,496
493,440,495,493,496
494,291,494,493,495
493,213,493,493,494
493,201,495,494,494
493,231,494,494,494
492,307,493,494,494
492,434,494,494,494
492,573,494,494,493
492,726,493,494,494
491,834,494,494,494
493,820,495,494,494
493,730,495,493,495
493,540,495,493,495
493,378,495,493,495
493,242,494,493,495
492,198,494,493,494
490,209,494,493,495
492,257,495,494,494
493,356,493,494,494
492,493,493,494,493
491,631,493,494,493
491,787,495,494,494
493,835,495,494,495
493,799,496,494,494
492,648,495,493,495
493,464,495,493,494
492,311,495,493,495
494,217,493,493,494
493,198,495,494,495
493,225,494,494,495
493,295,493,494,494
492,412,494,494,493
491,552,493,494,493
491,705,494,494,494
491,828,494,494,495
492,823,495,494,495
493,750,495,493,496
494,565,495,493,495
493,394,495,493,495
494,251,493,493,496
494,202,496,493,493
491,208,494,493,494
493,246,494,494,494
492,339,493,494,494
492,471,493,494,494
491,611,494,494,493
490,772,495,494,493
491,839,494,494,494
493,808,494,494,495
492,677,495,494,495
493,484,494,494,494
493,331,494,493,495
493,226,494,493,495
492,196,492,494,494
492,222,494,493,494
492,281,494,494,495
492,393,494,494,493
492,531,494,494,493
491,678,494,494,493
492,814,494,494,495
492,828,494,494,495
492,765,495,493,495
493,590,494,493,496
493,417,495,493,494
493,271,494,493,495
493,207,494,493,495
491,205,493,494,494
492,238,494,494,493
492,324,493,494,494
492,456,494,494,494
491,594,494,494,493
491,751,495,494,494
491,837,495,494,494
493,813,496,494,495
494,701,496,493,495
492,511,494,493,495
493,354,494,493,495
493,232,493,493,495
493,196,494,493,494
492,216,494,493,494
493,269,494,494,494
493,373,494,494,493
492,510,494,494,494
491,654,494,494,493
491,806,495,494,493
493,832,495,494,495
493,787,495,493,495
493,619,495,493,495
494,438,495,493,495
493,289,494,493,494
492,211,493,493,494
494,200,493,494,494
493,232,493,494,494
493,309,495,494,494
492,434,493,494,494
492,572,493,494,493
491,729,493,494,494
492,833,494,494,494
491,818,495,494,495
493,728,495,493,495
493,537,495,493,495
492,374,494,493,495
493,241,493,493,495
492,200,493,493,494
493,212,494,494,494
492,263,493,494,494
491,389,493,494,494
491,537,493,494,493
491,672,494,494,494
491,773,495,494,494
492,822,494,494,494
492,789,494,494,495
493,659,494,493,495
493,494,494,493,495
494,344,494,494,495
494,217,495,493,493
492,176,493,494,493
492,208,494,494,495
492,292,494,494,494
491,441,493,494,494
491,584,494,494,493
492,713,494,494,493
492,804,494,494,494
492,804,495,494,495
493,736,495,493,495
493,584,495,494,496
493,425,494,493,495
494,279,494,493,496
493,174,494,493,494
492,184,494,494,494
493,228,493,494,493
493,350,493,494,493
491,502,493,494,494
491,641,493,494,494
493,754,494,494,493
492,815,494,494,493
492,788,495,494,495
492,674,495,493,495
493,512,495,493,494
495,360,495,493,495
493,226,494,493,495
492,169,493,494,494
493,200,494,494,494
492,270,493,494,493
491,415,493,494,493
492,562,493,494,494
492,696,494,494,493
491,788,494,494,493
492,805,494,494,495
492,748,496,493,495
493,604,495,493,495
492,444,493,494,495
494,296,494,493,495
493,185,493,493,495
492,180,493,494,494
493,218,494,494,494
492,329,494,494,493
492,481,492,494,494
491,624,493,494,493
492,741,495,494,494
492,812,494,494,495
493,792,494,494,494
493,694,494,493,495
492,533,494,493,495
494,380,493,493,495
494,242,494,493,494
493,169,494,494,493
494,193,495,494,494
492,255,495,494,494
493,395,493,494,494
492,542,494,494,493
492,678,494,494,493
492,779,494,494,493
492,808,494,494,495
492,767,495,494,495
493,627,495,493,496
493,466,495,493,497
492,317,495,493,495
493,197,494,493,495
494,176,494,494,496
492,211,494,494,494
492,309,493,494,492
491,460,493,494,493
491,600,493,494,493
491,728,494,494,494
491,810,494,494,495
491,798,495,494,494
492,715,494,493,495
493,558,494,493,496
494,403,493,493,495
493,259,494,493,495
493,170,494,494,494
494,189,493,494,494
493,241,494,494,494
491,371,494,494,493
491,523,495,494,494
492,662,495,494,493
490,765,494,494,494
492,811,494,494,495
493,779,495,493,495
492,651,494,493,495
493,488,495,493,495
494,336,494,493,495
493,209,494,493,495
492,171,493,494,495
493,205,493,494,494
493,288,493,494,493
492,439,493,494,493
491,584,494,494,493
492,712,494,494,493
491,802,494,494,494
493,802,494,494,494
492,732,495,493,494
493,579,494,493,495
493,422,495,493,495
493,276,494,493,495
494,173,494,493,494
493,185,495,494,494
493,227,494,494,494
492,352,493,494,493
491,504,494,494,493
491,641,493,494,494
492,754,494,494,494
492,814,495,494,494
492,786,495,493,494
493,672,496,493,496
493,510,495,493,495
494,360,495,493,495
493,226,495,493,494
492,171,495,494,494
492,200,494,494,494
491,274,494,494,493
492,417,493,494,493
492,562,493,494,493
491,695,493,494,494
491,790,493,494,493
492,805,495,494,494
493,749,494,493,495
494,604,494,493,495
493,443,494,493,495
493,294,495,493,495
493,184,494,493,495
494,179,494,494,494
492,218,494,494,494
492,331,494,494,494
492,482,493,494,493
493,622,493,494,494
492,744,494,494,493
492,812,494,494,494
492,792,495,494,494
493,693,495,493,494
493,532,495,493,496
492,377,494,493,495
493,239,494,493,495
492,168,493,493,494
492,194,494,494,494
492,258,492,494,493
492,395,493,494,493
492,544,494,494,494
491,680,494,494,494
491,778,495,494,494
492,810,495,494,494
493,765,495,494,495
493,626,495,494,496
493,463,495,493,494
494,315,494,493,495
494,197,495,494,495
493,176,493,494,494
492,211,493,494,495
492,311,493,494,493
492,463,493,494,493
491,602,494,494,493
491,727,495,494,493
492,809,494,494,493
492,796,495,494,494
493,712,494,493,495
493,555,494,493,494
493,402,494,493,495
493,257,494,493,494
493,171,495,493,494
493,190,494,494,494
492,243,494,494,494
492,374,494,494,493
492,522,494,494,492
491,661,494,494,493
493,766,494,494,494
492,813,495,494,494
492,778,495,494,495
492,649,494,494,495
493,487,495,493,496
493,334,494,493,495
494,204,494,493,495
493,173,493,494,495
493,205,494,494,494
492,292,493,494,494
491,440,495,494,493
492,584,494,494,494
492,712,494,494,494
491,805,494,494,495
493,801,493,494,494
492,731,494,494,495
493,579,494,493,495
494,421,495,493,495
493,273,495,493,494
493,174,494,493,495
492,184,494,494,494
493,229,493,494,494
493,352,493,494,494
491,505,494,494,494
491,643,494,494,493
490,754,493,494,493
492,815,494,494,495
493,786,495,493,495
493,670,495,493,495
494,507,495,493,495
494,356,495,493,494
493,223,494,493,495
494,170,493,493,493
492,200,494,494,494
492,273,492,494,494
492,419,494,494,495
492,562,494,494,493
491,695,494,494,494
492,792,494,494,494
491,805,495,494,494
492,749,495,493,495
493,602,495,493,496
493,441,494,493,495
494,252,495,493,494
493,183,494,493,497
491,179,495,494,493
494,229,495,494,494
492,312,493,494,493
492,425,493,494,493
491,567,494,494,493
491,753,494,494,493
491,832,494,494,495
491,808,496,494,494
493,694,494,493,496
494,492,494,493,495
494,309,494,493,495
493,235,494,493,495
492,199,494,494,494
492,217,493,494,494
492,272,494,494,494
492,375,494,494,493
491,481,494,494,494
492,668,494,494,493
492,815,493,494,493
491,836,495,494,494
492,788,495,493,495
493,617,496,493,495
493,409,496,494,495
493,277,494,493,495
493,218,494,493,495
492,208,494,494,495
492,238,495,494,493
492,315,493,494,495
492,445,492,494,494
492,593,494,494,493
491,733,494,494,494
491,834,495,494,495
492,818,494,494,494
494,740,495,494,496
494,545,494,493,495
493,392,495,493,495
494,250,495,493,494
493,191,494,494,492
492,204,493,494,494
492,253,493,494,493
493,354,493,494,493
492,505,494,494,493
492,650,493,494,494
492,789,493,494,495
492,832,495,494,494
493,794,495,493,494
493,637,495,493,494
494,456,494,493,496
493,311,495,493,495
493,211,494,493,494
493,195,493,493,494
492,224,494,494,494
493,301,492,494,493
492,441,494,494,494
492,583,494,494,493
492,716,494,494,493
492,822,495,494,494
492,815,494,494,494
492,743,495,493,495
493,588,495,493,495
494,428,495,493,495
494,282,494,493,496
493,179,495,493,495
493,190,493,493,495
493,235,493,494,493
492,357,493,494,493
491,509,492,494,494
492,649,494,494,493
492,760,495,494,494
493,815,495,494,494
493,787,495,493,494
493,662,495,493,495
493,489,496,493,496
493,332,495,493,496
494,204,494,493,495
492,181,494,494,494
493,210,494,493,494
492,272,493,494,494
492,391,494,494,493
492,530,494,494,493
491,680,493,494,494
491,812,495,494,494
492,822,494,494,494
494,757,495,494,496
493,576,495,493,496
493,400,495,493,495
493,255,494,493,495
493,201,493,493,496
493,202,493,493,495
492,237,494,494,494
493,326,493,494,494
492,453,494,494,494
492,595,494,494,494
491,758,494,494,494
492,838,494,494,494
493,813,495,494,495
493,695,495,493,495
494,507,496,493,495
493,351,494,494,494
493,230,493,493,495
493,193,492,493,494
492,217,495,494,494
492,271,494,494,493
492,390,493,494,494
491,532,493,494,494
492,669,493,494,493
492,806,494,494,493
492,829,495,494,493
492,779,495,494,495
493,623,495,493,494
494,451,495,493,495
493,299,494,493,495
493,200,495,493,494
492,192,493,494,494
493,225,493,494,494
493,312,494,494,494
492,453,493,494,493
492,590,494,494,493
492,727,493,494,494
492,827,494,494,495
492,811,495,494,495
493,716,495,493,495
493,535,495,493,494
494,374,495,493,495
494,230,495,493,494
493,189,493,493,494
493,207,493,493,495
493,256,493,494,493
492,359,493,494,494
490,496,493,494,494
492,637,494,494,494
490,794,494,494,493
493,833,494,494,494
493,796,495,494,495
493,638,494,493,495
493,448,495,493,495
495,298,495,493,495
494,217,494,493,494
494,199,494,493,495
492,229,494,494,494
494,299,494,494,494
493,415,494,494,494
492,557,493,494,493
491,714,494,494,493
491,834,494,494,495
493,825,494,494,494
492,743,495,493,495
494,554,496,494,495
493,391,494,493,494
493,249,494,493,495
493,200,494,493,493
493,208,494,494,494
492,251,494,494,493
491,348,494,494,493
492,488,493,494,493
492,627,493,494,493
492,777,494,494,494
492,837,494,494,495
492,804,495,494,494
493,668,496,493,495
493,491,495,493,495
493,336,494,493,495
493,216,494,493,494
492,192,494,493,495
492,218,494,494,493
493,281,493,494,494
492,407,493,494,494
491,546,494,494,493
492,684,494,494,493
491,817,494,494,494
493,823,494,494,495
493,759,494,493,495
493,583,495,493,495
494,412,495,493,495
493,263,494,493,494
493,200,495,493,494
492,200,495,494,494
493,236,494,494,494
492,326,493,494,494
492,459,492,494,493
492,599,493,494,493
491,760,494,494,493
491,838,495,494,494
493,813,496,494,494
492,692,495,493,495
493,496,494,493,494
494,339,495,493,495
493,230,494,493,495
494,196,492,493,494
493,218,494,493,493
492,272,494,494,493
492,379,493,494,493
492,518,493,494,493
491,664,494,494,493
491,811,494,494,494
493,834,495,494,493
491,780,496,493,495
493,610,495,493,495
493,434,494,493,496
493,286,494,493,495
493,209,495,493,494
493,201,492,494,494
492,232,493,494,493
492,313,493,494,494
492,445,495,494,492
492,582,494,494,493
491,736,493,494,493
492,836,495,494,493
492,818,495,494,495
492,718,495,494,496
494,531,496,494,496
494,370,495,493,495
493,237,494,493,493
493,196,494,494,494
493,212,494,494,494
494,259,494,494,493
492,363,493,494,494
492,501,494,494,493
491,642,493,494,493
492,799,494,494,494
492,837,495,494,495
493,797,495,493,495
494,637,495,493,495
493,454,496,493,494
494,301,494,493,496
491,216,495,493,493
495,199,494,494,495
492,230,495,494,493
492,299,492,494,494
494,417,492,494,494
491,557,494,494,493
493,719,493,494,493
493,833,494,494,494
493,824,494,494,495
493,743,496,493,495
495,550,496,493,496
495,378,495,493,495
493,251,494,493,494
495,204,495,494,495
493,210,494,494,494
494,253,494,494,494
493,346,495,494,494
493,474,494,494,494
492,616,493,494,493
490,782,494,494,493
493,841,495,494,493
492,808,495,493,494
493,665,495,493,495
494,474,495,493,495
493,322,496,493,495
493,224,495,494,494
493,198,495,493,494
493,224,494,494,494
492,288,493,493,493
492,409,494,494,493
491,546,494,494,494
492,688,493,494,494
491,822,494,494,494
493,828,496,494,494
493,760,496,493,495
494,588,495,493,495
493,421,495,493,495
494,271,494,493,495
493,200,496,493,494
493,202,495,493,494
493,239,493,494,494
493,329,493,494,493
491,467,494,494,494
492,605,494,494,493
491,757,494,494,494
491,836,494,494,494
492,809,495,494,495
493,691,495,493,495
494,500,495,493,496
493,341,495,493,495
493,228,495,493,495
493,194,493,493,495
493,217,494,493,494
493,272,494,494,494
492,376,494,494,494
493,516,493,494,493
491,667,493,494,494
492,812,494,494,494
491,832,494,494,496
493,778,495,494,494
492,607,495,493,496
494,424,495,493,495
494,277,495,493,494
493,210,494,494,495
493,203,493,494,495
494,235,493,494,495
493,315,494,494,493
492,440,494,494,493
491,581,494,494,493
492,740,494,494,494
492,836,494,494,493
492,818,495,493,494
492,716,495,494,495
493,526,494,493,494
495,367,495,493,494
494,238,494,493,494
493,199,494,493,495
493,215,494,494,495
492,260,494,494,493
492,366,493,494,493
492,505,493,494,493
492,643,494,494,493
492,799,494,494,495
493,835,494,494,493
493,795,494,493,494
492,635,495,493,495
495,456,495,493,496
493,302,494,493,494
494,214,494,493,494
492,197,494,494,493
492,227,492,494,495
492,301,494,494,494
491,422,494,494,493
492,561,494,494,494
491,717,495,494,493
493,832,494,494,494
493,821,495,494,494
493,741,494,494,495
494,549,496,493,496
494,383,495,493,495
493,247,495,493,495
492,201,495,493,495
493,210,494,494,495
493,253,493,494,494
492,346,494,494,494
494,479,493,494,493
493,623,494,494,493
490,781,494,494,494
492,838,495,494,495
492,805,495,493,494
492,662,495,494,495
493,473,494,493,495
493,320,494,493,496
493,222,493,494,494
492,199,494,493,495
493,225,494,494,494
492,288,494,494,494
492,404,494,494,493
493,544,494,494,494
492,692,494,494,494
492,820,494,494,495
492,828,494,494,494
492,761,495,493,495
494,578,495,493,495
494,407,494,493,495
494,262,494,493,495
493,203,493,493,494
492,206,494,494,495
492,241,493,494,494
492,331,493,494,493
491,464,494,494,492
491,603,493,494,493
492,764,495,494,494
493,840,495,494,494
493,811,495,494,494
493,690,496,493,495
494,499,495,493,496
492,340,494,493,495
493,228,494,493,494
493,193,493,494,494
492,217,494,494,494
493,275,493,494,494
492,381,494,494,494
492,520,493,494,494
492,667,494,494,493
492,813,495,494,494
492,831,494,494,495
493,776,495,494,495
494,607,495,493,495
494,428,494,493,496
493,279,494,493,495
492,210,494,493,495
493,203,493,494,494
493,236,493,494,494
492,316,493,494,494
492,444,494,494,494
492,584,492,494,493
492,742,493,494,493
492,837,493,494,494
492,818,495,494,494
493,715,495,494,495
493,520,495,493,496
494,360,493,493,495
493,236,494,493,495
494,198,494,494,495
493,215,495,494,494
492,263,494,494,494
492,364,493,494,493
492,503,493,494,493
492,643,494,494,492
492,800,494,494,495
492,837,494,494,494
492,796,495,494,494
492,635,495,493,496
493,449,494,493,495
494,300,495,493,495
493,215,494,494,494
492,199,493,493,495
493,230,493,494,494
493,303,493,494,494
492,424,493,494,493
492,563,493,494,493
491,718,494,494,494
492,834,494,494,494
492,822,494,494,495
492,739,494,493,495
493,551,495,493,496
493,386,494,493,495
493,246,494,493,494
494,200,495,493,495
494,210,494,494,495
493,253,493,494,493
493,348,494,494,494
492,483,493,494,494
491,625,493,494,493
490,783,494,494,494
492,839,495,494,494
492,805,495,494,494
493,662,495,494,494
494,472,494,493,495
494,319,494,493,495
493,220,494,494,494
493,197,493,494,494
493,224,494,493,494
492,287,493,494,495
492,402,493,494,494
493,542,493,494,493
492,695,494,494,495
491,823,494,494,494
492,827,495,494,494
492,761,496,493,496
493,575,494,493,495
494,405,494,493,495
493,259,493,494,495
493,203,494,493,495
493,205,494,493,494
492,242,493,494,494
492,331,493,494,495
492,465,493,494,493
492,605,493,494,494
491,765,493,494,494
492,840,495,494,494
492,813,494,493,495
492,687,495,493,495
494,495,494,493,495
493,339,494,494,495
494,228,494,493,495
491,197,495,493,494
493,219,494,494,494
493,274,493,494,494
492,383,494,494,493
491,521,494,494,493
493,668,494,494,494
493,813,494,494,495
492,832,495,494,494
492,774,495,493,495
494,605,495,493,495
494,424,494,493,496
493,279,494,493,496
493,209,494,493,495
492,202,493,493,494
492,236,493,494,494
492,318,493,494,494
492,444,494,494,493
493,585,493,494,493
492,745,494,494,493
493,838,495,494,494
493,818,494,494,496
493,713,494,493,495
493,523,494,493,497
492,362,494,493,495
494,235,494,493,494
492,195,494,493,495
493,213,494,493,494
491,263,494,494,495
492,365,494,494,493
491,503,494,494,494
492,645,494,494,494
491,801,494,494,494
493,835,494,494,494
493,795,495,493,495
492,632,495,493,496
493,448,494,494,495
493,298,496,493,496
494,216,494,493,496
493,198,494,494,496
492,229,493,494,494
492,303,493,494,494
492,421,494,494,493
491,563,493,494,494
490,720,494,494,493
492,834,494,494,494
492,822,495,494,496
493,738,494,494,494
494,545,494,493,495
495,380,494,493,496
493,246,493,494,496
493,202,494,493,494
492,211,494,493,494
492,253,494,494,494
492,348,493,494,494
492,484,494,494,493
492,625,494,494,495
491,783,494,494,494
492,838,495,494,494
494,804,496,494,496
495,661,495,494,495
493,469,495,493,494
493,318,494,493,495
493,221,494,493,495
492,198,493,494,494
492,223,493,494,495
493,289,494,494,494
492,400,493,494,494
492,540,493,494,494
491,697,494,494,493
492,827,495,494,495
492,827,494,494,495
494,760,495,494,495
494,575,495,494,495
492,400,495,493,496
494,257,493,493,495
495,206,495,493,495
493,206,492,494,494
493,243,493,494,494
492,333,493,494,494
492,461,493,494,493
491,603,493,494,494
493,769,494,494,494
491,841,495,494,495
492,813,494,494,495
494,687,496,493,496
493,492,495,493,495
493,335,494,493,495
493,230,494,493,495
493,195,494,493,494
493,219,494,493,494
493,276,493,494,494
492,383,492,494,493
492,522,494,494,493
492,670,493,494,493
492,814,495,494,494
492,832,493,494,495
493,772,495,493,496
493,603,495,493,494
492,425,494,493,496
494,278,494,493,496
493,210,494,493,497
493,202,493,494,493
493,234,493,494,494
494,318,493,494,493
492,449,493,494,493
492,587,494,494,494
492,743,494,494,494
492,837,495,494,494
493,817,495,494,495
493,711,494,493,495
493,523,495,493,495
493,362,494,494,495
494,234,494,493,493
493,195,494,494,495
493,213,493,494,495
492,262,494,494,495
492,367,493,494,493
493,504,494,494,494
492,645,493,494,493
492,803,494,494,494
494,836,494,494,494
492,794,495,494,494
493,631,495,494,496
493,445,495,493,495
493,295,494,493,496
493,215,494,493,495
493,198,494,494,495
492,231,493,494,495
492,304,493,494,493
492,423,493,494,493
492,566,493,494,493
491,724,493,494,493
493,836,495,494,495
493,823,495,494,494
493,736,495,494,495
493,546,495,494,496
493,384,494,493,496
494,245,494,493,495
493,200,494,494,493
492,211,494,493,494
493,255,494,494,495
492,349,493,494,494
493,488,493,494,494
492,628,494,494,493
491,784,494,494,494
493,837,495,494,494
493,805,495,494,494
492,656,495,493,495
493,470,495,493,494
493,316,494,493,495
493,218,495,494,496
495,197,493,493,494
493,223,493,493,495
492,289,494,494,494
491,407,493,494,494
492,545,494,494,494
491,694,493,494,493
493,825,494,494,495
492,827,495,494,495
493,757,495,493,495
494,571,495,494,496
495,399,493,493,495
494,256,494,493,495
493,202,494,494,495
493,205,493,493,494
492,243,494,494,495
494,334,493,494,493
492,464,494,494,493
492,605,494,494,494
491,768,493,494,494
493,841,495,494,495
492,813,494,493,495
495,687,495,493,496
494,493,495,493,495
495,338,495,493,495
494,227,495,493,494
493,196,493,493,494
492,220,493,493,495
493,276,493,494,494
493,387,493,494,493
492,525,493,494,494
492,673,493,494,493
491,814,495,494,493
493,831,494,494,494
493,770,495,493,495
493,601,495,493,495
494,424,494,493,495
493,276,494,493,494
493,208,492,493,494
493,203,493,493,493
492,237,493,494,495
492,318,493,494,494
492,447,494,494,494
491,588,494,494,493
492,746,494,494,494
492,837,494,494,494
494,816,495,493,495
493,707,494,493,495
494,516,495,494,496
494,358,494,493,495
493,234,494,493,496
493,196,494,493,494
493,214,494,494,493
493,264,494,494,493
492,369,493,494,494
492,506,494,494,494
492,646,494,494,493
491,802,494,494,494
492,836,494,494,494
492,791,495,494,496
493,628,495,493,496
494,445,493,493,496
493,297,494,494,494
494,214,496,493,494
493,200,494,493,495
493,231,494,494,494
493,305,493,494,494
492,426,493,494,494
493,567,494,494,494
492,725,493,494,494
491,835,494,494,495
491,821,495,494,494
492,736,495,494,495
493,544,495,494,495
494,383,495,493,496
494,245,495,493,494
493,200,494,493,493
493,210,494,493,494
491,257,494,494,494
493,350,493,494,493
492,488,494,494,494
492,629,493,494,493
492,786,494,494,494
493,836,494,494,495
493,803,494,493,495
493,656,495,493,496
495,469,496,493,496
494,316,494,493,495
493,220,495,493,496
495,197,493,494,494
493,224,492,494,494
493,289,494,494,494
492,406,494,494,494
492,548,495,494,493
491,700,494,494,493
492,826,495,494,495
494,826,494,494,495
492,756,494,493,495
493,570,495,493,496
494,400,495,493,496
493,255,494,493,495
493,202,494,493,496
493,207,495,493,494
492,243,494,493,494
494,335,493,494,494
493,469,493,494,494
492,608,493,494,494
492,768,494,494,494
492,839,494,494,493
492,811,495,493,495
493,681,495,493,496
494,493,495,493,497
494,337,494,493,496
494,226,494,493,496
493,195,494,493,495
493,218,493,493,495
492,277,493,494,494
492,389,493,494,495
492,527,493,494,494
492,673,493,494,494
492,813,494,494,494
492,830,495,494,494
493,769,496,493,495
493,599,495,493,495
494,424,494,493,495
494,276,493,493,495
494,207,494,493,494
492,203,493,493,495
493,236,494,493,495
493,321,492,494,493
492,450,494,494,494
492,590,494,494,493
491,748,494,494,495
491,838,494,494,494
493,817,494,494,494
492,709,495,494,496
494,515,496,493,495
494,357,494,493,495
493,234,494,493,496
492,198,494,494,495
493,215,493,494,494
492,266,493,494,494
493,370,493,494,494
492,509,493,494,494
493,650,493,494,494
491,805,494,494,495
493,834,494,494,494
492,792,495,493,495
493,626,495,493,496
494,447,495,493,495
494,295,494,493,496
493,214,493,493,495
495,199,494,493,494
493,230,493,494,494
492,305,493,494,494
493,430,493,494,494
491,569,493,494,493
493,723,494,494,494
492,834,495,494,495
492,822,495,494,494
492,732,495,494,495
493,544,494,494,497
492,381,494,493,496
494,243,494,493,495
493,202,492,493,495
493,210,493,493,494
493,256,493,494,494
493,352,493,494,495
492,488,493,494,494
493,628,493,494,494
492,787,494,494,494
493,837,495,494,494
493,803,495,493,496
493,654,494,494,496
494,468,495,493,495
494,314,494,493,496
493,219,494,494,496
493,197,493,493,494
493,224,493,494,494
492,292,494,494,494
492,409,493,494,494
492,550,493,494,494
491,702,494,494,494
492,827,495,494,494
493,826,494,494,494
493,754,495,493,495
494,572,495,493,496
493,401,495,493,496
493,254,494,493,496
493,201,492,494,494
493,206,493,493,494
493,244,493,494,495
493,335,494,494,493
492,470,493,494,494
491,612,494,494,493
491,769,494,494,493
493,839,494,494,494
494,811,495,493,495
492,680,496,493,496
494,491,494,493,496
494,336,494,493,495
494,226,494,493,495
493,196,494,493,494
493,221,493,493,495
493,278,493,494,494
492,390,493,494,493
491,528,493,494,494
492,674,494,494,493
491,814,494,494,494
492,831,494,494,495
492,767,495,493,496
493,596,495,493,495
494,420,494,493,496
494,273,494,494,495
493,209,494,494,495
493,204,494,493,494
492,237,494,494,493
492,323,493,494,495
492,450,494,494,494
492,590,493,494,493
491,747,493,494,493
492,839,494,494,495
493,816,494,494,494
492,706,494,493,496
494,517,495,493,495
494,358,494,493,496
493,233,493,494,494
492,196,493,493,494
493,215,494,493,495
492,266,493,494,494
493,372,493,494,495
492,509,493,494,494
493,650,493,494,493
492,804,494,494,495
492,834,494,494,495
492,790,495,493,495
495,626,494,493,496
493,444,494,494,496
494,293,494,493,496
494,211,493,493,495
493,199,493,493,494
493,231,493,494,493
492,306,494,494,494
492,430,493,494,494
491,569,493,494,494
491,727,494,494,494
491,834,494,494,494
492,819,494,494,494
492,730,495,494,495
494,539,494,493,496
493,376,495,493,495
493,244,493,493,495
494,200,493,494,496
495,212,492,493,494
495,256,492,494,494
492,351,494,494,494
493,488,493,494,495
492,628,492,494,493
491,789,494,494,493
493,837,494,494,493
494,803,495,494,494
492,651,493,494,496
494,457,494,494,495
494,306,495,494,496
493,220,491,493,495
492,202,493,494,494
494,225,493,494,494
493,295,493,494,494
493,404,493,494,493
491,541,495,494,493
493,708,495,494,496
492,834,496,494,497
490,827,496,494,495
491,757,496,494,494
496,567,496,493,494
494,386,494,493,494
493,256,493,493,496
493,208,494,493,495
491,209,492,494,497
494,248,492,494,494
491,341,494,494,493
492,455,494,494,492
492,602,492,494,493
493,776,495,494,493
491,845,495,494,496
491,815,496,493,496
494,683,494,494,497
495,482,496,494,496
495,327,495,493,496
493,228,493,493,494
491,201,491,494,494
491,224,492,493,495
491,281,494,494,494
493,390,493,494,494
491,528,493,494,495
490,683,492,494,495
491,816,493,494,494
491,831,493,494,494
494,768,495,493,497
492,593,494,493,496
492,416,493,493,495
495,268,493,493,496
492,207,492,494,494
493,205,495,494,495
493,237,492,494,495
492,322,492,494,494
493,447,492,494,495
492,587,494,494,494
492,750,494,494,493
492,840,494,494,494
493,818,494,494,495
493,706,495,493,496
494,508,495,494,495
493,348,494,493,496
494,238,494,493,494
494,200,492,494,494
492,217,494,494,495
491,271,491,494,495
494,371,493,494,493
491,500,493,494,494
493,655,492,494,493
493,809,493,494,495
492,836,494,494,493
491,791,493,494,497
492,624,496,493,497
493,434,494,493,495
495,285,492,493,493
492,217,495,494,496
491,204,492,493,494
492,232,493,494,495
493,308,494,494,494
491,423,493,494,493
493,562,493,494,494
491,732,493,494,494
494,839,494,494,494
492,824,495,494,495
493,733,494,494,494
493,534,494,494,496
495,371,493,493,494
495,247,493,493,496
493,204,492,493,494
495,213,493,493,494
493,259,492,494,492
492,353,495,494,494
492,483,493,494,494
493,628,494,494,493
493,793,495,494,495
492,842,493,494,495
494,805,496,494,494
493,654,495,494,497
492,456,494,493,495
494,304,494,494,495
495,223,493,494,495
493,200,491,494,496
491,227,492,493,495
493,295,493,494,494
494,405,493,494,493
492,546,494,494,493
492,709,494,494,493
492,833,494,494,495
492,829,495,494,494
492,752,494,493,496
493,564,496,493,494
494,393,495,493,496
493,255,492,494,495
493,203,493,493,494
493,210,494,494,496
493,246,494,494,494
492,338,494,494,493
492,471,494,494,493
491,610,493,494,493
492,774,494,494,493
492,842,494,494,494
492,811,495,494,494
492,679,495,494,496
494,487,495,493,496
494,335,494,493,495
493,227,494,493,496
494,197,493,493,496
492,222,493,494,493
492,279,494,494,494
492,390,494,494,494
492,529,493,494,494
492,681,494,494,493
492,816,494,494,494
493,829,494,494,494
492,767,494,493,496
493,593,495,493,495
493,416,495,493,495
494,269,494,494,494
493,207,493,493,494
493,204,492,493,495
493,238,493,494,494
493,323,492,494,494
492,451,493,494,494
492,593,493,494,493
491,753,494,494,495
493,837,495,494,494
493,817,494,494,494
492,704,495,493,496
494,513,494,493,495
493,351,494,493,495
493,233,494,493,496
493,195,493,493,494
493,218,494,493,494
492,268,494,494,494
493,375,493,494,494
493,513,493,494,494
492,654,494,494,494
491,807,494,494,494
493,836,495,494,494
491,789,494,493,494
493,620,495,493,496
495,441,495,493,495
493,291,494,493,496
494,212,495,493,495
493,201,493,493,493
492,230,494,494,494
493,308,494,494,495
492,432,493,494,494
492,570,494,494,493
491,730,493,494,495
491,836,494,494,494
493,820,494,494,495
493,728,495,493,496
494,536,495,493,494
493,374,494,493,496
493,242,494,493,495
493,200,494,493,494
493,212,494,494,494
492,258,494,494,494
492,355,493,494,494
492,491,493,494,494
493,634,494,494,493
492,792,494,494,494
491,838,494,494,495
492,800,495,493,495
494,649,495,494,495
494,463,495,493,496
494,311,493,493,495
492,217,492,493,495
493,196,493,493,495
493,226,494,494,493
493,295,493,494,495
491,413,493,494,494
492,556,494,494,494
491,708,494,494,494
492,828,495,494,494
492,824,495,493,494
492,748,495,493,495
493,563,495,493,496
493,396,495,493,496
493,250,494,493,495
493,200,492,493,494
492,206,493,494,494
492,245,493,494,494
492,338,494,494,493
492,474,493,494,494
491,612,494,494,493
492,774,494,494,494
492,840,494,494,494
492,809,495,493,494
492,675,495,493,495
493,484,495,493,495
494,332,494,493,495
493,225,493,493,494
493,197,493,494,495
492,220,494,493,495
492,281,493,494,494
493,395,494,494,493
492,532,493,494,494
492,680,494,494,493
492,816,493,494,494
493,830,495,494,495
493,765,495,494,495
494,591,495,494,496
495,417,494,493,495
494,271,494,493,496
494,207,494,493,494
493,203,493,493,494
492,238,494,494,494
493,323,494,494,494
492,454,493,494,494
492,595,494,494,492
491,753,494,494,494
492,837,494,494,494
492,815,495,494,495
493,701,494,493,494
493,512,495,493,497
493,351,494,493,496
494,232,493,493,495
494,195,493,494,495
494,216,494,493,494
493,267,493,494,494
492,375,494,494,493
492,514,493,494,494
492,657,493,494,493
492,808,494,494,494
493,832,494,494,494
494,787,495,493,495
493,619,496,494,495
493,439,494,493,496
495,289,495,493,495
494,211,493,494,495
493,201,494,494,494
494,232,493,493,495
493,310,494,494,493
491,435,493,494,494
492,575,494,494,493
491,731,494,494,494
492,834,496,494,493
493,820,494,494,495
493,727,495,494,495
494,535,496,494,495
493,374,494,493,495
494,241,494,493,494
492,201,494,493,494
492,212,494,493,494
492,258,494,494,494
492,359,492,494,494
493,495,493,494,493
492,634,493,494,493
491,790,495,494,493
492,838,494,494,494
493,801,495,494,494
494,646,494,494,495
494,461,493,493,495
494,309,494,493,494
494,218,493,494,494
494,198,493,493,493
493,226,493,494,494
494,295,494,494,493
493,414,493,494,493
492,554,494,494,493
492,708,493,494,493
492,830,494,494,495
492,824,494,494,495
493,748,496,493,495
493,564,495,493,496
493,396,494,493,495
494,250,494,494,495
493,200,494,494,495
492,208,494,494,495
493,247,494,494,495
492,341,494,494,493
493,477,493,494,494
492,617,494,494,493
491,775,493,494,493
493,840,495,494,494
492,809,495,494,496
494,674,496,493,495
494,485,494,493,495
494,331,494,493,495
494,222,494,494,495
493,197,494,494,494
493,221,493,494,493
492,280,493,494,493
493,395,493,494,494
493,534,493,494,493
492,681,493,494,494
492,816,494,494,494
493,830,494,494,494
494,765,495,493,495
495,588,495,494,496
494,415,495,493,495
494,268,493,493,495
493,206,493,493,494
493,204,494,493,494
493,238,494,493,493
493,325,493,494,494
492,457,493,494,494
492,596,493,494,493
492,754,493,494,494
491,838,494,494,494
493,815,494,494,496
493,699,495,493,494
493,509,495,493,495
494,352,496,493,494
493,232,494,493,494
495,195,493,493,494
493,216,493,493,494
493,270,493,494,494
492,378,494,494,493
492,515,493,494,493
492,659,494,494,494
491,809,494,494,494
492,832,495,494,495
493,786,495,494,495
493,618,495,493,496
493,438,495,493,495
493,289,494,493,495
493,212,493,493,494
493,201,493,493,494
494,232,494,494,495
493,309,493,494,494
491,434,493,494,494
492,574,493,494,493
492,732,495,494,494
492,836,494,494,494
493,820,494,494,494
494,724,495,493,496
494,533,495,493,496
493,371,495,494,496
493,238,493,494,494
493,199,494,494,495
494,213,494,493,493
492,259,494,494,494
492,358,494,494,494
493,497,494,494,494
491,637,494,494,494
491,793,494,494,494
492,837,494,494,494
493,800,494,494,494
493,645,495,494,495
493,462,496,493,495
494,308,494,493,495
492,216,494,494,494
493,198,494,493,494
491,225,494,493,495
492,296,494,494,493
491,416,493,494,494
492,557,494,494,494
492,707,494,494,493
492,831,493,494,494
493,824,495,494,495
493,744,494,493,496
493,560,494,493,495
494,393,495,493,495
493,250,494,493,494
494,201,494,493,495
493,208,494,493,494
494,248,494,493,494
493,342,494,494,493
492,476,494,494,493
492,616,493,494,492
492,776,494,494,494
492,839,494,494,494
492,809,494,493,495
494,674,494,493,495
494,484,494,493,496
494,330,494,493,495
493,224,494,494,495
493,195,493,494,495
492,222,494,493,493
493,282,494,494,494
493,397,493,494,494
492,535,493,494,494
491,684,493,494,493
491,817,494,494,494
492,829,494,494,494
493,766,495,493,496
493,588,495,493,496
494,412,494,493,496
494,265,494,493,495
493,204,493,493,494
492,202,493,493,494
492,238,494,494,494
492,323,494,494,493
493,455,494,494,495
493,597,494,494,493
491,755,493,494,494
492,837,495,494,495
492,814,496,494,496
492,698,495,493,496
495,502,496,493,495
493,345,496,493,495
493,232,495,493,495
493,196,494,493,495
492,218,494,493,494
492,270,493,494,494
493,374,494,494,494
493,511,492,494,494
492,658,493,494,494
492,810,494,494,495
493,834,495,494,494
493,784,495,494,496
494,615,495,493,496
493,431,495,494,495
494,285,494,494,496
493,212,494,493,494
494,202,493,493,495
493,233,493,494,494
492,312,493,494,495
492,435,493,494,494
492,575,494,494,493
492,735,493,494,494
492,838,496,494,494
494,821,494,494,494
493,723,495,493,495
494,536,496,493,495
493,374,495,493,495
494,240,494,493,496
495,198,493,493,494
492,212,493,493,494
492,257,493,494,494
493,361,493,494,493
492,500,494,494,493
492,640,494,494,494
492,793,494,494,495
493,836,494,494,495
492,800,494,494,495
493,644,494,494,496
494,461,495,493,495
493,307,495,493,495
493,216,494,494,495
493,197,494,493,494
493,226,493,493,494
492,294,493,494,495
493,414,494,494,493
492,556,494,494,494
492,711,493,494,493
492,830,494,494,494
493,824,495,493,495
494,742,495,494,495
494,555,495,493,496
495,388,494,493,496
494,250,493,493,496
494,202,493,493,494
492,210,494,493,495
492,248,493,494,494
493,344,493,494,494
492,476,494,494,494
493,617,493,494,494
493,777,494,494,494
493,840,494,494,494
492,808,495,494,495
492,671,495,494,496
494,482,495,493,496
494,330,494,494,496
494,225,494,493,495
493,198,494,493,494
493,222,493,494,494
494,285,493,494,494
492,400,494,494,495
492,536,494,494,494
491,684,493,494,494
491,818,494,494,495
492,829,494,494,494
493,764,495,493,494
493,587,495,493,497
494,413,494,493,495
494,266,494,493,496
493,204,493,493,495
494,203,493,494,494
493,238,493,493,495
492,325,494,494,493
492,456,493,494,494
492,598,494,494,494
491,758,494,494,494
493,839,495,494,494
493,815,494,494,495
494,697,495,493,495
494,505,495,493,496
493,346,494,493,496
493,231,494,493,496
493,196,494,493,495
493,217,493,494,495
492,272,493,494,495
492,378,494,494,494
491,516,493,494,494
491,660,494,494,495
492,809,494,494,495
492,833,494,494,494
493,784,495,493,496
494,613,494,493,495
494,435,494,493,496
493,286,494,493,496
495,211,495,493,495
493,201,494,493,493
493,232,494,494,496
493,312,494,494,494
492,440,494,494,494
492,578,493,494,493
491,733,494,494,493
492,837,494,494,495
493,819,496,494,496
492,721,495,494,496
494,532,495,493,496
493,371,495,494,495
493,239,493,493,495
492,198,494,493,494
493,211,494,494,495
493,259,493,494,494
493,360,493,494,495
492,496,494,494,495
491,638,494,494,494
491,795,494,494,493
492,837,495,494,494
493,798,495,494,496
494,642,496,494,495
494,456,494,494,495
495,305,494,493,495
494,217,494,493,495
493,199,493,493,493
493,228,495,493,494
492,298,494,494,493
492,416,493,494,493
491,558,494,494,494
492,715,494,494,494
492,832,493,494,495
493,824,494,494,496
493,744,495,494,495
493,559,495,493,496
493,391,494,493,495
493,249,494,493,495
494,200,494,493,495
493,209,494,494,493
492,249,494,493,494
492,342,494,494,494
491,479,493,494,494
491,621,494,494,494
491,776,493,494,494
492,838,495,494,495
494,807,495,494,494
493,669,496,493,496
494,480,495,493,494
494,327,494,493,495
493,224,494,493,495
493,197,494,493,495
493,223,494,494,494
492,283,493,494,494
493,398,493,494,494
493,537,493,494,494
492,686,493,494,493
491,818,494,494,494
493,828,495,494,495
493,764,494,493,496
493,583,495,493,496
493,411,496,493,495
495,265,494,493,494
494,206,495,493,494
493,205,494,493,494
492,241,493,494,495
492,328,493,494,494
492,459,493,494,494
492,599,493,494,493
492,759,493,494,494
492,839,494,494,495
494,814,494,493,495
493,694,495,493,496
494,507,495,494,495
493,349,494,494,494
492,228,494,493,496
494,197,493,493,494
493,217,494,493,494
492,272,493,494,495
492,380,494,494,493
493,518,494,494,493
493,661,493,494,493
493,810,494,494,495
493,833,495,494,493
493,781,494,493,495
493,612,496,494,496
495,432,495,493,496
494,282,494,494,495
494,209,494,493,495
494,201,493,494,494
493,234,493,494,495
492,313,494,494,494
493,437,493,494,494
492,578,493,494,493
492,738,493,494,494
492,837,495,494,494
492,820,494,494,494
493,720,495,494,496
494,526,494,493,496
493,366,495,493,496
495,239,493,493,493
493,199,493,493,494
493,213,494,494,495
492,260,493,494,494
492,362,494,494,494
491,499,493,494,494
492,640,493,494,493
493,796,494,494,495
493,837,495,494,495
493,796,494,493,495
493,639,494,493,496
494,458,494,493,496
493,305,494,493,495
493,215,494,494,496
492,198,493,493,494
494,226,493,494,494
493,299,493,494,494
492,420,493,494,494
492,560,493,494,494
492,714,494,494,493
492,832,494,494,495
492,824,494,494,495
491,741,494,494,495
493,556,495,493,495
493,391,493,493,495
494,248,493,493,494
493,199,494,493,495
492,208,493,493,494
493,250,494,494,495
492,343,494,494,493
491,477,493,494,494
492,619,493,494,493
491,780,494,494,495
492,840,494,494,494
493,807,495,493,495
493,668,495,493,497
493,475,494,494,495
494,324,494,493,495
492,220,494,493,494
493,197,493,493,494
493,223,493,494,494
492,285,493,494,494
491,397,494,494,494
493,538,493,494,493
491,690,493,494,493
491,821,493,494,494
494,829,494,494,494
492,762,494,493,496
495,583,494,493,495
494,409,495,494,495
493,264,494,494,495
494,204,493,493,494
493,205,494,493,494
492,239,493,494,496
493,329,494,494,494
492,461,492,494,494
493,601,494,494,493
492,759,494,494,494
493,838,495,494,495
492,813,494,494,494
492,693,495,493,496
494,503,494,493,496
493,345,494,493,496
494,230,493,493,494
496,196,493,493,494
492,217,494,494,495
493,271,493,494,494
494,380,493,494,494
492,517,493,494,493
491,661,494,494,494
491,811,494,494,494
492,833,494,494,495
492,779,494,494,494
494,610,496,493,495
495,428,494,494,495
494,281,495,494,494
493,211,493,493,495
493,201,493,494,495
494,234,493,494,494
492,314,493,494,494
492,434,493,494,494
492,575,494,494,494
492,740,493,494,494
492,839,494,494,494
493,820,494,494,494
493,721,495,494,495
494,527,494,494,496
493,365,494,493,496
493,240,494,493,494
493,199,493,494,494
492,213,493,494,494
492,260,494,494,493
492,363,493,494,495
493,501,494,494,494
492,643,494,494,494
491,797,493,494,493
492,838,494,494,494
492,799,496,494,494
493,638,495,494,496
493,454,495,494,495
494,301,493,493,495
495,215,492,493,496
495,198,493,493,493
492,227,494,494,494
494,299,492,494,494
493,414,494,494,494
493,557,493,494,494
491,715,492,494,495
494,835,495,494,492
492,822,493,494,497
491,741,495,494,494
496,550,496,493,496
492,375,493,493,494
494,253,493,494,496
495,201,495,494,495
493,212,494,494,494
493,252,492,494,492
495,346,491,494,492
491,463,492,494,495
491,609,494,494,493
490,782,495,494,493
490,842,494,494,493
495,811,496,494,497
493,670,496,494,494
492,465,496,493,494
493,311,494,494,494
494,227,493,494,494
496,200,495,494,494
492,227,494,494,494
490,290,493,494,496
491,397,495,494,496
493,528,495,494,496
493,696,495,494,495
492,827,495,494,493
493,832,496,494,493
494,766,497,494,493
492,586,495,494,494
494,399,495,493,495
493,265,496,494,496
494,210,495,493,496
495,210,493,494,493
493,243,494,494,495
491,331,494,494,495
491,452,493,494,494
493,597,493,494,494
493,768,493,494,493
492,842,494,494,494
492,819,495,494,493
492,694,494,493,494
492,495,496,493,495
495,336,495,493,493
493,235,495,493,497
493,201,493,494,496
493,222,495,494,494
491,275,494,494,494
492,380,494,494,493
493,513,494,494,494
491,669,493,494,493
491,816,493,494,494
493,836,495,494,495
492,781,496,493,495
494,611,495,493,495
494,424,495,493,495
494,278,494,493,493
492,215,494,493,496
493,206,493,494,494
494,237,494,493,494
493,316,492,494,495
494,439,492,494,494
491,578,494,494,493
492,739,491,494,493
492,838,494,494,493
493,822,496,494,495
494,720,495,494,494
494,521,496,493,496
494,361,494,493,494
494,243,494,493,494
493,202,494,494,494
493,217,494,494,494
492,263,494,494,494
493,362,494,494,493
492,493,493,494,493
492,641,493,494,492
492,801,494,494,494
492,839,494,494,494
493,800,495,493,494
494,640,495,494,496
494,450,494,493,495
494,301,495,493,495
494,217,493,494,495
493,200,494,494,494
493,231,494,493,494
493,302,494,494,494
492,423,494,494,493
492,565,494,494,493
491,717,493,494,493
492,835,494,494,493
492,823,495,494,493
494,740,495,493,496
494,558,495,493,495
494,394,495,493,495
494,247,495,493,495
493,200,493,493,494
494,208,494,493,494
492,250,493,494,494
492,345,494,494,494
492,485,494,494,494
493,623,494,494,493
492,778,494,494,494
493,837,495,494,494
492,804,495,494,494
494,663,495,494,495
494,474,496,493,495
494,321,494,493,495
494,222,493,493,494
492,197,494,494,494
493,222,494,494,494
493,283,493,494,494
492,396,493,494,493
493,536,493,494,493
492,689,493,494,494
492,822,494,494,495
493,829,495,494,494
493,760,495,493,495
494,579,496,493,495
492,405,495,494,495
493,259,494,493,494
492,206,494,493,494
493,206,493,494,494
492,242,494,494,493
493,330,493,494,493
492,456,494,494,493
492,600,494,494,494
493,764,494,494,493
492,839,494,494,495
493,814,494,493,495
493,691,496,494,495
494,502,496,494,496
493,345,495,493,494
492,228,494,493,495
493,196,494,493,495
494,218,494,493,493
492,273,495,494,494
492,383,495,494,494
493,522,494,494,493
493,665,494,494,493
491,812,494,494,494
493,832,495,494,494
493,777,496,493,494
493,607,496,494,496
493,430,496,493,495
494,280,495,493,495
491,210,493,494,494
492,201,494,493,493
492,233,494,494,494
492,314,494,494,494
493,440,495,494,494
491,579,494,494,495
492,741,494,494,494
493,837,494,494,494
493,817,496,494,495
494,717,495,494,496
495,522,496,494,495
494,360,495,494,496
495,237,494,493,495
493,199,494,494,494
492,214,494,493,494
492,262,494,493,495
493,363,493,494,494
492,500,494,494,494
492,641,495,494,494
491,802,494,494,494
492,837,495,494,496
492,796,495,494,494
493,638,496,493,496
493,455,494,493,495
494,303,495,493,494
493,217,494,493,495
494,200,494,494,494
493,230,493,494,494
492,302,494,494,494
492,424,493,494,494
492,565,494,494,494
492,718,494,494,494
493,835,495,494,495
493,824,494,494,495
492,741,495,494,496
494,556,496,494,495
495,388,495,493,496
494,247,493,494,495
493,201,495,494,495
493,208,494,494,494
493,252,494,494,494
492,344,495,494,493
491,482,494,494,493
493,623,493,494,494
493,782,495,494,493
492,839,494,494,493
493,807,495,493,494
494,666,496,494,495
495,472,495,494,496
495,320,495,493,495
494,223,495,493,496
493,196,493,494,494
492,223,494,494,495
493,287,494,494,493
492,400,494,494,494
492,540,494,494,494
491,694,495,494,494
492,825,494,494,494
492,830,496,494,495
492,762,496,494,495
493,579,495,493,496
495,407,495,493,496
494,261,495,493,495
495,205,493,493,494
493,205,494,493,494
493,241,493,494,494
493,330,494,494,493
492,464,493,494,493
492,604,493,494,494
491,764,494,494,493
492,841,495,494,495
492,815,494,493,495
493,691,495,493,495
493,501,495,493,496
495,343,495,493,496
493,230,495,494,496
494,195,493,493,494
492,217,494,494,494
493,271,493,494,494
492,382,493,494,493
493,519,493,494,494
492,666,494,494,494
492,813,495,494,494
491,833,494,494,494
493,779,495,493,495
493,607,495,493,496
492,425,495,494,495
494,279,495,493,495
494,207,494,493,495
493,201,493,494,494
494,234,494,494,494
492,315,495,494,494
493,439,492,494,493
493,583,494,494,493
492,743,494,494,494
491,838,495,494,494
492,820,494,494,495
493,716,495,493,496
493,522,494,493,495
493,363,495,493,495
494,236,494,493,494
493,196,495,494,494
493,213,494,494,494
494,261,493,494,494
493,364,494,494,494
493,502,493,494,493
492,645,495,494,494
492,801,495,494,494
493,838,494,494,494
493,797,494,493,495
494,636,495,493,495
494,452,494,493,495
494,301,495,494,495
496,215,493,493,494
494,198,494,493,495
493,227,493,494,495
494,301,494,494,494
492,424,494,494,493
493,562,494,494,494
492,719,494,494,494
491,836,494,494,494
492,824,495,494,494
494,741,496,494,495
494,550,495,493,494
494,386,495,493,496
493,248,494,493,495
493,200,494,493,495
493,207,494,494,495
493,250,493,494,493
492,346,494,494,494
493,481,493,494,494
493,624,493,494,493
491,783,495,494,493
492,840,495,494,495
492,807,494,493,496
493,664,495,493,496
493,476,495,493,495
493,322,495,493,495
493,220,494,493,495
494,195,494,493,495
492,222,494,494,495
493,286,494,494,494
493,404,493,494,493
492,543,494,494,493
493,695,493,494,493
492,825,494,494,494
492,828,494,494,495
492,761,496,494,495
494,578,496,493,495
494,407,495,494,496
494,260,494,494,495
493,202,494,493,496
493,204,494,494,494
492,240,493,494,495
493,330,494,494,493
492,464,494,494,493
492,605,493,494,494
492,765,495,494,494
492,840,495,494,495
493,814,494,493,494
493,690,495,493,495
493,496,495,494,495
494,340,494,493,496
494,227,494,494,494
493,195,493,493,494
492,217,494,493,494
494,273,492,494,493
493,382,492,494,494
492,522,494,494,494
492,668,494,494,493
493,813,494,494,494
493,833,495,494,495
493,774,495,493,496
494,606,495,493,495
494,427,495,493,495
494,280,495,493,495
494,210,493,494,495
493,201,494,494,494
493,233,494,494,495
493,316,493,494,494
492,444,493,494,493
492,585,494,494,492
491,744,494,494,493
492,837,495,494,494
492,819,494,494,495
492,714,495,493,495
493,524,495,493,495
494,364,494,493,495
494,235,494,493,494
492,195,494,494,494
493,211,494,494,494
492,260,493,494,494
493,363,494,494,493
493,502,492,494,493
492,644,493,494,493
491,802,494,494,495
492,838,494,494,494
493,795,495,493,495
493,634,495,493,495
494,450,495,493,495
494,298,494,493,496
493,214,495,494,494
494,197,495,494,493
493,228,495,494,494
493,301,494,494,494
492,424,494,494,494
492,566,493,494,493
492,722,493,494,493
493,835,494,494,494
492,823,494,494,494
493,740,495,494,496
494,550,494,493,495
494,384,494,493,495
494,244,493,493,494
493,200,494,493,493
494,207,493,494,495
492,252,494,494,494
492,347,494,494,493
492,486,493,494,494
492,625,494,494,493
492,782,494,494,494
492,838,494,494,493
493,806,495,493,495
494,660,495,493,495
494,474,495,493,494
493,321,495,493,495
493,220,494,493,494
493,195,494,494,494
492,222,493,494,493
492,287,492,494,494
492,404,493,494,494
492,544,493,494,493
493,696,493,494,493
492,825,494,494,494
493,826,494,494,495
493,760,495,494,496
493,576,495,494,495
493,407,495,493,494
494,259,494,494,494
494,202,493,493,493
494,204,495,494,495
493,240,494,494,495
492,330,493,494,493
493,464,493,494,494
492,607,493,494,492
492,767,494,494,494
493,841,494,494,494
493,814,494,493,494
493,689,495,494,495
494,497,495,493,496
495,341,495,493,495
494,226,494,494,494
492,194,493,494,494
493,218,494,494,494
492,273,494,493,493
493,384,493,494,493
492,525,493,494,494
493,671,493,494,493
492,814,493,494,495
493,833,494,494,494
492,773,495,494,494
494,604,496,493,494
494,427,495,493,496
495,278,494,494,495
494,209,493,494,493
493,202,494,494,494
493,234,494,494,493
492,318,494,494,493
492,446,493,494,494
492,586,493,494,494
491,745,494,494,493
492,838,495,494,494
493,819,495,494,495
493,713,496,493,495
493,521,495,493,496
495,362,495,493,495
494,236,494,493,494
493,196,495,494,495
491,211,493,494,494
493,266,493,494,494
492,400,494,494,492
492,548,493,494,494
492,684,494,494,494
492,786,494,494,495
492,822,494,494,495
492,783,495,494,494
493,648,495,493,494
495,485,496,494,495
494,332,495,493,495
494,207,494,493,493
492,177,494,494,493
494,209,494,493,494
492,302,494,494,493
492,454,494,494,493
492,597,495,494,493
492,726,495,494,494
493,812,495,494,493
493,804,494,494,495
493,726,495,494,495
493,572,496,494,495
493,415,494,494,495
495,267,496,494,496
492,172,493,493,494
494,186,493,494,495
492,239,494,494,493
494,360,492,494,495
492,513,493,494,494
492,655,495,494,494
494,762,495,494,495
491,816,494,494,494
493,786,495,494,494
494,663,495,494,495
494,497,496,493,495
494,347,495,494,495
495,215,494,493,494
493,170,495,494,494
493,200,494,494,494
492,281,494,494,493
492,430,494,494,494
493,574,494,494,494
491,706,495,494,492
492,798,495,494,494
492,806,494,494,494
493,743,495,493,495
493,592,495,494,495
493,433,495,494,496
494,284,494,494,495
495,176,495,493,493
492,179,494,494,495
493,220,494,494,493
492,339,495,494,494
493,492,494,494,494
492,632,494,494,494
492,750,494,494,493
492,816,494,494,495
492,791,494,494,495
492,684,495,493,494
493,522,494,494,495
494,368,495,494,496
494,231,494,493,494
493,167,494,494,494
493,195,494,494,494
492,261,493,494,492
492,406,494,494,493
491,553,494,494,493
492,689,494,494,493
492,786,494,494,494
492,810,494,494,494
493,757,495,494,495
494,615,495,494,495
495,455,495,493,494
495,304,495,493,496
493,187,494,493,494
493,175,494,494,494
493,213,494,494,493
493,319,494,494,495
491,471,494,494,493
493,614,494,494,494
492,736,494,494,493
492,814,495,494,494
492,798,495,494,495
493,704,496,494,495
493,545,496,494,495
494,388,495,493,495
494,248,494,493,494
493,168,493,494,494
493,189,494,493,495
493,246,493,494,493
493,385,494,494,493
492,534,494,494,493
492,672,494,494,493
492,774,495,494,493
492,814,494,494,495
492,775,495,494,495
494,641,496,493,495
494,476,494,494,495
494,325,495,494,495
493,202,494,493,494
492,173,495,494,494
494,207,494,494,494
493,301,493,494,493
492,451,494,494,493
492,594,493,494,493
492,723,494,494,495
492,811,495,494,493
492,801,495,494,495
493,727,495,494,494
493,568,496,494,493
494,412,495,494,495
493,265,494,493,494
493,170,493,494,494
492,184,494,494,493
492,236,494,494,493
492,363,493,494,494
492,513,494,494,493
492,654,493,494,493
493,763,495,494,494
493,815,494,494,494
494,785,495,494,494
492,662,495,493,495
494,498,494,493,495
494,346,496,493,494
494,214,495,493,494
494,170,494,493,493
494,200,494,494,494
493,281,494,494,493
492,429,494,494,493
492,575,494,494,493
491,709,494,494,493
492,801,494,494,494
492,806,495,494,494
492,742,495,494,495
493,591,496,494,494
494,433,495,493,495
493,283,495,493,495
493,177,494,493,494
493,180,493,493,493
493,220,494,494,494
492,339,493,494,494
491,494,494,494,493
492,631,494,494,493
492,750,494,494,494
493,817,494,494,495
492,792,496,494,494
493,681,495,494,494
494,519,496,493,495
493,365,495,493,494
493,228,494,493,494
494,169,494,494,495
493,195,494,494,494
493,265,493,494,493
492,406,493,494,493
492,552,494,494,493
491,688,494,494,493
492,787,495,494,493
492,809,495,494,495
493,756,495,494,494
493,614,496,494,496
494,452,496,494,495
494,303,496,493,496
493,187,494,494,494
493,176,494,494,494
493,213,494,494,493
492,320,494,494,493
492,472,493,494,494
492,612,495,494,493
492,737,494,494,493
492,815,494,494,494
492,796,494,494,494
492,702,495,493,494
493,543,494,494,494
493,385,495,493,494
493,244,494,493,495
493,169,494,493,495
493,191,494,494,494
492,249,493,494,493
491,383,494,494,492
491,532,495,494,493
491,671,494,494,493
492,777,495,494,493
491,813,494,494,494
493,774,495,493,494
493,638,495,493,494
494,474,495,493,494
494,322,495,493,495
494,200,494,493,494
493,175,494,494,494
494,208,494,494,494
492,301,494,494,494
492,451,493,494,494
491,593,494,494,493
491,721,495,494,492
493,811,494,494,494
492,800,495,494,494
493,724,496,494,495
493,566,494,494,495
493,408,495,493,494
494,264,494,493,495
494,174,493,494,494
492,187,494,494,495
493,239,494,494,493
492,365,494,494,492
491,515,494,494,494
493,653,494,494,493
491,759,494,494,493
492,815,495,494,495
492,783,495,493,494
493,660,496,493,494
493,495,495,493,495
493,344,495,493,496
494,212,494,493,494
492,172,494,494,493
492,202,494,494,493
493,283,493,494,493
491,430,494,494,493
492,575,494,494,494
491,707,494,494,494
492,803,494,494,494
492,804,495,494,495
493,741,495,493,495
493,590,495,493,496
493,430,495,493,495
493,282,495,493,497
493,174,494,493,495
492,181,494,494,494
493,223,494,494,493
493,342,494,494,494
492,494,494,494,493
492,634,493,494,493
492,749,493,494,493
492,816,495,494,494
493,790,494,494,495
494,681,496,493,494
493,519,495,493,495
493,364,495,493,494
494,228,494,493,493
492,171,494,493,494
493,196,494,494,493
492,264,494,494,493
492,409,493,494,493
492,555,494,494,494
491,690,494,494,494
492,787,495,494,494
492,808,495,494,493
493,755,495,494,494
493,612,496,493,495
493,450,495,493,495
494,302,495,493,495
494,187,495,493,494
493,178,494,494,494
492,214,494,494,494
493,324,494,494,494
492,474,494,494,493
491,614,494,494,493
492,736,494,494,493
492,814,495,494,494
493,795,495,494,494
494,701,495,493,494
493,540,495,493,494
493,386,494,493,495
492,245,495,493,495
493,170,494,494,495
493,192,495,494,494
492,251,494,494,493
491,387,494,494,493
491,533,494,494,493
491,673,495,494,493
493,777,494,494,493
491,811,494,494,495
493,771,495,494,494
492,635,495,493,496
492,471,496,493,495
493,321,495,493,495
493,197,495,493,495
492,175,494,494,494
493,209,493,494,494
492,303,493,494,493
492,453,493,494,494
492,596,494,494,494
492,724,494,494,493
491,809,495,494,494
492,799,495,494,494
493,723,495,494,494
493,564,494,493,494
494,408,494,493,495
492,261,494,493,495
493,174,494,493,495
492,187,494,494,494
492,239,494,494,493
493,365,493,494,493
493,516,494,494,492
490,654,494,494,494
491,757,493,494,493
491,812,494,494,495
493,783,496,494,494
493,657,495,493,494
491,493,494,494,495
492,339,494,493,494
493,212,495,493,495
492,173,493,494,495
492,202,494,494,494
492,284,493,494,492
491,432,493,494,493
491,576,493,494,493
491,705,493,494,494
492,804,495,494,495
493,803,494,494,494
493,738,495,494,495
493,588,495,493,494
494,428,495,493,495
494,281,495,493,494
494,175,494,493,494
494,182,494,494,493
492,223,493,494,494
492,343,492,494,493
491,495,494,494,492
491,634,494,494,494
492,750,494,494,492
492,816,495,494,494
491,790,495,494,495
493,680,495,493,496
493,517,495,493,495
494,364,495,493,495
493,227,494,494,494
493,168,494,493,495
493,197,493,494,494
493,265,493,494,494
492,409,494,494,493
492,554,493,494,493
491,691,494,494,493
493,787,494,494,495
492,807,494,494,495
493,754,495,493,494
492,610,495,494,496
493,449,494,493,495
493,299,495,493,495
493,184,494,494,494
493,177,493,494,494
493,215,493,494,494
492,324,493,494,494
493,475,493,494,493
492,616,493,494,494
492,736,494,494,495
492,814,494,494,494
491,795,494,494,495
493,701,495,493,495
493,537,494,493,495
493,383,494,493,495
493,243,494,493,495
492,171,495,493,494
493,192,495,494,496
493,249,493,494,495
491,387,493,494,493
491,535,493,494,494
492,671,494,494,493
493,779,494,494,494
493,811,494,494,494
491,773,495,494,495
493,636,495,493,496
495,472,494,493,495
494,319,493,493,494
493,197,494,493,495
494,175,493,494,493
493,209,494,494,494
492,304,493,494,494
492,454,493,494,494
491,595,493,494,494
493,724,493,494,494
491,812,494,494,494
492,801,494,494,494
492,721,494,493,494
493,564,495,493,496
492,407,494,493,494
493,258,494,494,495
493,174,493,493,495
493,187,494,494,494
493,240,494,494,493
493,366,492,494,493
491,515,493,494,494
491,655,492,494,494
491,762,493,494,494
491,813,495,494,494
493,783,495,494,494
493,656,495,493,495
492,494,494,493,494
493,337,494,493,495
494,208,493,493,495
493,173,493,493,494
493,203,492,494,494
493,284,492,494,494
491,434,492,494,493
491,578,493,494,493
491,707,493,494,493
492,802,494,494,493
491,804,494,494,495
493,738,494,493,494
493,586,495,493,496
493,425,493,493,495
493,278,494,493,495
494,173,491,493,494
494,183,494,494,494
492,224,493,494,493
491,346,493,494,493
492,497,493,494,493
492,636,493,494,495
492,749,493,494,494
492,817,495,494,494
492,789,495,493,495
492,676,494,493,495
493,515,495,493,495
493,362,494,493,495
493,226,494,493,495
492,170,494,494,494
493,197,492,494,494
493,268,493,494,493
491,412,493,494,494
491,555,494,494,493
491,691,493,494,493
491,788,493,494,494
492,806,494,494,494
491,752,495,493,495
492,609,495,493,495
493,448,495,493,495
492,299,495,493,496
492,184,494,493,495
492,177,493,494,494
492,215,493,494,494
492,324,494,494,493
491,475,493,494,494
492,617,493,494,493
491,738,493,494,494
493,815,494,494,494
491,794,495,494,495
492,698,494,494,495
493,538,494,493,495
493,383,496,494,495
494,241,494,493,495
492,170,494,494,494
493,192,492,494,494
491,252,491,494,494
493,389,493,494,495
492,536,495,493,493
492,672,494,494,493
492,779,493,494,493
493,811,495,494,496
492,771,495,494,495
492,632,496,493,495
492,469,494,493,495
494,317,495,493,497
494,196,493,494,493
494,175,495,494,494
493,209,494,494,494
491,308,493,494,493
491,457,493,494,493
491,596,492,494,493
491,724,494,494,492
491,811,493,494,494
492,799,495,494,495
493,721,495,493,495
492,563,495,493,494
493,407,495,493,494
493,261,494,493,494
492,174,494,494,495
493,186,493,494,495
492,241,492,494,494
491,367,494,494,494
492,517,494,494,493
491,655,493,494,494
491,762,494,494,493
491,814,495,494,493
491,782,494,494,494
492,655,494,493,495
493,492,495,494,494
492,339,494,493,496
493,210,493,493,494
494,170,493,494,494
492,204,494,494,494
491,288,493,494,494
491,434,494,494,494
491,579,494,494,493
491,709,494,494,493
491,802,495,494,496
492,802,495,494,495
493,737,494,493,494
492,583,494,493,495
493,425,494,493,496
493,275,496,493,494
493,174,493,493,494
493,181,493,494,493
492,225,493,494,494
493,346,494,494,494
492,498,494,494,493
491,636,494,494,493
491,750,493,494,493
492,816,494,494,494
492,790,495,494,495
494,679,495,493,496
493,514,494,493,495
494,359,494,493,496
492,225,494,493,495
492,173,493,494,493
491,198,494,493,494
493,267,493,494,492
490,414,493,494,493
491,556,493,494,492
492,689,494,494,494
492,788,494,494,494
492,807,494,494,493
493,754,494,494,494
493,608,494,493,493
493,446,495,493,494
492,298,494,493,494
493,185,493,494,495
491,179,494,494,495
493,215,493,494,494
493,327,493,494,494
492,478,494,494,493
492,617,493,494,494
492,739,494,494,493
491,815,494,494,493
492,794,494,494,494
492,699,495,493,493
493,536,496,493,495
493,382,494,493,495
493,241,493,493,494
493,170,494,494,494
492,193,495,494,493
491,253,494,494,494
491,389,494,494,493
492,539,493,494,493
491,676,494,494,494
492,779,493,494,493
491,809,494,494,493
491,770,495,494,494
492,632,495,493,495
492,470,494,493,494
492,318,494,493,495
492,195,493,493,494
492,176,493,493,494
492,209,492,494,493
491,307,493,494,493
491,457,493,494,493
491,597,493,494,492
491,724,494,494,493
490,810,494,494,493
492,798,494,494,494
492,718,494,494,494
493,559,494,493,495
493,403,495,493,495
491,257,495,493,494
493,172,494,494,494
492,187,493,494,494
491,239,493,494,493
492,368,492,494,493
492,519,495,494,492
491,657,494,494,492
491,761,493,494,493
491,813,495,494,494
492,782,495,494,495
493,654,494,493,495
494,489,494,493,494
493,338,494,494,495
492,209,494,493,495
492,174,495,494,494
493,203,495,494,494
492,288,494,493,492
491,435,494,494,493
492,579,494,494,494
491,710,495,494,492
491,805,494,494,493
491,801,494,494,493
492,737,495,494,494
492,584,495,494,494
493,425,494,493,495
494,275,495,493,494
493,173,493,493,494
492,182,493,494,493
493,227,493,494,494
492,347,493,494,493
491,498,494,494,493
491,640,494,494,493
490,751,494,494,493
491,816,494,494,494
493,790,493,494,493
493,676,495,493,494
492,511,494,493,494
493,361,494,493,494
493,223,495,493,494
492,170,494,493,493
492,197,493,494,494
491,269,494,494,493
491,413,493,494,493
491,559,493,494,492
491,693,494,494,493
491,789,494,494,493
493,806,494,494,493
492,753,494,494,494
492,606,494,493,494
493,444,494,493,493
492,293,495,493,494
493,183,494,494,494
492,179,494,494,495
493,216,493,494,493
491,326,493,494,493
491,479,494,494,493
491,619,493,494,492
490,740,494,494,493
492,816,494,494,494
492,795,495,494,494
493,697,494,493,494
492,535,495,494,494
493,336,494,493,494
492,212,494,493,494
493,175,495,494,494
493,205,494,494,492
491,253,494,494,492
492,356,494,494,493
492,467,494,494,492
490,653,493,494,492
490,805,494,494,493
491,829,494,494,493
493,782,494,494,494
494,618,495,493,494
491,415,495,493,494
493,277,495,494,494
493,215,494,494,494
492,201,494,494,493
493,231,494,494,493
491,309,494,494,493
491,417,492,494,494
491,540,494,494,492
491,738,494,494,492
491,840,495,494,494
492,825,494,494,493
492,731,494,493,495
492,533,495,494,494
493,343,493,493,493
494,249,495,493,494
492,205,494,493,494
492,217,494,494,494
493,260,495,493,493
491,355,495,494,493
491,507,495,494,493
491,652,493,494,492
491,792,495,494,493
492,838,494,494,493
492,802,496,494,495
493,665,495,493,495
494,454,494,493,494
493,312,493,493,493
493,213,494,493,494
492,194,494,494,493
494,221,494,494,494
492,289,494,494,494
492,410,493,494,492
491,561,494,494,493
491,705,494,494,492
491,828,494,494,492
491,824,494,494,495
492,753,495,493,494
493,567,495,493,493
492,403,495,493,494
493,258,494,493,494
493,196,494,493,494
492,203,493,493,494
493,244,493,494,493
492,360,494,494,492
492,511,494,494,492
490,649,494,494,493
491,762,493,494,493
492,826,495,494,494
491,798,495,494,494
493,682,496,493,493
493,519,494,494,494
493,367,495,493,494
493,230,494,493,493
493,172,494,493,493
493,201,495,494,493
492,271,494,494,493
492,407,494,494,493
492,545,494,494,492
491,677,495,494,491
491,800,494,494,493
492,815,495,494,495
493,755,495,494,494
492,587,495,493,495
494,416,495,493,494
493,264,495,493,495
493,193,494,493,494
492,193,493,494,493
494,229,494,494,493
491,314,494,494,493
492,444,495,494,492
491,588,494,494,492
491,751,494,494,492
492,835,494,494,493
491,813,494,494,494
492,699,496,493,494
493,503,496,493,494
493,342,495,493,495
493,229,493,493,493
493,195,494,493,493
492,214,494,493,494
492,267,494,494,493
492,371,494,494,493
492,510,494,494,492
492,656,494,494,493
491,808,495,494,493
491,835,495,494,493
493,786,495,494,494
492,620,496,494,494
492,447,495,493,493
493,296,494,493,494
493,208,494,493,493
493,196,494,493,493
492,228,494,494,493
493,310,494,494,492
491,448,494,494,492
491,585,494,494,492
492,724,495,494,492
491,831,494,494,494
492,816,495,494,494
493,723,496,494,494
494,550,495,494,494
493,389,495,493,494
494,242,495,494,495
491,188,494,494,493
493,204,494,493,494
492,252,494,494,492
492,359,493,494,493
492,503,494,494,493
492,641,495,494,493
491,787,495,494,493
493,833,493,494,494
493,797,495,494,494
493,644,496,493,494
493,464,496,493,494
494,308,496,493,494
494,213,495,493,494
493,193,494,493,493
492,221,493,493,494
493,289,494,494,493
492,409,493,494,494
493,553,495,494,492
492,709,494,494,493
492,831,494,494,493
492,825,494,494,494
493,746,495,493,493
493,559,494,493,494
494,390,496,493,494
494,249,495,493,493
494,200,495,493,494
492,205,494,494,493
493,245,493,494,493
492,339,493,494,492
492,475,494,494,493
492,616,494,494,492
490,775,494,494,493
492,839,495,494,493
492,808,495,494,495
492,674,496,493,495
494,491,496,494,494
493,335,495,493,494
493,222,494,493,493
491,193,495,494,493
492,218,495,494,494
493,279,494,494,493
491,402,494,494,492
491,540,495,494,493
491,678,494,494,491
492,816,494,494,492
492,827,494,494,494
493,764,496,494,495
494,588,496,494,495
493,417,495,494,494
494,267,496,494,494
493,203,495,493,493
493,199,493,493,493
494,235,494,494,494
493,322,494,494,492
492,450,493,494,493
492,593,494,494,492
491,756,494,494,492
492,838,493,494,494
492,817,494,494,493
493,701,495,494,494
494,507,496,493,493
494,347,495,493,494
494,231,495,493,493
492,194,494,493,493
493,216,494,494,492
493,273,494,494,493
491,412,494,494,492
493,557,494,494,492
492,693,494,494,492
492,791,495,494,493
492,821,494,494,494
492,777,494,494,494
493,634,495,494,494
494,471,496,493,494
494,319,494,493,494
493,198,495,494,494
493,179,493,494,494
493,213,494,494,494
492,312,494,494,492
492,464,494,494,492
491,605,495,494,492
491,732,495,494,492
492,814,494,494,493
493,800,494,494,493
493,719,495,494,494
493,557,496,494,495
493,403,496,493,494
493,259,495,493,494
493,172,494,493,493
493,189,493,493,492
493,241,494,494,493
492,374,494,494,492
492,524,494,494,492
492,663,494,494,492
493,768,494,494,492
492,816,496,494,493
492,781,496,494,493
494,651,496,494,494
494,488,496,494,493
494,337,496,494,495
494,210,494,494,493
493,170,494,494,494
494,203,493,494,493
493,290,494,494,492
491,439,495,494,493
492,584,494,494,492
492,715,494,494,492
493,807,494,494,492
493,805,494,494,494
492,734,494,494,494
494,582,495,494,495
494,423,495,494,495
494,274,495,493,494
494,172,495,493,494
493,183,494,493,492
493,228,494,493,493
492,351,495,494,491
492,505,494,494,491
492,644,494,494,492
492,756,494,494,494
491,816,495,494,493
491,789,495,494,493
492,674,496,494,494
493,509,495,494,494
493,358,495,494,495
494,222,495,493,494
494,168,495,493,492
492,197,494,493,493
493,271,494,494,492
492,419,493,494,493
492,563,493,494,492
492,698,493,494,492
492,790,494,494,493
492,808,495,494,493
493,750,496,494,494
493,604,496,494,494
494,443,495,494,494
494,293,495,494,493
494,184,494,494,494
493,177,493,494,494
493,217,494,494,492
493,331,494,494,493
492,482,493,494,492
493,624,493,494,492
492,743,495,494,492
491,813,496,494,493
492,795,495,494,494
493,693,495,494,494
493,533,494,494,494
494,379,495,494,494
493,240,495,493,493
492,166,494,493,493
492,192,494,494,493
492,255,494,494,493
493,395,494,494,492
492,542,494,494,493
491,681,494,494,493
492,782,494,494,492
493,811,495,494,494
493,766,495,494,494
493,627,496,494,495
492,463,495,493,494
494,315,495,493,493
493,194,495,494,493
493,175,494,494,493
493,211,493,494,493
492,309,494,494,493
491,462,494,494,492
492,604,495,494,492
492,729,494,494,493
491,811,494,494,493
492,799,495,494,494
493,717,496,494,495
494,556,494,494,495
493,400,496,493,494
494,257,495,493,493
494,171,495,494,494
493,189,493,493,493
493,241,494,494,493
492,374,494,494,492
492,526,494,494,492
492,664,494,494,493
492,767,494,494,493
492,814,496,494,493
493,779,496,494,494
494,651,496,494,494
493,487,495,494,493
493,336,495,493,493
494,210,495,493,493
493,172,495,493,492
492,204,494,494,494
492,292,494,494,493
493,442,494,494,493
492,585,494,494,492
492,714,494,494,493
491,806,494,494,493
492,802,495,494,494
493,732,495,494,494
492,579,494,494,495
494,422,495,494,494
493,275,495,494,493
493,173,494,493,494
493,182,494,494,494
494,228,495,494,492
492,352,493,494,492
492,504,494,494,493
492,644,494,494,492
492,756,494,494,493
492,815,496,494,493
492,788,495,494,494
493,672,495,494,494
492,509,496,494,494
494,358,495,493,494
493,224,495,493,494
493,168,494,493,493
493,199,494,493,493
493,272,494,494,493
493,419,493,494,492
492,563,494,494,492
492,698,495,494,493
491,792,495,494,493
492,806,495,494,493
492,750,495,494,494
494,601,495,494,494
494,442,495,493,495
493,293,495,493,494
493,183,495,494,494
493,181,494,494,493
492,217,493,494,493
492,331,493,494,493
493,486,493,494,491
493,625,494,494,493
492,744,494,494,493
492,813,494,494,494
492,793,495,494,494
493,691,495,494,494
493,531,495,493,494
493,374,496,494,495
495,236,494,493,494
493,170,493,494,494
492,193,494,494,494
493,258,495,494,493
493,398,493,494,493
492,544,494,494,493
491,680,494,494,492
492,783,495,494,492
492,809,495,494,493
492,766,495,494,494
494,624,495,494,495
494,463,495,494,494
493,313,494,494,495
494,193,494,493,492
492,177,495,494,494
492,212,494,494,493
493,313,494,494,492
492,463,494,494,492
491,602,493,494,492
492,728,494,494,493
492,812,495,494,493
493,799,496,494,493
493,713,496,494,494
494,555,496,494,495
493,399,495,494,494
494,253,495,493,493
493,171,494,494,494
492,189,494,494,493
492,242,493,494,493
492,375,494,494,493
492,524,494,494,493
492,662,495,494,493
491,768,494,494,493
493,812,494,494,494
492,779,495,494,494
493,649,496,494,494
495,485,496,494,494
493,332,496,494,493
494,207,494,494,495
492,174,494,494,494
494,207,494,493,494
491,291,493,494,493
492,442,494,494,493
491,584,494,494,492
492,714,494,494,494
492,807,493,494,494
492,800,495,494,493
493,731,495,494,494
494,578,496,494,494
494,418,496,494,494
494,273,495,494,494
494,175,494,494,494
493,183,493,494,493
493,230,493,494,493
492,355,493,494,492
492,505,494,494,492
492,643,495,494,492
492,755,495,494,493
492,816,496,494,493
493,787,496,494,494
493,669,497,494,494
493,507,495,494,494
494,356,494,494,495
493,223,495,494,493
493,171,494,494,493
493,199,494,494,493
493,276,493,494,492
492,419,494,494,492
491,563,494,494,492
492,697,494,494,493
492,792,495,494,493
492,805,495,494,493
493,750,495,494,494
493,601,496,494,495
493,440,496,494,495
493,291,495,493,494
494,181,494,494,493
494,180,493,493,493
493,220,493,494,493
492,332,493,494,492
491,483,494,494,493
492,625,494,494,492
492,744,495,494,493
492,815,495,494,493
492,794,496,494,493
493,693,496,494,495
494,530,496,494,494
494,375,495,493,494
493,234,494,494,494
493,170,493,494,492
492,195,494,494,493
492,259,494,494,492
491,398,493,494,492
492,545,494,494,493
493,681,494,494,493
492,782,495,494,492
493,809,495,494,493
494,765,495,493,493
494,625,496,494,494
493,461,495,493,494
494,311,494,494,494
495,194,494,494,493
493,177,495,493,494
493,213,494,494,492
492,313,493,494,492
491,465,494,494,492
491,604,494,494,493
492,729,494,494,492
491,812,494,494,493
492,798,494,494,494
492,713,496,494,494
493,553,496,494,494
494,398,495,494,495
494,254,495,494,494
494,173,494,494,493
493,189,494,494,494
492,245,493,494,491
493,376,494,494,492
492,525,494,494,491
493,663,494,494,492
492,769,494,494,493
492,813,495,494,493
492,778,495,494,493
493,647,496,493,494
493,485,495,494,494
494,333,495,493,494
493,206,493,493,494
493,174,494,493,493
494,207,494,493,492
493,294,493,494,493
492,443,494,494,492
493,587,494,494,492
492,716,494,494,492
492,807,494,494,494
492,802,494,494,494
493,732,496,494,494
494,577,495,494,494
493,421,495,493,494
493,271,495,494,494
493,174,494,494,493
493,186,494,493,493
493,230,494,494,492
493,355,494,494,492
492,507,494,494,491
492,646,494,494,492
492,755,494,494,492
492,815,494,494,493
492,786,494,494,493
494,670,495,494,495
494,504,495,494,494
494,352,496,494,494
493,221,495,494,493
493,172,494,493,492
493,200,493,494,493
492,276,494,494,491
492,421,494,494,492
491,566,495,494,491
492,699,494,494,492
492,794,495,494,492
492,806,495,494,494
492,749,495,494,494
494,599,495,494,494
493,439,495,494,493
494,290,495,494,493
492,181,494,493,493
493,179,494,494,493
493,219,494,494,493
493,333,494,494,492
492,484,494,494,491
492,625,494,494,492
492,744,494,494,492
492,816,495,494,493
492,793,495,494,494
494,691,496,494,494
493,529,495,494,494
494,375,496,493,493
494,235,495,493,494
493,169,494,494,494
492,194,494,494,493
492,257,494,494,493
492,396,494,494,491
492,544,494,494,493
491,680,495,494,492
492,785,495,494,492
493,810,496,494,493
492,767,496,494,494
493,625,496,494,495
493,462,496,494,493
494,309,496,493,494
493,192,494,494,494
493,177,494,494,493
493,212,494,494,492
493,312,493,494,492
492,465,495,493,492
492,606,493,494,492
492,730,494,494,492
491,814,494,494,493
493,799,495,494,494
493,713,496,494,493
494,553,494,494,494
493,395,495,494,494
494,253,495,493,494
493,171,494,493,493
492,189,493,494,493
492,242,494,494,492
493,376,493,494,492
492,526,494,494,492
491,664,494,494,492
491,769,494,494,492
493,815,495,494,493
492,779,495,494,494
493,646,496,494,494
493,483,495,493,495
493,331,495,494,494
493,204,494,493,494
494,172,494,494,493
493,205,495,493,493
493,294,495,494,492
492,441,494,494,492
492,586,494,494,492
491,716,494,494,493
492,809,494,494,493
493,802,495,494,494
493,733,496,494,494
492,576,496,493,494
493,419,495,494,494
493,271,495,494,494
494,170,494,493,493
493,183,494,494,493
493,230,493,494,492
492,354,494,494,493
492,506,493,494,492
492,646,494,494,492
492,756,494,494,493
493,815,494,494,494
492,787,496,493,493
492,670,496,494,493
493,505,496,493,495
493,350,495,493,494
495,217,494,493,494
492,170,494,494,493
493,199,494,493,493
492,274,494,494,492
492,420,494,494,493
492,566,494,494,492
491,700,495,494,493
491,795,495,494,492
493,807,495,494,493
493,750,495,494,493
493,600,496,494,495
493,438,495,494,493
494,289,495,494,494
494,179,494,494,494
492,179,493,493,493
493,218,494,494,492
493,333,493,494,492
492,450,493,494,491
493,567,493,494,492
492,747,493,494,491
491,832,493,494,492
491,808,496,494,496
493,684,496,494,494
494,484,496,494,494
494,302,494,494,493
494,229,493,494,494
492,195,494,494,495
492,215,494,494,493
492,269,493,494,493
492,373,493,494,493
492,482,492,494,492
491,668,492,494,492
492,815,493,494,492
491,836,494,494,493
493,782,495,494,493
494,612,494,494,495
493,408,495,494,494
494,276,494,493,492
494,217,494,493,494
493,205,494,494,493
492,236,494,494,491
494,316,493,494,493
492,427,493,494,492
492,555,494,494,491
491,747,494,494,492
492,845,494,494,493
492,826,495,494,493
493,735,496,494,495
494,524,496,494,494
494,378,495,494,494
493,239,494,493,493
493,196,493,494,493
493,212,494,494,493
496,255,493,494,493
495,359,494,494,492
492,504,494,494,491
492,653,494,494,492
492,798,494,494,492
492,837,494,494,492
493,798,495,494,494
494,638,496,494,493
493,448,494,494,494
494,304,495,493,493
493,215,493,493,494
493,198,494,493,493
493,228,495,494,492
493,299,494,494,492
492,427,494,494,492
491,571,493,494,491
492,712,495,494,493
492,831,494,494,493
493,822,495,494,493
492,743,495,494,494
494,579,495,494,493
493,423,494,494,494
493,277,494,493,494
493,185,494,494,492
493,196,495,494,493
494,242,493,494,492
492,365,494,494,493
492,515,495,494,493
492,652,494,494,492
492,763,494,494,493
491,821,494,494,493
492,791,496,494,494
492,663,496,494,494
493,492,496,493,493
493,335,495,494,493
494,203,495,493,493
492,181,494,494,493
493,209,495,494,492
492,272,496,494,493
492,396,494,494,492
492,535,493,494,492
492,681,495,494,493
491,815,494,494,493
492,822,495,494,493
493,759,495,494,493
493,575,494,494,495
494,399,495,493,494
494,254,495,493,493
493,202,494,493,494
492,201,495,494,493
492,238,495,494,493
492,326,493,494,492
492,450,493,494,492
492,593,493,494,491
491,762,494,494,492
493,840,496,494,493
493,815,496,494,493
494,693,496,494,494
495,496,494,494,494
494,340,495,493,494
493,231,494,493,494
494,197,494,494,493
493,218,494,494,493
493,272,494,494,493
492,386,494,494,491
491,527,493,494,492
491,664,493,494,491
492,811,494,494,491
492,832,495,494,493
492,778,495,494,494
492,617,496,494,494
493,446,494,494,494
492,294,494,493,495
492,203,493,493,494
492,196,494,494,492
492,228,494,494,493
492,315,494,494,492
491,455,494,494,492
492,589,494,494,491
492,730,494,494,491
491,831,495,494,492
493,814,495,494,493
493,712,495,493,494
493,534,496,494,494
493,373,495,494,494
494,229,494,493,493
493,192,493,494,493
493,207,494,494,493
492,257,494,494,493
493,360,494,494,492
492,498,494,494,492
491,639,493,494,492
491,797,494,494,491
491,835,494,494,492
493,794,495,494,493
492,635,495,494,495
493,448,495,493,494
494,297,495,493,493
493,214,494,494,494
492,198,494,494,493
493,228,494,494,492
492,299,494,494,493
492,417,494,494,492
491,560,493,494,492
491,719,494,494,491
491,833,495,494,493
492,824,494,494,493
492,740,494,494,493
494,552,494,494,493
494,387,495,494,493
494,246,494,493,493
493,200,495,494,494
492,209,494,493,494
492,251,494,494,492
492,346,492,494,492
492,488,493,494,492
491,626,494,494,492
491,778,494,494,492
493,838,495,494,493
492,805,494,494,494
493,663,496,493,495
492,482,495,494,493
495,328,495,493,493
493,219,494,493,493
493,194,495,494,494
493,219,494,493,492
492,285,494,494,492
492,405,494,494,492
491,543,494,494,492
492,687,494,494,492
491,820,495,494,492
492,826,495,494,493
493,761,495,493,493
494,579,496,494,494
493,408,495,494,494
495,259,494,494,493
493,203,494,493,493
494,202,494,493,493
493,240,493,494,492
493,328,495,494,492
491,457,494,494,492
492,600,494,494,491
491,764,494,494,492
491,840,495,494,492
493,813,495,494,493
493,691,496,494,494
493,498,495,494,494
493,342,494,493,494
494,229,493,493,494
493,194,493,493,493
493,217,494,494,493
492,272,493,493,492
492,383,493,494,492
492,522,494,494,491
491,665,495,494,492
492,812,494,494,492
492,833,494,494,492
493,778,495,494,494
493,609,495,493,494
494,433,496,493,494
493,282,494,493,493
493,208,494,494,494
492,200,494,493,493
492,232,493,494,493
492,314,494,494,492
492,446,494,494,492
491,585,494,494,493
491,737,494,494,491
491,835,494,494,493
492,817,495,494,494
492,714,496,494,494
494,525,495,494,494
493,365,494,494,494
493,235,494,494,493
493,195,493,493,492
494,210,494,494,493
492,259,494,494,492
492,363,494,494,493
492,500,494,494,492
492,641,494,494,492
492,797,494,494,492
492,836,494,494,493
492,796,495,493,494
492,636,495,494,495
493,451,495,494,495
493,300,495,493,494
493,212,494,493,493
493,197,494,494,493
493,227,494,494,492
493,299,493,494,493
492,420,494,494,492
491,562,493,494,492
492,718,494,494,492
491,835,494,494,492
493,824,494,494,493
493,742,495,494,494
494,554,495,494,494
493,388,495,494,495
494,244,495,493,495
493,199,494,493,493
494,206,495,494,492
492,249,494,494,492
