Sensor0,Sensor1,Sensor2,Sensor3,Sensor4

494,493,495,493,486
494,493,495,493,486
494,493,495,493,486
494,493,494,492,487
494,493,495,493,487
494,493,495,493,488
494,493,494,493,489
494,493,495,493,489
494,493,495,492,489
494,493,495,493,489
494,493,495,493,488
494,493,495,493,488
494,493,494,493,487
494,493,494,493,486
494,493,495,492,486
494,493,495,493,486
494,493,495,493,487
494,493,494,493,488
493,493,495,493,489
494,493,495,493,489
494,493,495,492,489
494,493,495,492,489
494,493,495,492,489
494,493,494,493,488
494,493,495,493,487
494,493,494,494,487
494,493,495,493,486
494,493,495,492,486
494,493,495,491,486
494,493,494,494,488
494,493,495,493,488
494,493,495,493,489
493,493,495,493,489
494,493,495,493,489
494,493,495,493,489
494,493,495,493,488
494,493,494,493,488
494,493,495,493,487
494,493,494,492,486
494,493,495,493,486
494,493,495,493,486
494,493,494,493,487
494,493,495,493,488
494,493,495,493,489
494,493,495,493,489
494,493,495,493,489
494,493,494,493,489
494,493,495,493,489
494,493,495,493,488
494,493,495,493,487
494,493,495,493,487
494,493,495,493,486
494,493,495,493,486
494,493,495,493,487
494,493,495,493,487
494,493,495,492,488
494,493,495,493,489
494,493,495,493,489
494,493,495,493,489
493,493,495,494,489
494,492,495,494,489
494,492,495,493,488
494,493,495,491,487
494,493,495,491,486
494,493,495,493,486
494,493,495,492,486
494,493,495,492,487
494,493,495,492,487
494,493,495,492,488
494,493,495,492,489
494,493,494,493,489
494,493,495,492,489
494,493,495,492,489
494,493,495,493,488
494,493,495,493,487
494,493,495,493,487
494,493,495,493,486
494,493,495,492,486
494,493,495,493,486
494,493,495,493,487
494,493,495,493,488
494,493,495,492,489
494,493,495,493,489
494,493,495,493,489
494,493,495,493,489
494,493,494,492,489
494,493,495,492,488
494,493,495,493,487
494,493,495,493,487
494,493,495,493,486
494,493,495,493,486
494,493,495,493,487
494,493,495,493,488
494,493,495,493,488
494,493,495,493,489
494,493,495,493,489
494,493,495,492,489
494,493,494,493,489
494,493,495,493,488
494,493,495,493,488
494,493,495,493,487
494,493,495,493,486
493,493,495,493,486
494,493,495,493,487
494,493,495,493,487
494,493,495,493,488
494,493,495,493,489
494,493,495,493,489
494,493,495,493,489
494,493,495,492,489
494,493,495,492,489
495,493,495,493,488
494,493,495,493,487
494,493,495,493,487
494,493,495,491,486
494,493,495,491,486
494,493,495,494,487
494,493,495,493,487
493,493,495,493,488
494,493,495,493,489
494,493,495,493,489
494,493,495,493,489
494,493,495,493,489
494,493,495,493,488
494,493,495,493,488
494,493,495,493,487
494,493,495,493,486
494,493,495,493,486
494,493,495,493,486
494,493,495,493,487
494,493,495,493,488
494,493,495,493,488
494,493,495,493,489
493,493,495,493,489
494,493,495,493,489
494,493,494,493,489
494,493,495,493,488
494,493,495,493,487
494,493,495,493,487
494,493,495,492,486
494,493,495,493,486
494,493,495,493,487
494,493,495,493,487
494,493,494,493,488
494,493,495,493,489
494,493,494,493,489
494,493,495,493,489
494,493,495,492,489
494,493,494,493,488
494,493,495,493,488
494,493,495,494,487
494,493,495,491,486
494,493,495,492,486
494,493,495,493,486
493,493,495,493,487
493,493,495,493,488
494,493,495,493,489
494,493,495,491,489
494,493,495,492,489
494,493,495,493,489
494,493,495,492,489
494,493,495,493,488
494,493,495,493,487
494,493,495,492,487
494,494,495,493,486
494,493,495,492,486
494,493,495,493,486
494,493,495,493,487
493,493,495,493,488
494,493,494,493,489
494,493,494,492,489
494,493,495,492,489
494,493,495,493,489
494,493,495,493,489
494,493,495,493,488
494,493,495,492,487
494,493,495,493,487
494,493,494,493,486
494,493,495,493,486
494,493,495,493,487
494,493,495,493,488
494,493,495,493,489
494,493,495,493,489
494,493,495,493,489
494,493,495,493,489
494,493,495,493,489
494,493,495,493,488
494,493,495,493,488
494,493,495,493,487
494,493,495,493,486
494,493,495,492,486
494,494,495,492,486
494,493,494,493,487
494,493,495,493,488
494,493,495,493,489
494,493,495,493,489
494,493,495,493,490
494,493,495,493,489
494,493,494,493,489
494,493,495,493,488
494,493,495,493,487
494,493,495,493,487
494,493,495,493,486
494,493,495,493,486
494,493,495,493,487
494,494,495,492,487
494,493,495,492,488
494,493,495,493,489
494,493,495,493,489
494,494,495,491,489
494,494,495,492,489
494,493,495,494,489
494,493,495,492,487
494,493,495,493,487
494,493,495,493,486
493,493,495,493,486
494,493,495,493,486
494,493,495,493,487
494,493,495,493,488
494,493,495,493,489
493,493,495,493,489
493,493,495,493,490
494,493,495,493,489
494,493,495,493,489
494,493,495,493,488
494,493,495,493,487
494,493,495,493,487
494,493,495,492,486
494,493,495,493,486
494,493,495,493,487
494,493,495,493,487
494,493,495,493,488
494,493,495,493,489
494,493,495,494,489
494,493,495,492,489
494,493,495,493,489
494,493,495,493,488
494,493,495,492,488
494,493,495,493,487
494,493,495,492,486
494,493,495,493,486
494,493,495,492,486
494,493,495,492,487
494,493,495,492,488
494,494,495,493,488
494,493,495,493,489
494,493,495,492,489
494,493,494,491,489
494,493,495,494,489
494,493,495,494,488
494,493,495,492,487
494,493,495,491,487
494,493,495,492,486
494,493,495,492,486
494,493,495,492,486
494,493,495,493,487
494,493,495,493,488
494,493,495,493,489
494,493,495,492,489
494,493,495,493,489
494,493,495,493,489
494,493,495,493,489
494,493,495,492,488
494,493,495,493,487
494,493,495,493,486
494,493,495,492,486
494,493,495,493,486
494,493,495,493,486
494,493,495,492,487
494,493,495,493,488
494,493,495,492,489
494,494,495,492,489
493,493,495,492,489
494,493,495,492,489
494,493,495,493,488
494,493,495,493,487
493,493,495,493,487
494,493,495,493,486
494,493,494,493,486
494,493,495,492,486
494,493,495,492,487
494,493,495,492,488
494,493,495,491,488
494,494,495,491,488
494,493,495,493,489
494,493,495,493,489
494,493,495,493,488
494,493,495,493,488
494,493,495,493,487
494,493,495,493,486
494,493,495,493,486
494,493,495,493,486
494,493,495,493,486
494,493,495,492,487
494,493,495,492,488
494,494,495,492,489
494,493,495,493,489
493,493,495,493,489
494,493,495,492,489
494,494,495,492,488
494,493,495,492,487
494,493,495,493,487
494,493,495,494,486
494,493,495,492,486
494,493,495,493,486
494,493,495,493,487
494,493,495,492,488
494,493,495,493,488
494,493,495,493,489
494,493,495,492,489
494,493,495,491,489
494,493,495,493,489
494,493,495,493,488
494,493,495,492,487
494,493,495,493,487
494,493,495,493,486
494,493,495,493,486
494,494,495,493,487
494,493,495,493,487
494,494,495,492,488
494,493,495,492,489
494,493,495,493,489
494,493,495,493,489
494,493,495,493,489
494,493,495,491,488
494,493,495,492,487
494,493,494,493,487
494,494,495,492,486
494,493,495,492,486
494,493,495,493,486
494,493,495,493,487
494,493,495,493,488
494,493,495,493,488
494,493,495,493,489
494,493,495,493,489
494,493,495,493,489
494,493,495,493,489
494,493,495,493,488
494,493,495,493,487
494,493,495,493,487
494,493,495,493,486
494,493,495,493,486
494,493,495,493,486
494,493,495,493,487
494,493,495,493,488
494,493,495,493,489
494,493,495,493,489
494,493,495,493,489
494,493,495,493,489
494,493,495,493,489
494,493,495,493,488
494,493,495,494,487
494,493,495,493,487
494,493,495,491,486
494,493,495,493,486
494,493,495,493,487
494,494,495,493,488
494,493,495,493,488
494,493,495,493,489
494,493,495,493,489
494,493,495,493,489
494,493,495,493,489
494,493,495,493,488
494,493,495,493,487
494,493,495,493,487
494,493,495,493,486
494,493,495,493,486
494,494,495,493,486
494,493,495,493,487
494,494,495,493,488
494,493,495,493,489
494,493,495,493,489
494,493,495,493,489
494,493,495,493,489
494,493,495,493,489
494,493,495,493,488
494,493,495,493,487
494,493,495,493,487
494,493,495,493,487
494,493,495,493,487
494,494,495,492,487
494,493,495,491,487
494,493,495,494,489
494,493,495,493,489
494,493,495,494,490
494,493,495,493,489
494,493,495,495,490
494,493,495,492,488
494,494,495,492,488
494,493,495,493,487
494,493,495,493,487
494,493,495,492,486
494,493,495,493,487
493,493,495,492,487
494,493,495,493,488
494,493,495,492,489
494,493,495,492,489
494,493,494,492,489
494,493,495,493,489
494,493,495,493,489
494,493,495,493,488
494,494,495,493,487
494,493,495,492,487
494,494,495,493,486
494,493,495,493,486
494,494,495,493,487
494,493,495,493,487
494,493,495,493,488
494,493,495,493,489
494,493,495,493,489
494,493,495,493,489
494,493,495,493,489
494,493,495,493,488
494,493,495,493,488
494,493,495,493,487
494,493,495,493,487
494,493,495,493,486
494,493,495,493,486
494,493,495,492,487
494,493,495,493,488
494,493,495,493,489
494,493,495,493,489
494,493,495,493,489
494,494,495,493,489
494,494,495,492,489
494,493,495,493,488
494,493,495,492,487
494,493,495,493,487
494,493,495,493,486
494,493,495,493,486
494,494,495,493,487
494,493,495,493,487
494,493,495,493,488
494,494,495,493,489
494,493,495,493,489
494,493,495,493,490
494,493,495,493,489
494,494,495,493,489
494,493,495,493,488
494,493,495,493,487
494,493,495,493,487
494,493,495,493,486
494,494,495,491,486
494,494,495,493,487
494,493,495,493,488
494,493,495,493,489
493,493,495,494,490
493,493,495,493,490
494,494,495,492,490
494,493,495,493,489
494,494,495,494,489
494,493,495,492,488
494,493,495,492,487
494,494,495,490,486
495,494,495,494,486
494,494,495,493,487
494,493,495,493,487
494,494,495,493,488
494,493,495,493,489
494,493,495,493,489
494,493,495,493,490
494,494,495,493,489
494,493,495,493,489
494,493,495,493,488
494,493,495,494,488
494,493,495,492,487
494,494,495,493,486
494,494,495,493,487
494,494,495,493,487
494,494,495,493,488
494,494,495,493,488
494,494,495,493,489
494,493,495,493,490
494,493,495,493,489
494,494,495,493,489
494,494,495,493,489
494,493,495,493,488
494,493,495,493,487
494,493,495,493,487
494,494,495,493,486
494,494,495,493,487
494,494,495,493,487
494,494,495,493,488
494,493,495,493,489
494,494,495,493,489
494,493,495,493,489
494,493,495,493,489
494,493,495,493,489
494,493,495,493,488
494,493,495,493,487
494,493,495,493,487
494,494,495,493,486
494,493,495,493,486
494,494,495,493,487
494,493,495,493,487
494,493,495,493,488
494,493,495,493,489
494,494,495,493,489
494,493,495,493,489
494,493,495,493,489
494,494,495,493,489
494,494,495,492,488
494,494,495,493,487
494,493,495,492,486
494,493,495,492,486
494,493,495,493,486
494,493,495,493,487
494,493,495,493,488
494,494,495,493,489
494,494,495,493,489
494,493,495,493,489
493,493,495,493,489
494,493,495,493,489
494,493,495,493,488
494,493,495,493,488
494,494,495,493,487
494,493,495,493,486
494,493,495,493,486
494,493,495,494,487
494,493,495,494,487
494,493,495,491,488
494,494,495,492,489
494,493,495,494,490
494,493,495,494,490
494,493,495,494,490
494,494,495,492,489
495,494,495,493,488
494,494,495,493,487
494,493,495,493,487
494,494,495,493,486
494,493,495,493,486
494,493,495,493,487
494,494,495,492,488
494,494,495,493,488
494,494,495,493,489
494,493,495,492,489
494,493,495,491,489
495,494,495,494,489
494,493,495,494,488
494,493,495,493,488
494,493,495,492,487
494,493,495,492,486
494,493,495,493,486
494,494,495,493,486
494,494,495,493,487
494,494,495,493,488
494,493,495,493,489
494,494,495,493,489
494,493,495,493,489
494,494,495,493,489
494,494,495,493,489
494,493,495,493,488
494,494,495,493,487
494,493,495,493,487
494,493,495,493,486
494,493,495,493,486
494,493,495,493,487
494,493,495,493,488
494,493,495,493,488
494,493,495,493,489
494,493,495,493,489
494,493,495,493,489
494,493,495,493,489
494,493,495,493,488
494,493,495,494,488
494,493,495,493,487
494,493,495,493,486
494,493,495,493,486
495,494,495,493,486
494,493,495,493,487
494,493,495,493,488
494,493,495,493,489
494,493,495,493,489
494,493,495,493,489
494,493,495,493,489
494,494,495,493,489
494,493,495,493,488
494,493,495,493,487
494,493,495,493,487
494,493,495,493,486
494,494,495,493,486
494,493,495,493,487
494,493,495,493,487
494,493,495,493,488
494,493,495,493,489
494,493,495,493,489
494,493,495,493,489
494,493,495,493,489
494,493,495,492,489
494,493,495,493,488
494,493,495,493,487
494,493,495,493,487
494,493,495,493,486
494,493,495,493,487
494,493,495,493,487
493,493,495,492,488
494,493,495,494,489
494,493,495,493,489
494,493,495,493,490
494,494,495,492,489
494,494,495,493,489
494,493,495,493,488
494,493,495,493,487
494,493,495,493,487
494,493,495,493,486
494,493,495,493,486
494,493,495,493,487
494,493,495,492,487
494,493,495,493,488
494,493,495,493,489
494,493,495,493,489
494,493,495,493,489
494,493,495,493,489
494,493,495,493,489
494,494,495,493,488
494,493,495,493,487
494,493,495,493,487
494,493,495,491,486
495,494,495,492,486
494,493,495,494,487
494,493,495,493,488
494,493,495,493,488
494,493,495,493,489
494,493,495,493,489
494,493,495,493,489
494,493,495,493,489
494,493,495,493,488
494,493,495,493,488
494,493,495,493,487
494,494,495,493,486
494,494,495,494,487
494,493,495,493,487
494,493,495,493,487
494,493,495,493,488
494,493,495,493,489
494,493,495,493,489
494,493,495,493,490
494,493,495,493,489
494,493,495,493,489
494,493,495,493,488
494,493,495,493,487
494,493,495,494,487
494,493,495,493,487
494,493,495,492,487
494,493,495,492,487
494,493,495,493,488
494,493,495,493,488
494,493,495,493,489
494,493,495,493,490
494,493,495,493,490
494,493,495,493,489
494,493,495,493,489
494,493,495,493,488
494,493,495,493,487
494,493,495,494,487
494,493,495,493,487
494,493,495,494,487
494,493,495,494,488
494,493,495,493,488
494,493,495,493,489
494,493,495,492,489
494,493,495,492,489
494,493,495,493,489
494,493,495,493,489
494,493,495,493,488
494,493,495,494,488
494,493,495,493,487
494,494,495,492,486
494,493,495,493,486
494,493,495,492,487
494,494,495,493,487
494,493,495,493,488
494,493,495,493,489
494,493,495,493,489
494,493,495,493,489
494,493,495,493,489
494,493,495,493,489
494,494,495,493,488
494,493,495,493,487
494,493,495,493,487
494,493,495,493,486
494,493,495,493,487
494,493,495,493,487
494,493,495,493,488
494,493,495,493,489
494,493,495,493,489
494,493,495,493,490
494,493,495,493,489
494,493,495,493,489
494,493,495,493,488
494,493,495,493,487
494,493,495,493,487
494,493,495,493,486
494,493,495,493,486
494,493,495,493,487
494,493,495,493,487
494,493,495,493,488
494,493,495,493,489
494,493,495,493,489
494,493,495,492,489
494,493,495,491,489
494,493,495,496,489
494,493,495,493,488
494,493,495,493,487
494,493,495,493,487
494,493,495,493,486
494,493,495,493,487
494,493,495,493,487
494,493,495,493,488
494,493,495,493,489
494,493,495,493,489
494,494,495,493,490
494,493,495,493,490
494,493,495,493,489
494,493,495,493,488
494,493,495,493,488
494,493,495,493,487
494,493,495,493,487
494,493,495,493,486
494,493,495,493,487
494,493,495,493,487
494,493,495,494,488
494,493,495,493,489
494,493,495,493,490
494,493,495,493,490
494,493,495,493,489
494,493,495,493,489
494,493,495,493,488
494,493,495,493,487
494,493,495,494,487
494,493,495,494,487
493,493,495,492,487
494,493,495,492,487
494,493,495,492,488
494,494,495,492,488
494,493,495,493,489
494,493,495,493,490
494,493,495,493,490
494,493,495,493,489
494,493,495,493,488
494,493,495,492,488
493,493,495,494,487
494,493,495,492,487
494,493,495,492,486
494,493,495,492,487
494,493,495,493,487
494,493,495,493,488
494,493,495,493,489
494,493,495,493,489
494,493,495,493,490
494,494,495,493,489
494,493,495,493,489
494,493,495,493,488
494,493,495,493,488
494,493,495,493,487
494,493,495,493,486
494,493,495,493,487
494,493,495,493,487
494,493,495,493,487
494,493,495,492,488
494,493,495,494,489
494,493,495,493,489
494,493,495,493,490
494,493,495,493,489
494,493,495,493,489
493,493,495,493,488
494,493,495,493,487
494,493,495,493,487
494,493,495,493,486
494,493,495,493,487
494,493,495,493,487
494,493,495,493,488
494,493,495,493,489
494,493,495,493,489
494,493,495,493,490
494,493,495,493,489
494,493,495,493,489
494,493,495,493,488
494,493,495,493,488
494,493,495,493,487
494,493,495,493,487
494,493,495,493,487
494,493,495,493,487
494,493,495,494,488
494,494,495,490,488
494,493,495,494,489
494,493,495,493,490
494,493,495,493,490
494,493,495,493,489
494,493,495,493,489
494,493,495,493,488
494,493,495,493,488
494,493,495,493,487
494,493,495,493,486
494,493,495,493,487
494,493,495,493,487
494,493,495,493,488
494,493,495,493,489
494,493,495,493,490
494,493,495,493,490
494,493,495,493,490
494,493,495,493,489
494,493,495,493,488
494,493,495,493,488
494,493,495,493,487
494,493,495,493,487
494,493,495,493,486
494,493,495,493,487
494,493,495,493,487
494,493,495,493,488
494,493,495,493,489
494,493,495,493,489
494,493,495,493,490
494,493,495,493,489
494,493,495,495,489
494,493,495,494,488
494,493,495,492,488
494,493,495,493,487
494,493,495,493,487
494,493,495,493,486
495,493,495,493,487
494,493,495,493,488
494,493,495,493,489
494,493,495,493,489
494,493,495,493,490
494,493,495,492,489
494,493,495,493,489
494,493,495,493,488
494,493,495,493,488
494,493,495,493,487
494,493,495,493,487
494,493,495,493,486
494,493,495,493,487
494,493,495,493,487
494,493,495,493,488
494,493,495,493,489
494,493,495,493,489
494,493,495,493,489
494,493,495,493,489
494,493,495,493,489
494,493,495,493,488
494,493,495,493,488
494,493,495,493,487
494,493,495,493,486
494,493,495,493,486
494,493,495,493,487
494,493,495,492,487
494,493,495,493,489
494,493,495,493,489
494,493,495,493,489
494,493,495,493,490
494,493,495,493,489
494,493,495,493,489
494,493,495,493,488
494,493,495,493,487
494,493,495,493,487
494,493,495,493,486
494,493,495,493,487
494,493,495,493,487
494,493,495,493,488
494,493,495,493,489
494,493,495,493,489
494,493,495,493,490
494,493,495,494,490
494,493,495,493,489
494,493,495,493,488
494,493,495,493,488
494,493,495,493,487
494,493,495,493,487
494,493,495,492,486
494,493,495,491,487
494,493,495,495,488
494,493,495,494,489
494,493,495,494,489
494,493,495,493,490
494,493,495,493,490
494,493,495,493,489
494,493,495,493,489
494,493,495,493,488
494,493,495,493,487
494,493,495,494,487
494,493,495,493,487
494,493,495,493,487
494,493,495,493,487
494,493,495,493,488
494,493,495,493,489
494,493,495,493,490
494,493,495,493,490
494,493,495,493,490
494,493,495,495,490
494,493,495,492,489
494,493,495,493,488
494,493,495,493,487
494,493,495,493,487
494,493,495,493,487
494,493,495,493,487
494,493,495,493,488
495,493,495,493,489
494,493,495,494,489
494,493,495,493,489
494,493,495,493,490
494,493,495,493,489
494,493,495,493,489
494,493,495,493,488
494,493,495,493,487
494,493,495,493,487
494,493,495,494,487
494,493,495,493,487
494,493,495,493,487
494,493,495,493,488
494,493,495,493,489
494,493,495,493,489
494,493,495,493,490
494,493,495,493,490
494,493,495,493,489
494,493,495,493,489
494,494,495,493,488
494,493,495,493,487
494,493,495,493,487
494,493,495,493,487
494,493,495,493,487
494,493,495,493,488
494,493,495,493,488
494,493,495,493,489
494,493,495,493,490
494,493,495,493,490
494,493,495,493,490
494,493,495,493,489
494,493,495,493,488
494,493,495,493,488
494,493,495,493,487
494,493,495,493,487
494,493,495,494,487
494,493,495,493,487
494,493,495,493,488
494,493,495,493,489
494,493,495,493,489
494,493,495,493,489
494,493,495,493,490
494,493,495,493,489
494,493,495,493,489
494,493,495,493,488
494,493,495,493,487
494,493,495,493,487
494,493,495,493,487
494,493,495,493,487
494,493,495,493,487
494,493,495,494,488
494,493,495,493,489
494,493,495,493,489
494,493,495,493,490
494,493,495,493,489
494,493,495,491,488
494,493,495,492,488
494,493,495,494,487
494,493,495,494,487
494,493,495,495,487
494,493,495,493,487
494,493,495,493,487
494,493,495,493,488
494,493,495,493,489
494,493,495,493,489
494,493,495,493,490
494,493,495,493,490
494,493,495,493,489
494,493,495,494,489
493,493,495,493,488
495,493,495,493,487
494,493,495,493,487
494,493,495,493,486
494,493,495,493,487
494,493,495,493,487
494,493,495,493,488
494,493,495,493,489
494,493,495,493,489
494,493,495,493,490
494,493,495,492,489
494,493,495,492,489
494,493,495,493,488
494,493,495,493,488
494,493,495,493,487
494,493,495,493,486
494,493,495,493,486
494,493,495,493,487
494,493,495,493,487
494,493,495,493,488
494,493,495,494,489
494,493,495,493,489
494,493,495,493,490
494,493,495,493,489
494,493,495,493,489
494,493,495,493,488
494,493,495,493,487
494,493,495,493,487
494,493,495,493,487
494,493,495,494,487
494,493,495,493,487
495,493,495,492,488
494,493,495,493,489
494,493,495,493,489
494,493,495,493,490
494,493,495,493,490
494,493,495,493,489
494,493,495,493,489
494,493,495,493,488
494,493,495,493,487
494,493,495,493,487
494,493,495,493,486
494,493,495,493,487
494,493,495,493,487
494,493,495,493,488
494,493,495,493,489
494,493,495,494,490
494,493,495,493,490
494,493,495,493,490
494,493,495,493,489
494,493,495,493,488
494,493,495,493,488
494,493,495,493,487
494,493,495,492,486
494,493,495,491,486
494,493,495,494,487
494,493,495,493,488
494,493,495,493,489
494,493,495,494,489
494,493,495,493,490
494,493,494,493,490
494,493,495,494,490
494,493,495,495,489
494,493,495,491,488
494,493,495,493,487
494,493,495,493,487
494,493,495,493,487
494,493,495,493,487
494,493,495,493,487
494,493,495,493,488
494,493,495,493,489
494,493,495,493,489
494,493,495,493,490
494,493,495,493,489
494,493,495,493,489
494,493,495,493,488
494,493,495,493,487
494,493,495,493,487
494,493,495,493,487
494,493,495,493,487
494,493,495,493,487
494,493,495,493,488
494,493,495,493,488
494,493,495,493,489
494,493,495,493,490
494,493,495,493,490
494,493,495,493,489
494,493,495,493,489
494,493,495,493,488
494,493,495,493,487
494,493,495,493,487
494,493,495,493,486
494,493,495,493,487
494,493,495,493,487
494,493,495,493,488
494,493,495,493,489
494,493,495,493,489
494,493,495,492,490
494,493,495,493,490
494,493,495,493,489
494,493,495,493,488
494,493,495,493,488
494,493,495,493,487
494,493,495,493,487
494,493,495,494,487
494,493,495,492,487
494,493,495,492,487
494,493,495,493,488
494,493,495,492,489
494,493,495,493,489
494,493,495,493,489
494,493,495,493,489
494,493,495,493,489
494,493,495,493,488
494,493,495,493,487
494,493,495,493,487
494,493,495,493,486
494,493,495,493,487
494,493,495,493,487
494,493,495,493,488
494,493,495,493,489
494,493,495,493,489
494,493,495,493,490
494,493,495,492,489
494,493,495,494,489
494,493,495,493,488
494,493,495,491,487
494,493,495,493,487
494,493,495,493,486
494,493,495,493,486
494,493,495,493,487
494,493,495,493,487
494,493,495,493,488
494,493,495,493,489
494,493,495,494,490
494,493,495,493,490
494,493,495,492,490
494,493,495,493,547
585,537,525,514,502
499,490,498,499,498
495,488,497,499,496
495,489,497,498,495
496,489,497,498,495
496,490,497,498,495
496,491,498,498,495
496,491,498,498,495
496,491,496,492,494
486,483,490,489,494
488,486,492,491,495
491,489,493,492,494
492,490,504,522,501
509,492,493,500,493
490,486,491,490,492
490,488,492,491,491
492,490,493,491,491
492,491,494,492,491
493,492,494,492,491
493,492,495,493,492
493,492,495,492,492
494,493,495,492,492
494,493,495,493,492
494,493,495,492,492
494,493,495,492,491
494,493,495,492,490
494,493,495,492,489
494,493,495,492,489
494,493,495,492,488
494,493,495,493,488
494,493,495,492,488
494,493,495,492,489
494,493,495,493,489
494,493,495,493,490
494,493,495,493,490
494,493,495,493,490
494,493,495,493,490
494,493,495,492,489
494,494,495,491,488
494,493,495,491,487
494,493,495,493,487
494,494,495,492,486
494,493,495,492,486
494,493,495,492,487
494,493,495,492,488
494,493,495,492,489
494,493,495,492,489
494,493,495,491,489
494,493,495,491,489
494,493,495,493,489
494,493,495,493,488
495,493,495,492,487
494,493,495,492,487
494,493,495,492,486
494,493,495,492,486
494,493,494,493,486
494,493,494,492,487
494,493,495,492,488
494,493,495,493,489
494,493,495,493,489
494,493,495,493,489
494,493,495,492,489
494,493,495,493,489
494,493,495,492,488
494,493,495,506,522
555,520,515,508,494
497,489,497,498,492
495,488,495,496,490
485,479,487,491,493
512,504,506,502,492
498,492,497,496,492
496,491,497,497,493
496,491,497,497,493
496,492,498,497,493
496,492,497,495,493
497,492,498,499,493
497,492,498,496,491
497,492,497,496,491
497,492,498,496,490
497,493,497,496,490
497,493,498,496,490
497,493,497,496,491
497,493,497,496,491
497,493,497,496,492
497,493,497,495,492
497,493,497,496,492
497,493,498,496,492
497,493,497,496,492
497,493,497,496,491
497,493,497,496,490
497,493,497,496,490
497,493,498,496,489
496,493,497,496,489
496,493,497,496,489
497,493,497,496,490
497,493,497,495,491
497,493,497,495,492
497,493,497,495,492
497,493,497,495,492
497,493,497,495,492
497,493,497,495,491
497,493,497,495,490
497,493,497,495,489
497,493,497,495,489
496,493,497,495,489
497,493,497,495,489
497,493,497,495,489
497,494,497,495,490
497,493,497,495,491
497,493,497,495,491
497,493,497,495,492
497,493,497,495,491
497,493,497,495,491
497,493,497,495,490
496,493,497,495,489
496,493,497,495,489
496,493,497,495,488
496,493,497,492,487
497,493,497,495,488
497,494,497,496,489
497,493,497,495,490
497,493,497,495,491
497,493,497,495,491
496,493,497,495,491
496,493,497,494,491
497,493,497,494,490
497,493,497,494,489
497,493,497,494,489
497,494,496,495,488
497,493,496,495,488
497,493,497,494,488
497,494,497,495,488
497,494,497,495,489
497,493,497,495,490
497,494,496,494,491
497,494,496,494,491
497,494,496,494,491
497,493,496,494,490
497,493,496,494,489
497,494,496,494,489
496,493,496,494,488
497,493,496,495,488
497,494,497,494,488
497,493,497,494,488
496,493,497,495,489
496,494,497,495,489
496,494,497,493,490
497,493,496,495,491
496,494,496,495,491
497,493,496,494,490
497,493,496,494,489
496,493,496,494,489
496,493,497,494,488
497,494,496,494,488
497,494,496,494,487
497,494,496,495,487
496,493,496,494,488
496,494,496,494,489
497,494,496,496,490
497,494,497,495,490
497,494,497,494,491
496,493,496,494,490
496,493,496,494,490
497,494,496,494,489
497,494,496,494,488
497,494,496,494,488
496,494,496,494,487
496,493,498,494,487
496,494,499,494,488
497,494,500,494,488
497,494,500,494,489
497,494,500,493,489
497,494,495,493,490
497,493,493,497,490
496,493,495,495,490
496,493,495,494,489
496,494,496,494,489
496,494,496,495,488
496,493,496,494,487
496,493,496,494,486
496,494,496,494,487
496,494,496,494,487
496,494,496,494,488
496,494,496,494,489
496,494,496,495,490
496,494,496,494,490
496,494,496,494,490
496,494,496,494,490
496,494,496,493,489
496,494,496,492,488
496,494,496,496,488
496,494,496,494,487
496,493,496,494,487
497,493,496,495,488
496,494,496,493,488
496,493,496,494,489
496,493,496,494,489
496,493,496,494,490
496,493,496,494,490
497,494,496,494,490
497,494,496,494,490
496,494,496,493,489
496,494,496,494,488
496,494,496,495,488
496,493,496,495,487
496,494,496,493,487
496,494,496,494,487
496,494,496,494,488
497,493,496,494,489
496,493,496,494,489
496,494,496,494,490
496,494,496,494,490
496,493,496,494,488
496,494,496,494,487
496,494,496,495,486
496,494,496,494,486
496,494,496,494,485
496,494,496,494,485
497,494,496,494,486
496,494,496,494,486
496,494,497,494,487
496,493,496,493,488
496,493,496,494,489
496,494,496,494,489
496,494,496,495,490
496,494,496,494,489
496,494,496,494,489
496,493,496,493,488
495,493,496,494,488
496,494,496,494,487
496,494,496,493,487
496,494,496,493,488
496,494,496,493,488
496,494,496,494,489
496,494,496,494,490
496,494,496,494,490
496,494,496,494,490
496,493,496,494,490
496,494,496,494,489
496,494,496,495,489
496,494,496,493,488
496,493,496,493,487
496,494,498,495,487
497,494,499,494,487
496,494,499,494,488
496,494,499,494,489
496,493,497,493,489
495,493,493,494,490
496,494,493,494,491
496,494,495,494,491
496,494,495,494,490
496,494,495,494,490
496,493,495,493,489
496,494,495,493,488
496,494,496,493,488
496,493,496,493,487
496,494,496,493,488
495,493,496,493,488
495,493,495,494,489
496,493,495,492,490
495,494,496,495,491
496,494,496,495,491
496,494,496,493,490
495,494,496,493,490
496,494,495,493,489
496,494,496,494,488
496,493,496,494,488
496,494,495,494,487
496,493,496,494,488
495,493,496,494,488
495,493,495,494,489
496,494,495,493,490
496,494,495,493,490
496,493,496,493,491
496,493,495,493,491
496,493,496,494,491
496,493,495,493,490
496,493,495,494,489
496,494,495,494,488
496,494,495,493,488
496,494,494,493,487
496,494,494,493,487
496,494,495,494,488
496,494,496,494,488
495,493,496,493,489
496,494,496,493,489
495,494,496,494,489
495,493,496,494,489
495,494,496,494,489
496,494,496,494,488
495,493,496,494,487
495,493,495,494,487
495,493,496,493,487
496,493,496,493,487
496,493,495,494,487
496,493,495,493,488
496,493,495,494,489
496,493,495,494,490
496,494,495,494,490
496,494,495,494,490
496,494,494,494,490
495,494,496,494,489
495,494,497,493,488
495,494,499,494,488
496,494,501,494,487
496,494,501,494,487
495,493,495,495,487
495,494,495,493,487
495,494,494,493,488
496,494,492,493,489
496,494,494,493,490
495,494,495,494,490
496,494,495,494,490
496,493,495,495,490
495,494,495,493,489
496,494,495,493,488
495,494,495,494,488
495,494,495,494,487
495,494,495,494,487
496,494,495,494,487
496,494,495,494,488
495,494,495,493,489
495,494,495,493,489
495,494,495,493,489
496,494,495,493,489
495,493,495,493,489
495,494,495,493,488
495,494,495,494,488
495,494,495,493,487
495,494,495,493,486
495,494,495,493,486
495,493,496,494,486
495,493,495,494,487
495,493,495,493,488
496,493,495,493,489
495,493,495,493,489
495,494,495,493,490
495,493,495,494,490
495,493,495,491,489
496,494,495,493,488
495,494,495,495,488
495,494,495,494,488
495,494,495,494,487
495,493,495,494,487
495,493,495,494,487
495,493,495,494,488
496,493,496,494,488
496,493,496,494,489
495,494,496,493,489
495,494,495,493,489
495,494,495,494,489
495,494,495,494,489
495,494,495,495,489
496,494,495,493,488
495,494,495,493,487
496,494,495,493,486
495,494,495,494,487
496,494,495,493,487
495,494,495,493,488
495,494,495,493,489
496,494,495,494,489
495,494,495,493,489
495,493,495,493,489
495,494,495,493,489
495,494,495,493,488
496,494,495,493,487
496,494,495,493,487
495,494,495,493,486
495,493,496,493,486
495,494,496,493,486
495,494,495,493,486
495,494,497,493,487
495,494,498,493,488
496,494,498,494,489
496,493,497,494,490
496,493,496,494,489
495,493,492,494,489
495,493,491,494,488
495,493,492,494,488
496,494,493,493,487
495,495,494,492,486
496,495,495,493,486
495,494,496,494,487
495,494,497,494,488
495,494,496,494,488
496,494,495,493,489
495,494,495,493,489
495,494,495,493,489
495,494,495,494,489
495,494,495,494,489
495,494,495,493,488
495,494,495,493,488
495,493,495,493,487
495,494,495,494,487
495,494,495,494,487
495,493,495,494,488
495,494,495,493,488
495,494,495,493,489
495,494,495,494,490
495,494,495,494,490
495,494,495,494,490
495,494,495,493,490
495,494,495,493,489
495,493,495,493,488
495,493,495,494,488
495,493,495,494,487
495,493,495,494,487
495,493,495,493,487
495,493,495,494,488
495,494,495,493,489
495,494,495,493,490
495,494,495,494,490
495,494,495,493,491
495,494,495,493,490
495,494,495,493,490
495,493,495,493,489
495,494,495,493,488
495,494,495,493,488
495,493,495,493,487
495,494,495,493,487
495,493,495,493,488
495,494,495,493,489
495,494,495,493,489
495,493,495,493,490
495,494,495,494,490
495,493,495,494,490
495,493,495,493,490
495,494,495,493,489
495,494,495,492,488
495,495,495,489,486
495,495,495,495,487
495,494,495,494,487
495,493,495,493,487
495,493,495,493,488
495,494,495,493,488
495,494,495,493,489
495,494,495,494,490
495,493,495,493,490
495,494,495,493,489
495,494,496,494,489
495,493,496,493,488
495,493,498,493,488
495,493,499,494,487
495,494,498,493,487
495,494,497,493,487
495,494,495,495,487
495,495,491,493,488
496,495,493,493,489
495,494,495,493,490
495,494,494,493,490
495,494,495,493,490
495,494,495,494,489
495,494,495,495,489
495,494,495,493,488
495,494,495,493,487
495,494,495,493,487
495,494,495,493,487
495,494,495,493,487
496,494,495,493,487
495,494,495,493,488
495,494,495,493,489
495,494,494,493,489
495,494,495,493,490
495,494,495,493,489
495,493,495,493,489
495,493,495,493,488
495,493,495,493,487
495,493,495,493,487
495,494,495,493,486
495,494,495,493,486
495,494,495,493,487
495,495,495,493,487
495,494,495,493,488
495,494,495,493,489
495,494,495,493,489
495,494,495,493,489
495,493,495,493,489
495,494,495,493,488
495,494,495,493,488
495,494,495,493,487
495,494,495,493,486
495,494,495,493,486
495,494,495,493,487
495,494,495,494,487
495,494,495,493,488
495,494,495,493,489
495,494,495,493,489
495,494,495,493,489
495,494,495,493,489
495,494,495,493,489
495,493,495,494,488
495,493,495,493,488
495,493,495,494,487
495,493,495,493,487
495,494,495,494,487
495,494,495,493,488
495,494,495,493,490
495,494,495,493,490
495,494,494,493,490
495,494,495,493,490
495,494,495,493,490
495,494,495,493,490
495,494,495,493,489
495,494,495,493,488
495,493,495,493,488
495,494,495,493,487
495,493,495,493,487
494,493,495,493,487
495,494,495,493,487
495,493,495,493,488
495,494,495,493,489
495,493,495,493,489
494,494,495,493,489
494,494,495,493,489
495,495,495,494,489
495,494,495,493,488
495,494,495,493,487
495,494,495,493,486
495,493,495,493,486
495,494,495,493,485
495,494,495,493,486
495,493,495,493,486
495,493,495,493,487
495,493,495,493,488
495,493,495,493,488
495,493,495,493,488
495,493,495,493,488
495,494,495,493,487
495,494,495,493,487
496,494,495,493,486
495,494,495,494,486
495,494,495,494,485
495,495,495,493,485
495,494,495,493,486
495,495,495,493,487
494,495,495,493,487
495,495,497,493,488
494,494,498,493,488
495,494,498,493,488
495,494,498,494,488
494,494,496,493,487
495,494,492,493,486
495,494,492,494,486
495,494,493,494,485
494,494,494,493,485
495,494,494,493,485
495,494,494,493,486
495,494,495,493,487
495,494,494,493,488
495,494,494,493,488
495,494,495,493,488
495,494,495,493,488
495,494,494,493,488
495,494,494,493,487
495,494,495,493,486
494,494,495,493,486
495,494,494,493,485
495,493,495,493,485
495,493,495,494,486
495,493,494,493,486
495,494,494,493,487
495,494,495,493,488
495,494,495,493,488
495,493,495,493,488
495,494,495,493,488
495,494,495,493,487
495,494,495,493,486
495,494,495,493,486
494,494,495,493,485
494,494,495,493,484
494,494,495,493,485
495,494,495,493,485
495,494,495,493,486
495,494,495,493,487
495,494,495,493,487
495,494,495,493,487
495,494,495,493,487
495,494,495,493,487
495,494,495,493,486
495,494,495,493,485
495,494,495,493,485
495,494,495,493,484
495,494,495,493,484
495,494,495,493,484
495,494,495,493,485
495,493,495,493,486
495,493,495,493,486
495,492,495,493,487
495,491,495,493,487
495,491,495,493,486
495,492,495,493,486
495,493,495,493,485
495,494,495,493,484
495,495,495,493,484
495,497,495,493,483
495,496,495,493,484
495,495,495,493,484
495,494,495,493,485
495,494,494,493,485
495,494,495,493,486
495,494,495,493,486
494,494,495,493,486
495,494,495,493,486
495,494,495,493,485
495,494,495,493,484
494,494,495,493,484
494,494,495,493,483
495,494,495,493,483
495,494,495,493,483
495,494,495,493,484
495,494,495,493,485
495,494,495,493,486
495,494,495,493,486
495,495,495,493,486
495,494,495,493,486
494,493,494,493,486
495,494,495,493,485
495,494,495,493,485
495,494,495,493,484
495,494,495,493,484
494,494,495,493,484
495,494,495,493,484
495,493,495,493,485
495,493,495,493,486
495,494,495,493,487
495,494,495,493,487
495,494,495,493,487
495,494,495,493,487
495,495,495,493,486
495,494,495,493,485
495,494,495,493,485
494,494,495,493,484
495,494,494,493,484
495,494,494,493,484
494,494,495,493,485
495,494,495,493,486
495,494,495,493,486
495,494,495,493,487
494,494,495,493,487
495,494,494,493,487
495,494,495,493,487
495,494,495,493,486
495,494,495,493,485
495,494,495,493,485
494,494,495,493,485
494,494,495,493,485
494,493,495,493,485
495,493,495,493,486
495,493,495,493,487
495,494,495,493,488
494,494,495,493,488
495,494,495,493,488
495,495,495,493,488
495,493,495,493,487
495,494,495,493,487
495,493,495,493,486
495,494,495,493,486
495,494,495,493,485
495,494,495,493,486
495,495,495,493,486
495,495,495,493,487
495,494,495,493,488
495,494,495,493,488
494,495,495,493,489
494,494,495,493,489
495,494,495,493,488
495,494,495,493,487
495,494,495,493,487
495,494,495,493,486
494,494,495,493,486
495,494,495,493,486
494,494,495,493,486
495,494,495,493,487
494,494,495,493,488
494,494,495,493,488
495,494,495,493,489
495,494,495,493,489
495,494,495,493,488
494,494,495,493,488
494,494,495,493,487
495,494,495,493,487
495,494,495,493,486
495,493,495,493,486
494,493,495,493,486
495,493,495,493,486
494,493,495,493,487
494,494,495,493,488
494,494,495,493,489
495,495,495,493,489
494,494,495,493,489
494,494,494,493,488
494,494,495,493,488
494,494,495,493,487
495,494,495,493,487
494,494,495,493,486
494,494,495,493,486
495,494,495,493,486
495,494,495,493,487
495,494,495,493,488
494,494,495,493,488
494,494,495,493,489
494,494,495,493,489
494,494,495,493,489
495,494,495,493,488
495,494,495,493,487
495,494,494,493,487
494,494,495,493,486
494,494,495,493,486
495,494,495,493,486
495,493,495,493,486
495,492,495,493,487
495,493,495,493,488
495,493,495,493,488
495,494,495,493,489
495,495,495,493,489
495,495,495,493,488
494,495,495,493,487
494,494,495,493,487
494,494,495,493,486
495,494,495,493,485
494,494,495,493,485
494,494,495,493,486
494,494,495,493,486
494,494,495,493,487
494,494,495,493,488
495,494,495,493,488
494,494,495,493,488
494,494,495,493,488
494,494,495,493,488
494,494,495,493,487
495,494,495,493,486
494,494,495,493,486
495,494,495,493,485
495,494,495,493,485
494,494,495,493,485
494,494,495,493,486
494,493,495,493,487
495,493,495,493,487
494,494,495,493,487
494,493,495,493,487
495,494,495,493,487
494,494,494,493,486
494,495,495,493,485
494,495,495,493,485
495,495,495,493,484
494,494,495,493,483
495,494,495,493,484
495,494,495,493,484
494,494,495,493,485
494,494,495,493,486
494,494,495,493,486
494,494,495,493,486
494,494,495,493,486
495,494,495,493,486
494,494,495,493,485
495,493,495,493,484
495,494,495,493,483
494,494,495,493,483
494,494,495,493,483
494,494,495,493,483
495,494,495,493,484
495,494,495,493,485
494,494,495,493,485
494,494,495,493,486
494,494,495,493,485
494,494,495,493,485
494,494,495,493,485
494,494,495,493,484
494,494,495,493,483
494,494,495,493,483
494,494,495,493,482
495,494,495,493,483
494,494,495,493,483
494,494,495,493,484
494,494,495,493,485
494,494,495,493,486
494,494,495,493,486
494,494,495,493,486
494,494,495,493,485
494,494,495,493,485
494,494,495,493,484
494,494,495,493,483
494,494,495,493,483
494,494,495,493,483
494,494,494,493,484
494,494,495,493,484
494,494,495,493,485
494,494,495,493,486
494,494,495,493,486
495,494,495,493,487
495,494,495,493,486
494,494,495,493,486
494,494,495,493,485
494,494,495,493,484
494,494,495,493,484
494,494,495,493,483
494,494,495,493,484
494,494,495,493,484
494,494,495,493,485
494,494,495,493,486
494,494,495,493,487
494,494,495,493,487
494,494,495,493,487
494,494,495,493,487
494,494,495,493,486
494,494,495,493,486
494,494,495,493,485
494,494,495,493,485
494,494,495,493,485
494,494,495,493,485
494,494,495,493,486
495,494,495,493,487
494,494,495,493,487
494,494,495,493,488
494,494,495,493,488
494,494,495,493,488
494,494,495,493,487
494,494,495,493,487
494,494,495,493,486
494,494,495,493,486
494,494,495,493,485
494,494,495,493,485
494,494,495,493,486
494,493,495,493,487
494,493,495,493,488
494,493,495,493,488
494,494,495,493,489
494,493,495,493,489
494,493,495,493,489
494,494,495,493,488
495,494,495,493,487
494,494,495,493,487
494,494,495,493,486
494,495,495,493,486
494,496,495,493,487
494,495,495,493,487
494,495,495,493,488
494,495,495,493,489
494,495,495,493,489
494,494,495,493,489
494,494,495,493,489
494,494,495,493,489
494,494,495,493,488
494,494,495,493,487
494,494,495,493,487
494,494,495,493,486
495,494,495,493,486
495,494,495,493,487
494,494,495,493,487
494,494,495,493,488
494,494,495,493,489
494,494,495,493,489
494,494,495,493,489
494,494,495,493,489
494,494,495,493,489
494,494,495,493,488
494,494,495,493,487
494,494,495,493,487
494,494,495,493,487
494,494,495,493,487
494,494,495,493,487
494,494,495,493,488
494,494,495,493,489
494,494,495,493,489
494,494,495,493,490
494,494,495,493,489
494,494,495,493,489
494,494,495,493,489
494,495,495,493,488
494,495,495,493,487
495,495,495,493,487
494,495,495,493,487
494,494,495,493,487
494,494,495,493,488
495,493,495,493,489
494,493,495,493,490
494,494,495,493,490
494,495,495,493,490
494,495,495,493,490
494,495,495,493,489
494,495,495,493,489
494,495,495,493,488
494,494,495,493,488
494,494,495,493,487
494,494,495,493,488
494,494,495,493,488
494,494,495,493,489
494,494,495,493,490
494,494,495,493,490
493,494,495,493,491
494,494,495,493,490
494,494,495,493,490
494,494,495,493,489
495,494,495,493,489
494,494,495,493,488
495,495,495,493,488
495,494,495,493,488
494,494,495,493,488
494,494,495,493,488
494,494,495,493,489
494,494,495,493,490
494,494,495,493,490
494,494,494,493,491
494,494,494,493,490
494,494,495,493,490
494,494,495,493,489
494,494,495,493,488
494,495,495,493,488
494,494,495,493,487
494,495,495,493,487
494,494,495,493,488
494,494,495,493,488
494,494,495,493,489
494,494,495,493,490
494,494,495,493,490
494,494,495,493,490
494,494,495,493,490
494,494,495,493,489
494,494,495,493,488
494,494,495,493,488
494,494,495,493,487
494,494,495,493,487
494,494,495,493,487
494,494,495,493,488
494,494,495,493,489
494,494,494,493,489
494,494,495,493,490
494,494,495,493,490
494,494,495,493,490
494,494,495,493,490
494,494,495,493,489
494,494,495,493,488
494,494,495,493,488
494,494,495,493,487
494,495,495,493,487
494,494,495,493,488
494,494,495,493,488
494,494,495,493,489
494,494,495,493,490
494,494,495,493,490
495,494,495,493,490
494,494,494,493,490
494,494,495,493,489
494,494,495,493,489
494,494,495,493,488
494,493,495,493,488
495,491,495,493,487
494,492,495,493,487
494,493,495,493,488
494,494,495,493,489
494,494,495,493,489
494,496,495,493,490
494,496,495,493,489
494,495,495,493,489
494,494,495,493,489
494,494,495,493,488
494,494,495,493,487
494,494,495,493,487
494,494,495,493,486
495,494,495,493,486
494,494,494,493,486
494,494,495,493,487
494,494,495,493,487
494,494,495,493,488
494,494,495,493,488
494,494,495,493,488
494,494,495,493,488
494,494,494,493,487
494,494,495,493,487
494,494,495,493,486
494,494,495,493,485
494,494,494,493,485
494,494,495,493,485
494,494,495,493,485
494,494,495,493,486
494,494,495,493,487
494,494,495,493,487
494,494,495,493,488
494,494,495,493,488
494,494,495,493,488
494,494,495,493,487
494,495,495,493,487
494,494,495,493,486
494,494,495,493,486
494,494,495,493,486
494,494,495,493,486
494,494,495,493,486
494,493,495,493,487
494,494,495,493,488
494,494,495,493,488
494,494,495,493,489
494,494,495,493,488
494,495,495,493,488
494,495,495,493,487
494,494,495,493,487
494,494,495,493,486
494,494,495,493,486
494,494,495,493,486
494,494,495,493,486
494,494,495,493,487
494,495,495,493,488
494,494,495,493,488
494,494,495,493,488
494,494,495,493,488
494,494,495,493,488
494,493,495,493,488
494,493,495,493,487
494,494,495,493,487
494,494,494,493,486
494,494,494,493,486
494,495,495,493,486
494,495,495,493,487
494,495,495,493,487
494,494,495,493,488
494,494,495,493,488
494,494,495,493,489
494,494,495,493,489
494,494,495,493,488
494,494,495,493,488
494,494,495,493,487
494,493,495,493,486
494,494,495,493,486
494,494,495,493,486
495,494,495,493,487
494,494,495,493,488
494,494,495,493,489
494,494,495,493,489
494,494,495,493,489
494,493,495,493,490
494,493,495,493,489
494,493,495,493,489
494,493,495,493,488
494,494,495,493,488
494,494,495,493,488
494,495,495,493,487
494,495,495,493,488
494,494,495,493,488
494,494,494,493,489
494,494,495,493,490
494,494,495,493,490
494,494,495,493,491
494,494,495,493,491
494,495,495,493,490
494,495,495,493,490
494,495,495,493,489
494,494,495,493,488
494,494,495,493,488
494,494,495,493,488
494,494,495,493,488
494,494,495,493,489
494,494,495,493,490
494,494,495,493,490
494,494,495,493,491
494,494,495,493,491
494,494,495,493,490
494,494,495,493,490
494,493,495,493,489
494,494,495,493,489
494,494,495,493,488
494,494,495,493,488
494,494,495,493,488
494,494,495,493,488
494,494,495,493,489
494,494,495,493,490
494,494,495,493,490
494,494,495,493,491
494,494,495,493,490
494,494,495,493,490
494,494,495,493,489
494,494,495,493,489
494,494,495,493,488
494,494,495,493,488
494,494,495,493,487
494,494,495,493,488
494,494,495,493,488
494,494,495,493,489
494,494,495,493,489
494,494,495,493,490
494,494,495,493,490
494,494,495,493,490
494,494,495,493,489
494,493,495,493,488
494,493,495,493,488
494,493,495,493,487
494,493,495,493,487
494,493,495,493,487
494,494,495,493,487
494,494,495,493,488
494,494,495,493,489
494,494,495,493,489
494,494,495,493,490
494,495,495,493,489
494,495,495,493,489
494,495,495,493,489
495,495,495,493,488
494,494,495,493,487
494,494,495,493,487
494,494,495,493,486
494,494,495,493,487
494,493,495,493,487
494,494,495,493,488
494,493,495,493,489
494,493,494,493,489
494,494,495,493,489
494,494,495,493,489
494,494,495,493,489
494,494,495,493,488
494,494,495,493,487
494,494,495,493,487
494,494,495,493,486
494,494,495,493,486
494,494,495,493,486
494,494,495,493,487
494,494,495,493,488
494,494,495,493,488
494,494,495,493,489
494,494,495,493,489
494,494,495,493,488
494,494,495,493,488
494,494,495,493,487
494,494,495,493,487
494,494,495,493,487
494,494,495,493,486
494,494,495,493,486
494,494,495,493,487
494,494,495,493,488
494,494,495,493,488
494,494,495,493,489
494,494,495,493,489
494,494,495,493,489
494,494,495,493,488
494,494,495,493,487
494,494,495,493,487
494,494,495,493,486
494,494,495,493,486
494,494,495,493,486
494,494,495,493,486
494,494,495,493,487
494,494,495,493,488
494,494,495,493,488
494,494,495,493,489
494,494,495,493,489
494,494,495,493,489
494,494,495,493,488
494,494,495,493,488
494,494,495,493,487
494,494,495,493,487
494,494,495,493,487
494,494,495,493,487
494,494,495,493,487
494,494,495,493,488
494,494,495,493,489
494,494,495,493,489
494,494,495,493,490
494,494,495,493,489
494,494,495,493,489
494,494,495,493,489
494,494,495,493,488
494,494,495,493,487
494,494,495,493,487
494,494,495,493,487
494,493,495,493,487
494,493,495,493,488
494,493,495,493,489
495,493,495,493,489
494,494,495,493,490
494,495,495,493,490
494,496,495,493,489
494,496,495,493,489
494,494,495,493,488
494,494,495,493,488
494,494,495,493,487
494,494,495,493,487
494,494,495,493,487
494,493,495,493,487
494,493,495,493,488
494,493,495,493,489
494,493,495,493,489
494,494,495,493,490
494,494,495,493,490
494,495,495,493,489
494,496,495,493,489
494,494,495,493,488
494,494,495,493,488
494,494,495,493,487
494,494,495,493,487
494,494,495,493,487
494,494,495,493,488
494,494,495,493,489
494,494,495,493,489
494,494,495,493,490
494,494,495,493,490
494,494,495,493,490
494,494,495,493,490
494,494,495,493,489
494,494,495,493,488
494,494,495,493,488
494,494,495,493,487
494,494,495,493,487
494,493,495,493,487
494,494,495,493,488
494,494,495,493,489
494,494,495,493,489
494,494,495,493,490
494,494,495,493,490
494,494,495,493,490
494,494,495,493,489
494,494,495,493,488
494,494,495,493,488
494,494,495,493,487
494,494,495,493,487
494,494,495,493,487
494,494,495,493,488
494,494,495,493,489
494,494,495,493,489
494,494,495,493,490
494,494,495,493,490
494,494,495,493,490
494,494,495,493,489
494,494,495,493,489
494,494,495,493,488
494,494,495,493,487
494,494,495,493,487
494,494,495,493,487
494,494,495,493,487
494,494,495,493,487
494,494,495,493,488
494,493,495,493,489
494,494,495,493,489
494,493,495,493,489
494,493,495,493,489
494,493,495,493,488
494,493,495,493,487
494,493,495,493,486
494,494,495,493,485
494,495,495,493,485
494,495,495,493,485
494,495,495,493,485
494,494,495,493,486
494,494,495,493,486
494,494,495,493,487
494,494,495,493,486
494,494,495,493,486
494,494,495,493,486
494,494,495,493,485
494,494,495,493,484
494,494,495,493,483
494,494,495,493,482
494,494,495,493,482
494,494,495,493,482
494,494,495,493,482
494,494,495,493,483
494,494,495,493,484
494,493,495,493,484
494,493,495,493,484
494,493,495,493,483
494,493,495,493,483
494,494,495,493,482
494,494,495,493,481
494,494,495,493,481
494,494,495,493,481
494,494,495,493,481
494,494,495,493,481
494,493,495,493,482
494,494,495,493,483
494,495,495,493,484
494,494,495,493,484
494,494,495,493,484
494,494,495,493,484
494,494,495,493,483
494,494,495,493,483
494,494,495,493,483
494,494,495,493,482
494,494,495,493,482
494,494,495,493,483
494,494,495,493,483
494,494,495,493,484
494,494,495,493,485
494,494,495,493,486
494,494,495,493,486
494,494,495,493,486
494,494,495,493,486
494,494,495,493,486
494,494,495,493,485
494,494,495,493,485
494,493,495,493,485
494,493,495,493,486
494,493,495,493,486
494,493,495,493,487
494,493,495,493,488
494,494,495,493,489
494,494,495,493,489
494,494,495,493,489
494,494,495,493,489
494,494,495,493,489
494,494,495,493,488
494,495,495,493,487
494,494,495,493,486
494,494,495,493,486
493,494,495,493,486
494,494,495,493,486
494,494,495,493,487
494,493,495,493,488
494,493,495,493,489
494,493,495,493,489
494,493,495,493,489
494,493,495,493,489
494,493,495,493,488
494,493,495,493,487
494,495,495,493,487
494,495,495,493,486
494,495,495,493,486
494,495,495,493,487
494,495,495,493,487
494,494,495,493,488
494,494,495,493,489
494,494,495,493,489
494,494,495,493,490
494,494,495,493,489
494,494,495,493,489
494,494,495,493,488
494,494,495,493,487
494,494,495,493,487
494,494,495,493,487
494,494,495,493,487
494,494,495,493,487
494,493,495,493,488
494,493,495,493,489
494,493,495,493,489
494,493,495,493,489
494,494,495,493,489
494,493,495,493,489
494,492,495,493,488
494,492,495,493,487
494,493,495,493,487
494,493,495,493,486
494,494,495,493,486
494,496,495,493,487
494,495,495,493,487
494,495,495,493,488
494,494,495,493,489
494,494,495,493,489
494,494,495,493,489
494,494,495,493,489
494,494,495,493,489
494,493,495,493,489
494,493,495,493,488
494,494,495,493,488
494,493,495,493,487
494,494,495,493,488
494,493,495,493,488
494,493,495,493,489
494,493,495,493,489
494,494,495,493,490
494,494,495,493,490
494,494,495,493,490
494,494,495,493,490
494,494,495,493,490
494,493,495,493,489
494,494,495,493,488
494,494,495,493,488
494,494,495,493,487
494,494,495,493,488
494,494,495,493,488
494,494,495,493,489
494,494,495,493,490
494,493,495,493,490
494,493,495,493,490
494,493,495,493,490
494,493,495,493,490
494,493,495,493,489
494,493,495,493,488
494,493,495,493,488
494,493,495,493,488
494,494,495,493,488
495,495,495,493,488
494,495,495,493,489
494,495,495,493,490
494,494,495,493,490
494,494,495,493,491
494,494,495,493,491
494,494,495,493,490
494,494,495,493,490
494,494,495,493,489
494,494,495,493,488
494,493,495,493,488
494,493,495,493,488
494,493,495,493,488
494,494,495,493,488
494,494,495,493,489
494,495,495,493,490
494,495,495,493,490
494,495,495,493,490
494,494,495,493,490
494,494,495,493,490
494,493,495,493,489
494,494,495,493,489
494,493,495,493,488
494,493,495,493,487
494,494,495,493,487
494,494,495,493,488
494,494,495,493,488
494,493,495,493,489
494,493,495,493,490
494,493,495,493,490
494,493,495,493,490
494,493,495,493,490
494,494,495,493,489
494,494,495,493,489
494,494,495,493,488
494,494,495,493,487
494,494,495,493,487
494,494,495,493,487
494,493,495,493,488
494,494,495,493,489
494,494,495,493,489
494,494,495,493,490
494,494,495,493,490
494,494,495,493,490
494,493,495,493,490
494,494,495,493,489
494,494,495,493,488
494,494,495,493,488
494,494,495,493,487
494,494,495,493,487
494,493,495,493,487
494,493,495,493,488
494,493,495,493,489
494,493,495,493,489
494,494,495,493,490
494,493,495,493,490
494,494,495,493,490
494,494,495,493,489
494,495,495,493,488
494,495,495,493,488
494,495,495,493,488
494,495,495,493,487
494,494,495,493,487
494,494,495,493,487
494,494,495,493,488
494,494,495,493,489
494,494,495,493,489
494,494,495,493,490
494,494,495,493,490
493,494,495,493,489
494,493,495,493,488
494,493,495,493,488
494,493,495,493,487
494,493,495,493,487
494,493,495,493,486
494,493,495,493,487
494,494,495,493,487
494,494,495,493,488
494,494,495,493,489
494,494,495,493,489
494,493,495,493,489
494,493,495,493,489
494,494,495,493,489
494,494,495,493,488
494,495,495,493,487
494,495,495,493,487
494,496,495,493,486
494,495,495,493,486
494,494,495,493,486
494,494,495,493,487
494,493,495,493,488
494,494,495,493,488
494,494,495,493,489
494,495,495,493,489
494,494,495,493,489
494,494,495,493,488
494,494,495,493,487
494,494,495,493,487
494,493,495,493,486
494,493,495,493,486
494,494,495,493,486
494,494,495,493,487
494,494,495,493,488
494,494,495,493,488
494,494,495,493,489
494,494,494,493,489
494,494,495,493,489
494,494,495,493,489
494,494,495,493,488
494,494,495,493,487
494,494,495,493,487
494,494,495,493,486
494,493,495,493,486
494,494,495,493,487
494,494,495,493,487
494,494,495,493,488
494,494,495,493,489
494,494,495,493,489
494,494,495,493,490
494,493,495,493,489
494,494,495,493,489
494,494,495,493,488
494,494,495,493,488
494,494,495,493,487
494,494,495,493,487
494,494,495,493,487
494,494,495,493,487
494,494,495,493,488
494,494,495,494,489
494,493,495,494,489
494,493,495,493,490
494,493,495,493,490
494,493,495,493,489
494,494,495,493,489
494,494,495,493,488
494,495,495,493,487
494,495,495,493,487
494,493,495,493,487
494,493,495,493,487
494,494,495,493,488
494,494,495,493,489
494,495,495,493,489
494,495,495,494,490
494,495,495,493,490
494,495,495,493,489
494,494,495,493,489
494,494,495,493,488
493,494,495,493,488
493,494,495,494,487
494,494,495,494,487
494,494,495,493,487
494,494,495,493,487
494,494,495,493,488
494,494,495,493,489
494,494,495,493,489
494,494,495,493,489
494,494,495,493,489
494,494,495,493,489
494,494,495,493,488
494,494,495,493,488
494,494,495,494,487
494,494,495,493,487
494,494,495,493,487
494,494,495,493,487
494,494,495,493,487
494,493,495,493,488
494,493,495,493,489
494,493,495,493,489
494,493,495,494,490
494,492,495,493,489
494,493,495,493,489
494,493,494,493,488
494,494,495,493,488
494,494,495,493,487
494,495,495,493,487
494,497,495,493,487
494,496,495,493,487
494,495,495,493,488
494,495,495,493,488
494,495,495,493,489
494,494,495,493,489
494,494,495,493,489
494,494,495,493,489
494,494,495,493,489
494,494,495,493,488
494,494,495,493,487
494,494,495,493,487
494,494,495,493,486
494,494,495,493,487
494,494,495,493,487
494,494,495,493,488
494,494,495,493,488
494,494,495,493,489
494,494,495,493,489
494,494,495,493,489
494,494,495,493,489
494,494,495,493,488
494,494,495,493,487
494,494,495,493,487
494,494,495,493,486
494,494,495,493,486
494,494,495,493,486
494,494,495,493,487
494,494,495,493,488
494,495,495,493,489
494,494,495,493,489
494,494,495,493,489
494,494,495,493,489
494,494,495,493,488
494,494,495,493,488
494,494,495,493,487
494,495,495,493,486
494,494,495,493,486
494,494,495,493,487
494,494,495,493,487
494,494,495,493,488
494,494,495,493,489
494,494,495,493,489
494,494,495,493,489
494,494,495,494,490
494,494,495,493,489
494,494,495,493,489
494,493,495,494,488
494,492,495,493,487
494,493,495,493,487
494,493,495,493,487
494,494,495,493,487
494,494,495,493,488
494,495,495,493,489
494,496,495,493,490
494,494,495,493,490
494,494,495,493,490
494,494,495,493,490
494,495,495,493,490
495,495,495,493,489
494,494,495,493,489
494,494,495,494,488
494,494,495,493,488
494,494,495,493,488
494,494,495,493,488
494,494,495,493,489
494,495,495,493,490
494,495,495,493,490
494,494,495,493,490
494,494,495,493,490
494,494,495,493,490
494,494,495,493,489
494,493,494,493,489
494,494,496,493,488
494,494,497,493,487
494,494,497,493,487
494,494,498,494,488
494,494,497,493,488
494,494,494,493,489
494,494,492,493,490
494,494,493,493,490
494,494,494,493,490
494,493,494,493,490
494,493,494,493,489
494,494,495,493,489
494,495,495,493,488
493,494,495,490,486
487,489,489,488,487
488,490,490,489,487
489,492,491,489,488
490,492,492,489,488
491,492,492,489,489
491,492,492,490,490
491,493,492,490,490
491,494,492,490,490
491,494,492,490,489
491,495,492,490,489
491,495,492,490,488
491,494,492,489,487
492,494,493,490,486
491,493,492,490,486
491,493,492,490,486
491,493,492,490,486
491,494,492,490,487
492,495,492,490,488
492,495,492,490,488
492,496,492,490,488
492,495,492,490,488
492,494,492,490,488
492,494,493,490,487
492,494,493,490,486
491,494,493,490,486
492,494,492,490,485
492,494,492,490,485
492,494,492,490,486
492,494,492,490,486
492,494,494,490,487
492,494,495,490,488
492,494,496,490,488
491,494,495,490,488
491,494,495,490,488
491,495,491,490,487
491,494,489,490,486
492,494,491,490,486
492,494,491,491,486
492,494,492,491,485
492,494,492,490,486
492,494,492,491,486
492,494,492,491,487
491,494,492,490,487
491,494,492,490,488
492,494,493,490,488
492,494,492,491,488
491,494,492,490,488
491,493,492,491,487
491,492,492,491,487
492,492,492,491,486
492,493,492,491,486
491,494,493,491,486
491,494,492,490,486
491,495,492,490,486
492,495,493,491,487
492,494,493,490,488
491,494,493,491,488
491,494,493,491,488
491,494,493,491,488
491,494,493,492,488
491,494,492,491,487
491,494,492,491,486
491,494,492,491,486
492,494,492,491,485
492,494,492,491,485
492,493,492,491,486
491,493,493,491,487
491,494,493,491,487
491,493,493,491,488
491,493,493,491,488
491,493,493,491,488
491,493,493,491,488
492,493,493,491,487
492,493,493,491,486
492,494,493,491,486
491,494,492,491,485
491,495,493,491,485
492,494,493,491,485
491,494,493,491,486
492,494,493,491,487
492,493,493,491,487
492,493,493,491,488
491,493,493,491,488
492,493,493,491,488
492,494,493,491,488
492,493,495,491,487
491,494,495,491,486
491,493,496,491,486
491,494,495,491,485
491,493,495,491,485
492,493,490,491,485
492,494,490,491,486
492,494,492,491,487
492,494,492,491,488
492,493,493,491,488
492,493,493,491,488
492,493,493,492,488
492,492,493,491,487
492,492,493,491,486
491,493,493,491,486
491,493,493,491,485
491,494,493,492,485
491,494,493,491,485
491,494,493,491,486
491,494,493,491,487
491,493,493,491,487
492,494,493,491,488
491,493,493,491,488
492,493,493,491,488
492,493,493,491,488
492,493,493,492,487
492,493,493,492,486
492,493,493,493,486
492,492,493,491,485
492,493,493,491,485
491,493,493,491,486
492,493,493,491,486
492,493,493,490,487
492,494,494,491,487
492,494,494,491,488
492,493,493,492,488
492,493,492,492,487
491,493,493,492,487
491,494,493,491,486
492,494,493,491,485
492,493,493,491,484
492,493,494,492,484
492,493,494,492,484
492,493,493,492,484
492,492,493,492,485
492,492,493,492,486
492,493,493,492,486
492,493,493,492,487
491,493,493,492,486
491,493,493,492,486
491,495,493,492,485
492,494,493,492,485
491,493,493,492,484
492,492,493,492,483
492,492,493,492,483
492,493,494,492,484
492,493,496,491,484
491,493,496,492,485
492,494,496,491,486
492,495,495,491,486
492,493,493,491,486
492,494,490,492,486
492,494,491,492,485
492,493,492,492,484
492,494,492,491,484
492,493,493,492,483
492,493,493,492,483
492,493,493,492,483
492,493,493,492,484
492,493,493,492,485
492,493,493,492,486
492,493,493,492,486
492,493,493,492,487
492,493,493,492,487
492,493,493,492,486
492,493,493,492,486
492,493,494,491,485
492,493,494,492,485
492,493,494,492,484
492,493,493,491,484
492,493,493,492,485
492,493,493,492,485
492,493,493,492,486
492,494,494,491,487
492,493,493,492,487
492,493,494,492,487
492,493,493,491,487
492,493,493,492,487
492,491,493,492,486
492,491,493,492,485
492,492,493,492,484
492,492,493,492,484
492,493,493,492,484
492,494,493,492,485
492,495,493,492,485
492,494,493,492,486
492,493,493,492,487
492,493,494,492,487
491,493,493,492,487
492,494,493,492,487
492,493,493,492,486
492,493,494,492,486
492,493,493,492,485
492,493,493,492,485
492,493,494,492,485
492,492,493,492,485
492,493,493,492,486
492,493,493,492,487
492,493,493,492,488
492,493,493,492,488
492,493,493,492,489
492,495,494,492,488
492,494,494,492,488
492,493,494,492,487
492,493,495,492,487
492,493,496,492,486
492,493,496,492,486
492,493,496,492,485
492,493,495,492,486
492,493,490,492,486
492,493,490,492,487
492,493,492,492,488
492,493,493,492,488
492,493,493,492,488
492,493,493,492,488
492,493,493,492,487
492,493,493,492,487
492,493,493,492,486
493,493,494,492,485
492,493,494,491,485
492,493,493,492,485
492,493,493,493,486
492,493,493,493,487
492,493,493,492,488
492,493,493,492,488
492,494,494,492,488
492,493,494,492,488
492,493,493,492,488
493,493,494,493,487
492,493,493,492,486
492,493,493,492,486
492,493,493,492,485
492,493,493,492,485
492,493,494,492,486
492,493,494,492,486
492,493,494,492,487
492,493,494,492,488
492,493,493,492,488
492,493,493,492,488
492,493,493,492,488
492,493,494,492,488
492,493,493,492,487
492,493,493,492,486
492,493,494,493,486
492,492,494,493,485
492,492,494,491,485
492,493,494,492,486
492,493,494,492,487
492,493,494,492,487
492,493,494,492,488
492,494,493,492,488
493,493,494,492,488
492,493,494,492,488
492,493,494,492,487
492,493,494,492,487
492,493,494,492,486
493,493,493,492,485
492,493,493,492,485
492,493,493,493,486
492,493,494,493,486
492,493,494,493,487
492,493,494,492,488
492,493,493,492,488
492,493,494,492,488
492,493,494,492,488
493,492,495,492,487
492,492,496,492,487
492,492,496,492,486
492,493,496,492,485
492,493,495,492,485
492,493,491,492,485
493,493,490,492,485
492,493,493,492,486
492,494,493,492,487
492,493,493,492,487
492,492,493,492,488
492,492,494,492,488
492,492,493,492,487
492,493,493,492,487
492,493,493,492,486
492,494,493,492,486
492,494,493,492,485
492,493,493,492,485
493,493,494,492,485
492,493,494,492,486
493,493,494,492,487
492,493,494,493,488
492,493,494,492,488
492,493,494,492,488
493,493,493,492,488
492,493,494,493,488
492,493,494,492,487
492,493,494,492,486
492,493,494,492,486
492,493,494,492,485
493,493,494,492,485
493,493,494,492,486
493,492,494,493,486
493,492,494,492,487
493,492,494,492,488
492,493,494,493,488
493,493,494,493,488
493,493,494,493,488
492,493,493,493,488
492,493,493,492,487
493,493,494,493,487
493,493,494,493,486
493,493,494,493,486
493,494,494,493,486
492,493,494,493,486
493,493,494,492,487
493,493,494,492,488
492,493,494,492,488
493,493,494,493,489
493,493,494,492,489
493,493,494,492,488
492,493,494,492,487
493,493,494,492,487
493,493,494,492,486
492,493,494,493,486
493,493,494,492,486
492,493,494,492,486
492,493,494,492,487
493,493,494,493,488
493,492,494,493,488
493,492,494,493,489
493,493,494,492,489
492,493,494,493,488
493,493,494,493,488
493,493,494,492,487
493,493,495,493,487
492,493,496,492,486
492,493,496,492,486
492,492,496,492,486
493,491,495,492,486
493,491,491,492,487
493,491,490,493,488
493,492,492,493,489
493,493,492,492,489
492,494,493,492,489
492,495,494,492,489
492,494,494,492,488
493,494,494,492,487
492,493,494,493,486
492,493,494,492,486
493,493,494,493,486
492,493,494,493,486
493,493,494,492,486
493,493,494,493,487
492,492,494,493,488
492,492,493,493,489
493,492,494,492,489
493,493,494,493,489
493,493,494,492,488
492,493,494,492,487
492,494,494,492,487
493,493,494,492,486
493,493,494,492,486
493,493,494,492,486
493,493,494,493,486
493,493,494,493,487
493,493,494,492,488
493,493,494,492,488
493,493,494,492,489
493,493,494,492,489
493,492,494,492,489
493,492,494,493,488
493,492,494,492,487
493,493,494,492,486
493,493,494,492,486
493,494,494,492,486
493,493,494,492,486
493,493,494,492,487
493,493,494,492,487
492,493,494,493,488
493,493,494,493,480
605,549,531,518,481
498,491,496,499,480
494,488,495,498,482
494,489,496,498,483
494,490,496,498,483
494,490,496,497,484
494,491,496,497,484
495,491,496,497,485
495,490,497,497,486
495,490,499,497,487
495,491,500,497,489
495,491,500,497,490
496,492,500,497,490
495,493,498,496,490
495,494,494,496,490
495,494,494,496,490
495,493,495,496,489
496,493,496,496,489
496,493,496,496,488
496,493,496,495,488
496,493,496,495,488
496,493,496,495,489
496,493,496,495,489
495,493,498,496,491
496,493,497,497,491
496,493,497,496,491
495,493,497,496,491
495,493,496,496,491
495,493,496,495,490
495,493,497,495,489
495,493,497,495,488
496,493,497,494,488
496,493,497,494,488
496,493,495,495,488
495,493,495,496,489
495,494,495,496,490
495,494,496,496,491
495,493,496,496,491
495,493,498,496,491
495,494,499,495,491
495,493,496,494,490
495,494,500,495,490
496,494,500,495,488
491,487,493,489,487
489,489,494,490,487
490,520,516,503,488
500,497,494,496,487
496,494,494,495,488
496,493,495,495,489
496,493,495,495,490
496,494,496,494,490
495,493,495,495,490
495,494,495,495,490
495,494,495,495,489
496,494,494,495,488
496,493,494,495,488
496,494,493,496,487
496,494,494,495,487
496,494,496,495,488
496,494,497,494,488
496,494,497,494,489
496,494,497,494,490
496,493,496,494,490
496,494,496,494,490
496,494,496,494,490
495,494,497,495,490
495,494,498,496,489
495,494,497,495,489
496,494,497,495,488
496,494,496,495,488
496,493,496,495,488
496,493,496,495,488
495,493,496,495,489
495,493,496,494,490
495,493,496,494,490
495,494,496,494,490
495,495,496,494,490
496,494,496,494,490
495,494,496,495,490
495,494,497,496,489
495,494,496,496,488
495,494,496,494,488
495,494,496,494,487
495,494,496,495,487
495,494,496,494,488
495,494,496,494,489
495,494,496,494,489
495,494,496,495,490
495,494,496,495,490
496,494,496,494,490
495,494,496,494,490
495,493,496,495,489
495,493,496,495,488
495,493,496,495,488
495,493,497,495,487
495,494,499,495,487
496,494,499,494,488
495,495,499,495,488
496,495,498,494,489
496,494,494,494,489
496,494,492,494,490
496,494,495,495,490
495,494,495,494,490
495,494,495,494,489
495,494,496,494,488
496,494,496,494,488
495,494,496,494,487
495,494,496,494,487
495,494,496,494,487
495,494,496,494,487
495,494,496,495,488
496,494,496,494,489
495,494,496,494,490
495,494,496,494,490
495,494,496,494,490
495,494,496,494,489
495,493,496,494,488
495,494,496,494,488
495,494,496,494,487
496,494,496,494,487
495,494,496,494,486
495,494,496,494,487
495,494,496,494,487
495,494,496,494,488
495,494,496,494,489
495,494,496,494,489
495,494,495,495,489
495,494,495,494,489
495,494,495,494,489
496,494,495,494,488
495,493,496,494,487
495,493,496,493,486
495,493,496,494,486
495,493,496,494,486
495,494,496,494,486
495,494,496,494,487
495,495,496,493,488
495,495,496,494,488
495,494,496,494,489
495,494,496,494,488
492,494,496,495,489
496,494,496,494,488
496,495,496,494,487
495,493,496,494,486
495,493,499,494,486
495,493,499,494,486
495,493,499,494,486
495,494,500,493,486
496,494,496,493,487
496,493,494,493,487
495,493,495,495,488
495,494,495,495,488
495,494,493,494,488
496,494,495,494,488
495,495,495,494,487
495,496,495,493,486
494,494,494,494,486
497,495,496,496,486
495,494,495,493,485
495,494,495,493,486
495,494,496,494,487
495,494,495,494,487
495,494,495,494,488
495,494,495,494,488
495,493,494,493,488
495,493,496,494,488
496,494,496,494,487
495,494,495,491,485
490,489,491,489,485
490,491,493,490,485
494,497,497,494,485
514,510,505,499,485
497,495,496,495,485
495,494,495,494,486
495,493,495,494,487
494,494,496,495,488
495,494,496,493,488
494,492,492,489,487
491,498,501,498,488
498,495,496,494,487
495,494,496,494,486
495,494,496,494,486
495,494,495,493,485
495,494,495,493,485
495,494,495,494,486
495,494,495,493,487
495,494,495,493,488
494,492,491,489,488
490,506,505,498,490
497,495,496,494,489
495,494,496,494,489
495,494,495,493,488
495,494,495,493,487
495,494,495,494,487
495,494,495,493,486
495,494,496,494,486
495,494,496,494,487
495,494,496,494,487
495,494,496,494,488
495,494,496,493,489
495,494,496,494,489
495,494,496,494,489
495,494,496,493,489
495,494,495,493,489
490,494,495,490,487
495,501,500,495,487
494,491,493,489,485
489,490,497,493,486
497,495,501,500,487
498,495,499,494,487
495,493,499,494,487
495,493,499,494,488
495,493,496,493,488
490,489,494,494,489
491,490,489,492,490
501,501,499,496,489
496,494,495,493,488
495,494,495,494,488
495,494,495,494,487
495,495,495,494,487
495,495,495,493,486
495,494,495,493,487
495,494,495,494,487
495,494,496,493,488
495,494,495,494,489
495,494,495,495,490
495,494,495,493,490
495,494,495,494,490
495,494,495,494,489
495,494,495,493,489
495,494,496,494,488
495,494,496,494,487
495,493,495,493,487
495,494,496,494,487
495,494,495,494,487
495,494,495,494,488
495,494,495,494,489
495,494,495,494,489
495,494,495,493,490
495,494,495,493,490
495,494,496,493,490
495,494,495,493,489
495,494,496,493,488
495,494,495,494,488
495,494,495,494,487
495,494,496,494,487
495,494,495,493,487
494,493,495,493,487
495,494,495,493,488
495,494,495,493,489
495,494,495,493,489
495,494,495,493,490
495,494,495,493,490
495,494,495,493,489
495,494,495,493,489
495,494,496,494,488
495,494,495,493,487
495,494,495,493,487
495,494,496,493,486
494,494,495,492,487
495,494,496,493,487
495,494,495,494,488
495,494,495,495,489
494,492,492,491,489
490,490,494,496,493
503,499,502,495,491
496,495,499,494,490
495,494,498,492,488
495,494,494,493,488
495,494,492,495,488
495,493,494,494,487
495,493,495,493,487
495,494,494,493,487
494,494,495,493,488
494,495,495,493,489
495,495,495,493,489
489,489,491,489,489
490,491,494,494,492
499,504,508,499,491
498,495,498,494,489
495,492,496,493,488
495,492,494,493,487
495,492,493,494,487
495,494,495,493,487
495,494,494,493,487
494,494,495,495,488
494,494,495,493,489
495,494,495,493,489
495,494,495,493,489
495,494,495,493,490
495,494,495,493,490
494,494,495,493,489
494,495,495,493,488
494,494,495,493,488
495,493,495,493,487
495,493,495,493,487
495,493,495,493,487
494,493,495,493,487
495,494,495,493,488
494,494,495,493,489
494,494,495,493,489
494,493,495,493,490
495,493,495,493,489
495,494,495,493,489
495,494,495,495,489
495,494,495,495,488
495,494,495,494,488
494,494,495,494,487
495,494,496,494,487
494,493,495,493,487
495,494,495,493,487
495,493,495,493,488
495,494,495,493,489
495,494,495,493,490
495,494,495,493,490
494,494,495,493,490
495,494,496,494,489
495,494,497,493,489
495,494,498,493,488
494,494,498,493,487
494,493,498,493,487
495,494,494,493,486
495,494,492,493,487
494,493,494,494,488
494,493,495,493,489
494,493,495,494,489
494,494,495,494,490
494,494,495,493,490
495,494,495,493,490
494,494,495,494,489
494,494,495,495,489
495,494,495,492,488
495,493,495,493,487
494,493,495,493,487
495,493,495,493,487
494,493,495,493,487
494,493,495,493,488
494,494,495,493,489
495,494,495,493,489
495,493,495,494,490
495,492,495,493,490
495,492,495,493,489
494,493,495,493,489
495,493,495,493,488
495,494,495,493,487
495,495,495,494,487
494,495,495,493,487
495,494,495,493,487
494,494,495,493,487
494,494,495,494,488
495,494,495,493,489
494,494,495,493,489
494,493,495,493,490
494,494,495,493,490
494,494,495,493,489
494,494,495,493,488
495,494,495,493,487
494,493,495,493,487
495,494,495,493,487
494,494,495,494,487
494,494,495,493,487
494,494,495,493,488
494,493,495,493,488
494,493,495,493,489
494,494,495,493,489
494,494,495,493,489
494,494,495,493,489
494,494,495,493,489
494,494,496,494,488
494,493,495,492,487
494,494,497,491,486
495,494,498,495,487
495,494,499,493,487
495,494,498,493,487
494,493,495,493,488
495,494,491,493,489
495,494,492,494,489
494,494,494,494,490
494,494,495,494,490
494,494,495,493,489
494,494,495,493,489
494,494,495,493,488
494,494,495,493,487
495,494,495,493,487
494,494,495,493,487
494,494,495,493,487
494,494,495,493,488
494,494,495,493,489
494,494,495,493,489
494,493,495,493,490
494,493,495,493,490
494,493,495,493,490
494,494,495,493,489
494,494,495,493,488
494,494,495,493,488
494,494,495,493,487
494,494,495,493,487
494,494,495,494,487
494,494,495,493,487
494,494,495,493,488
494,494,495,493,489
494,494,495,493,489
494,493,495,493,490
494,492,495,493,490
495,492,495,493,489
494,492,495,493,488
495,493,495,494,488
494,494,496,494,487
494,495,495,493,487
494,494,495,493,487
494,495,495,493,487
494,494,495,493,488
494,494,495,493,489
494,494,495,494,489
494,494,495,493,490
494,494,495,493,490
494,494,495,493,490
494,493,491,488,488
488,489,490,488,488
489,491,491,489,488
490,492,492,489,487
491,493,492,489,487
491,493,493,489,487
492,493,493,490,487
492,493,493,490,488
492,494,493,490,489
492,494,493,490,489
492,494,493,490,489
492,494,493,490,489
492,494,493,490,489
574,541,523,508,484
498,494,496,495,483
494,492,495,494,483
494,492,495,494,483
494,492,495,494,484
494,493,496,494,485
494,493,498,494,486
494,494,499,494,487
495,492,499,494,488
494,492,498,493,488
494,492,494,494,489
494,493,492,494,489
494,493,494,494,489
494,494,494,494,488
494,495,495,493,487
494,494,495,494,487
494,493,495,494,487
494,493,495,493,486
494,493,495,492,487
495,494,495,493,488
494,494,495,495,489
494,493,495,493,489
494,493,495,493,490
494,493,495,493,490
494,493,495,493,490
494,493,495,494,489
494,493,495,493,488
494,493,495,494,488
494,494,495,493,487
494,494,495,493,487
495,493,495,493,487
494,492,493,492,487
493,492,494,491,488
495,493,495,492,489
499,497,497,492,488
488,488,490,489,489
489,490,491,489,490
520,513,506,499,488
496,494,496,494,487
494,493,495,494,486
494,492,491,495,487
495,493,495,494,486
494,493,495,494,486
494,493,495,493,487
494,494,495,493,487
494,494,495,493,488
494,493,495,493,489
494,493,495,493,489
494,493,496,493,489
494,493,495,493,489
494,493,495,493,489
493,489,490,488,487
488,489,490,489,487
489,491,492,489,487
490,491,492,490,487
491,492,492,490,487
491,493,493,490,487
491,493,493,490,488
492,493,493,490,489
492,493,493,490,489
492,493,493,490,489
492,493,493,490,489
492,494,493,489,488
492,494,493,490,488
492,494,493,490,487
492,493,493,490,486
492,493,493,490,485
492,494,495,490,485
492,494,495,490,486
492,494,496,490,486
492,494,495,490,487
492,494,494,490,487
492,493,489,490,488
492,492,490,491,488
492,492,492,492,488
492,493,492,490,487
492,494,492,491,487
492,494,492,490,486
492,494,493,490,485
492,495,493,490,485
492,494,493,490,485
492,494,493,490,485
492,494,493,490,486
492,494,493,490,487
492,494,493,490,487
492,494,493,490,488
492,494,493,490,488
492,494,493,491,488
492,493,493,491,487
492,494,493,490,486
492,493,493,490,486
492,494,493,490,485
492,494,493,490,485
492,493,493,491,485
492,493,493,491,486
492,493,493,491,487
492,493,493,491,484
583,541,524,510,482
497,491,496,497,482
493,490,495,496,483
493,490,495,495,484
494,491,495,495,484
494,491,495,494,484
494,491,495,493,484
494,492,496,497,485
494,492,496,494,485
494,492,496,495,486
494,492,495,494,487
494,492,495,494,488
494,492,495,494,489
494,492,495,494,489
494,492,495,494,489
494,491,491,489,488
487,486,490,488,488
488,488,491,489,488
490,491,492,489,487
490,491,492,489,487
491,492,493,490,487
491,493,493,490,487
492,493,493,490,487
492,493,493,490,488
492,493,493,490,489
492,493,494,489,489
492,493,494,489,489
492,493,494,491,489
492,493,493,491,488
492,493,493,490,488
492,493,493,491,487
492,493,493,490,486
492,493,493,490,486
492,493,495,490,486
492,493,496,490,486
492,493,496,490,487
492,493,496,490,487
492,493,494,490,488
492,494,489,490,488
492,493,491,490,488
493,492,492,490,488
492,492,493,490,487
492,492,493,490,486
492,492,493,491,486
492,493,493,492,486
492,493,493,491,485
492,494,493,490,485
492,494,493,490,485
492,494,493,490,487
492,494,493,490,487
492,494,493,491,488
492,493,493,490,488
492,493,493,491,488
492,493,493,491,488
492,493,493,491,487
492,493,493,491,486
492,493,493,491,486
492,493,493,491,485
492,493,493,491,485
492,493,493,491,485
492,493,493,491,486
492,493,493,491,487
492,493,493,491,488
492,493,493,491,488
492,493,493,491,488
492,493,493,492,488
492,493,493,491,487
492,493,493,490,486
492,493,493,491,486
492,493,493,491,485
492,493,493,491,485
492,493,493,491,485
492,493,494,490,485
492,493,493,492,486
492,493,493,491,487
492,493,493,491,488
492,493,493,491,488
492,493,493,490,488
492,492,493,489,487
492,492,493,492,487
492,492,493,491,486
572,579,548,525,483
502,493,497,497,480
494,489,495,496,481
493,489,495,496,482
493,490,496,495,484
494,490,496,496,486
494,491,496,495,487
494,491,495,494,488
494,491,496,495,488
494,491,496,496,489
494,492,496,496,489
494,492,496,496,488
494,492,496,495,488
494,492,496,495,487
494,491,496,495,487
494,491,496,495,487
495,492,498,495,488
494,492,499,495,489
495,493,499,495,489
495,493,499,495,490
494,492,496,494,490
494,492,492,495,490
495,492,494,495,490
495,492,494,494,489
494,492,495,494,489
494,493,495,494,488
495,493,495,494,487
495,493,496,494,487
494,493,496,494,487
494,493,496,494,488
494,493,496,494,489
495,493,496,494,489
495,491,496,494,490
495,491,495,494,490
495,492,496,494,490
495,492,496,494,490
494,492,495,494,489
494,493,496,494,488
494,494,496,494,488
494,494,496,494,487
495,493,496,494,487
495,493,496,493,487
495,493,496,493,488
494,493,496,493,489
495,493,496,493,489
495,493,496,494,490
494,493,496,494,490
494,493,496,494,490
495,493,496,495,489
494,492,495,494,488
495,493,495,493,488
494,493,495,493,487
494,493,496,493,487
495,493,496,493,487
495,493,496,493,487
494,493,496,493,488
494,493,496,494,489
495,493,496,494,490
495,492,496,495,490
495,493,496,494,490
495,493,495,494,490
495,493,495,494,489
495,493,495,493,488
495,493,496,494,487
494,493,496,494,487
494,493,496,493,487
495,493,496,494,487
495,493,496,493,487
495,493,496,494,488
494,493,496,493,489
495,493,496,493,490
495,492,496,493,490
494,492,496,493,489
494,493,495,492,488
495,493,495,493,488
495,493,495,494,487
494,493,496,496,487
494,494,495,493,486
495,494,495,493,487
495,493,497,493,487
495,493,499,493,488
495,492,499,493,489
495,492,499,493,489
495,493,497,493,489
495,493,492,493,489
495,493,493,493,489
494,494,494,493,488
495,494,495,493,487
495,493,495,493,487
495,493,495,494,486
494,493,495,493,486
494,493,495,494,486
494,493,495,493,487
494,493,495,493,488
495,493,495,493,489
495,493,495,493,489
495,493,495,493,489
495,493,495,493,489
495,493,496,493,488
495,493,496,494,488
495,493,495,493,487
494,493,495,493,487
495,493,495,494,486
494,493,495,493,486
494,493,495,493,487
495,493,495,493,488
494,493,496,493,488
494,493,495,493,489
495,493,496,493,489
495,493,496,493,489
495,493,496,493,489
494,493,496,493,488
494,493,496,493,487
494,493,496,493,487
495,493,495,493,486
495,493,495,493,486
495,493,495,493,486
494,493,496,493,487
494,493,495,493,488
494,493,495,493,488
494,493,495,493,489
495,493,495,493,489
495,492,495,493,489
495,493,495,493,488
495,493,496,493,488
494,493,495,493,487
494,493,496,493,486
494,493,495,493,486
494,492,495,493,486
495,492,496,494,487
495,492,496,493,487
494,493,496,493,488
494,494,496,493,489
494,494,496,493,489
494,495,496,493,489
495,494,495,493,488
495,494,496,492,488
495,493,498,490,486
494,493,499,493,487
495,493,499,495,486
494,493,498,493,486
494,493,493,494,486
495,493,492,494,487
495,493,494,493,488
495,493,495,493,489
495,493,495,493,489
495,493,495,494,490
495,493,495,493,489
495,493,495,493,489
494,493,495,493,488
494,493,495,493,487
494,493,495,493,487
494,493,495,493,486
495,493,495,493,486
494,493,495,493,486
494,493,495,493,487
494,493,495,493,488
494,493,495,493,489
494,493,495,493,489
494,493,495,493,489
494,493,496,493,489
494,493,495,493,488
494,493,495,493,488
495,493,495,493,487
495,493,495,493,486
494,493,495,493,486
494,493,495,493,486
494,493,495,493,487
494,493,495,493,488
494,493,496,493,488
494,493,496,493,489
494,493,495,493,489
494,493,495,493,489
495,493,495,493,489
494,493,495,494,488
495,493,495,493,488
494,492,495,493,487
494,492,495,493,486
494,492,495,493,486
494,493,495,493,487
494,493,496,493,487
494,494,495,493,488
494,495,496,493,489
494,495,495,493,489
494,494,495,493,489
494,493,495,493,489
494,493,495,493,489
494,493,495,494,488
494,493,495,493,487
495,493,495,493,487
494,493,495,493,486
494,493,495,493,487
494,493,495,493,487
494,493,497,493,488
494,493,498,494,489
495,493,498,493,489
494,493,498,493,490
494,493,496,493,490
495,493,492,493,489
494,493,493,493,488
495,494,495,493,488
494,494,495,493,487
494,493,495,494,487
494,493,495,494,486
494,493,495,493,487
495,493,495,492,487
494,493,495,493,488
495,493,495,493,489
494,493,495,495,490
494,493,496,494,490
494,493,495,493,489
494,493,495,491,488
494,493,495,494,488
495,493,495,493,487
495,493,495,493,487
494,493,495,494,487
494,493,495,493,487
494,493,495,493,487
494,493,496,493,488
494,493,496,493,488
494,493,496,493,489
495,493,496,493,489
495,492,495,493,489
494,492,495,494,489
494,493,495,494,489
494,493,495,493,488
494,494,495,493,487
494,494,495,493,487
494,494,495,494,487
494,493,495,494,487
494,493,495,492,487
495,493,495,493,488
494,493,495,493,489
494,493,495,493,489
494,493,495,493,489
494,493,495,493,489
494,493,495,493,489
494,493,495,493,488
494,493,495,493,487
494,493,495,494,487
494,493,495,494,486
494,493,495,493,486
494,493,495,494,487
494,493,495,493,488
494,493,495,493,488
494,493,495,493,489
494,493,495,493,489
494,493,496,493,489
494,493,496,494,489
494,494,495,493,489
495,493,495,493,488
494,493,495,493,487
494,493,495,493,487
494,493,495,493,486
494,493,495,493,487
494,493,495,493,487
494,493,495,493,488
494,493,498,493,489
494,493,498,493,489
494,493,499,493,490
494,493,498,493,490
494,493,495,493,489
495,493,491,493,488
494,493,493,493,488
495,493,494,493,487
495,493,495,494,487
494,493,495,493,487
494,493,495,493,487
494,493,495,493,488
494,493,495,493,489
494,493,495,493,489
494,493,495,493,490
494,493,495,494,490
494,493,495,493,489
494,493,495,493,489
494,494,495,494,488
494,494,495,493,488
494,494,495,493,487
494,493,495,493,486
494,493,495,493,487
494,493,495,493,487
494,493,495,494,488
494,493,495,493,489
494,493,495,492,489
495,493,495,492,489
494,493,496,494,489
494,493,495,493,489
494,493,496,493,489
494,493,495,493,488
494,493,495,493,487
494,493,496,493,487
494,493,496,493,486
494,493,495,492,487
494,493,496,492,487
494,493,495,493,488
494,493,495,494,489
494,493,495,494,489
494,493,495,493,490
494,493,495,494,490
494,493,495,495,489
494,493,495,492,488
494,493,495,492,488
494,493,495,493,487
494,493,495,493,487
494,493,495,493,487
494,493,495,494,487
494,493,495,493,488
495,493,495,493,489
494,493,495,493,489
494,493,495,493,490
494,494,495,493,490
494,494,495,493,489
494,493,497,494,489
494,493,498,493,488
494,493,498,493,488
495,493,498,493,487
494,494,497,493,486
494,494,492,493,486
495,493,492,493,487
495,493,494,493,488
494,493,495,493,489
494,493,495,493,489
494,493,495,494,490
494,494,495,493,490
494,495,495,493,489
494,494,495,493,488
494,493,495,493,488
494,493,495,493,487
494,493,495,493,487
494,493,496,493,486
494,493,495,493,487
494,493,495,493,488
494,493,495,493,488
494,493,495,493,489
494,493,496,493,489
494,493,495,493,490
494,493,495,493,489
494,493,495,493,489
494,493,495,494,488
494,493,495,494,488
494,493,495,493,487
494,494,495,493,487
494,494,495,493,487
494,493,495,493,487
494,493,495,494,488
494,493,495,494,489
494,493,495,493,490
494,493,495,494,490
494,493,495,493,490
494,493,495,493,490
494,493,495,493,489
494,493,495,493,488
494,493,495,493,487
494,493,495,493,487
494,493,495,493,487
494,493,495,490,486
494,493,495,495,488
494,493,496,494,489
494,494,495,493,489
494,493,495,493,490
494,494,495,493,490
494,493,495,493,489
494,493,495,493,489
494,493,495,493,488
494,493,495,493,488
494,493,495,494,487
494,493,495,494,487
494,493,495,493,487
494,492,495,493,487
494,492,495,493,488
494,492,495,494,489
494,493,495,493,490
494,493,495,493,490
494,495,495,493,490
494,495,495,493,490
494,494,495,493,489
494,493,495,493,488
494,493,495,493,487
494,493,495,493,487
494,493,496,493,487
494,493,498,493,487
494,493,498,493,488
494,493,498,493,489
494,493,497,493,489
494,493,493,493,489
494,493,492,493,490
495,493,494,493,490
494,493,495,493,489
494,493,495,493,488
494,493,495,493,488
494,493,495,493,487
494,493,495,493,487
494,493,495,493,487
494,493,495,493,487
494,493,495,493,488
494,493,495,494,489
494,493,495,493,489
494,493,495,493,490
494,493,495,494,490
494,493,495,493,489
494,493,495,494,489
494,493,495,494,489
494,493,495,494,488
494,493,495,493,487
494,492,495,493,487
494,493,495,493,487
494,493,495,493,488
494,493,495,495,489
494,493,495,493,489
494,494,495,493,490
494,494,495,493,490
494,493,495,493,490
494,493,495,493,489
494,493,495,493,489
494,493,495,493,488
494,493,495,493,487
494,493,495,493,487
495,493,495,493,487
494,493,495,493,487
495,493,495,493,488
494,493,495,493,489
494,493,495,493,489
494,493,495,493,490
494,493,495,493,490
494,493,495,493,489
494,493,495,493,489
494,493,495,493,488
494,493,495,493,488
494,493,495,493,487
494,493,496,493,487
494,493,498,493,487
494,493,498,493,488
494,493,498,493,488
494,493,497,493,489
494,493,493,493,490
494,493,492,493,490
494,493,494,493,490
494,493,495,492,489
494,493,495,493,489
494,493,495,494,488
494,493,495,493,488
494,493,495,493,487
494,493,495,493,487
494,492,495,493,488
494,492,495,493,488
494,492,495,493,489
494,492,495,493,490
494,493,495,493,491
494,494,495,493,491
494,495,495,494,491
494,494,495,493,490
494,493,495,492,489
494,493,495,493,488
494,493,495,494,488
494,493,495,494,488
494,493,495,493,488
494,493,495,493,488
494,493,495,493,489
494,493,495,493,490
494,493,495,493,490
494,493,495,493,491
494,493,495,493,491
494,493,495,493,490
494,493,495,493,489
494,493,495,493,489
494,493,495,493,488
494,493,495,493,487
494,493,495,493,487
494,493,495,493,488
494,493,495,493,488
494,493,495,493,489
494,493,495,493,490
494,493,495,493,490
494,493,495,493,491
494,493,495,493,490
494,493,495,493,490
494,493,495,493,489
494,493,495,494,489
494,493,495,494,488
494,493,495,493,488
494,493,495,494,488
494,493,495,493,488
494,493,496,493,489
494,493,499,493,490
494,493,498,494,491
494,493,499,493,491
494,493,497,493,491
495,493,492,493,490
495,493,492,493,490
494,493,494,493,489
494,493,495,493,488
495,493,495,493,488
494,493,495,494,487
494,493,495,494,488
494,493,495,494,488
494,493,495,493,489
494,493,495,493,490
494,493,495,493,490
494,493,495,493,491
494,493,495,494,491
494,493,495,493,490
494,493,495,493,489
494,494,495,493,488
494,492,495,492,487
494,492,495,493,487
495,492,495,495,488
494,493,495,493,488
494,494,495,493,488
494,494,496,493,489
494,495,495,493,489
494,494,495,493,490
494,494,496,493,490
494,494,495,493,490
494,493,495,494,489
494,493,495,493,488
494,493,495,493,488
494,493,495,493,487
494,493,495,493,487
494,493,495,493,487
494,493,495,493,487
494,493,495,493,488
494,493,495,493,489
494,493,495,493,490
494,493,495,493,490
494,493,495,493,490
494,493,495,493,489
494,493,495,493,489
494,493,495,493,488
494,493,495,493,487
494,493,495,493,487
494,493,496,493,487
494,493,498,493,487
494,493,498,493,488
494,493,498,493,489
494,494,497,493,489
494,493,493,493,489
494,494,492,493,490
494,493,494,493,489
494,493,495,493,489
494,493,495,493,488
494,493,495,493,488
494,493,495,494,487
494,493,495,493,487
494,493,495,493,487
494,493,495,493,487
494,493,495,493,488
494,493,495,493,489
494,493,495,493,489
494,493,495,493,490
494,493,495,493,489
494,493,495,493,489
494,493,495,493,488
494,493,495,493,488
494,493,495,493,487
494,493,495,493,487
494,493,495,493,487
494,493,495,493,487
494,493,495,493,487
494,493,495,493,488
494,493,495,493,489
494,492,495,493,489
494,492,495,493,490
494,492,495,493,489
494,493,495,493,489
494,493,495,493,488
494,494,495,494,488
494,495,495,494,487
494,494,495,492,486
494,493,495,493,487
494,493,495,494,487
494,493,495,493,488
494,493,495,493,489
494,494,495,493,489
494,493,495,493,490
494,493,495,493,490
494,493,495,493,489
494,493,495,493,489
494,493,495,493,488
494,493,495,494,488
494,493,495,493,487
494,493,495,493,487
494,493,495,493,487
494,493,495,493,488
494,493,495,493,489
494,493,495,493,489
494,493,495,493,490
494,493,495,491,490
494,493,495,494,490
494,493,496,494,490
494,493,495,493,489
494,493,495,493,488
494,493,497,493,487
494,493,498,493,487
494,493,498,493,487
494,493,498,493,487
494,493,496,493,488
494,494,492,493,489
494,493,493,493,490
494,493,494,493,490
494,493,495,493,490
494,493,495,493,490
494,493,495,493,489
494,493,495,493,488
494,493,495,493,488
494,493,495,493,487
494,494,495,493,487
494,493,495,493,487
494,493,495,492,487
494,493,495,493,488
494,493,495,493,489
494,493,495,493,490
494,493,495,493,490
494,493,495,493,490
494,494,495,493,489
494,493,495,493,489
494,493,495,493,488
494,493,496,493,487
494,493,495,493,487
494,492,495,493,487
494,492,495,493,487
494,492,495,493,488
494,493,495,494,489
494,493,495,493,489
494,493,495,493,490
494,494,495,493,490
494,494,495,493,489
494,493,495,493,489
494,493,495,493,488
494,493,495,492,487
494,493,495,492,487
494,493,495,493,486
494,493,495,493,486
494,493,495,493,487
494,493,495,493,488
494,493,495,493,488
494,493,495,493,489
494,493,495,494,490
494,493,495,494,490
494,493,495,493,489
494,493,495,494,489
494,493,495,493,488
494,493,495,493,487
494,493,495,493,487
494,493,495,493,487
494,493,497,493,487
494,493,498,493,488
494,493,498,493,488
494,493,498,493,489
494,493,497,493,489
494,493,492,495,490
494,494,492,493,489
494,493,494,493,489
494,493,495,493,488
494,493,495,493,487
494,493,495,494,487
494,493,495,493,487
494,493,495,493,487
494,493,495,493,487
494,493,495,493,488
494,493,495,493,489
494,493,495,493,489
494,493,495,493,490
494,493,495,493,490
494,493,495,494,489
494,493,495,493,489
494,493,495,493,488
494,493,495,492,487
494,493,495,493,487
494,493,495,494,487
494,493,495,494,487
494,493,495,493,487
494,492,495,493,488
494,492,495,493,489
494,492,495,493,490
494,492,495,493,490
494,493,495,493,489
494,493,495,493,489
494,493,495,493,488
494,494,495,493,488
494,493,495,493,487
494,493,495,493,487
494,493,495,493,487
494,494,495,493,487
494,493,495,493,488
494,493,495,493,488
494,493,495,493,489
494,493,495,493,489
494,493,495,493,490
494,493,495,493,489
494,493,495,493,489
494,493,495,493,488
494,493,495,493,487
494,493,495,493,487
494,493,495,493,486
494,493,495,493,487
494,493,495,494,487
494,493,495,493,488
494,493,495,493,489
494,493,495,493,489
494,493,495,493,490
494,493,495,493,489
494,493,495,493,489
494,493,495,493,489
494,493,495,493,488
494,493,495,493,487
494,493,495,493,487
494,493,495,493,487
494,493,496,493,487
494,493,498,493,488
494,493,498,493,489
495,494,498,493,490
494,493,497,493,490
494,493,492,493,490
495,493,491,493,490
494,493,494,493,489
494,493,495,493,489
494,493,495,493,488
494,493,495,493,487
494,493,495,493,487
494,493,495,493,487
494,493,495,493,487
494,493,495,493,488
494,492,495,495,489
494,492,495,492,490
495,492,495,492,490
494,492,495,494,490
494,493,495,494,490
494,493,495,493,489
494,495,495,493,488
494,495,495,493,488
494,493,495,493,487
494,493,495,493,487
494,493,495,493,487
494,493,495,493,488
494,493,495,493,489
494,493,495,493,489
494,493,495,493,490
494,493,495,493,490
494,493,495,493,490
494,493,495,493,489
494,493,495,493,489
494,493,495,493,488
494,493,495,493,487
494,493,495,493,487
494,493,495,493,487
494,493,495,491,487
494,493,495,492,488
494,493,495,494,489
494,493,495,493,489
494,493,495,493,490
494,493,495,493,490
494,493,495,494,490
494,493,495,495,489
494,493,496,493,488
494,493,497,493,488
494,493,499,493,487
494,494,498,493,487
494,493,498,492,487
494,493,495,493,487
494,493,491,493,488
494,493,493,494,489
494,493,494,494,490
494,493,495,493,490
494,493,495,493,490
494,494,495,493,489
494,493,495,493,488
494,492,495,493,488
494,493,495,493,487
494,493,495,493,487
494,493,495,493,487
494,494,495,493,487
494,494,495,493,488
494,494,495,493,489
494,493,495,493,489
494,493,495,493,490
494,493,495,493,490
494,494,495,493,489
494,494,495,493,489
494,493,495,493,488
494,493,495,493,487
494,494,495,494,487
494,494,495,493,487
494,493,495,493,487
494,493,495,493,487
494,493,495,493,488
494,493,495,494,489
494,493,495,494,489
494,494,495,493,490
494,493,495,493,489
494,493,495,493,489
494,493,495,493,488
494,493,495,493,488
494,493,495,493,487
494,494,495,493,486
494,493,495,493,486
494,493,495,493,487
494,493,495,493,487
494,493,495,493,488
494,493,495,493,489
494,494,495,493,489
494,494,495,493,489
494,494,495,493,489
494,493,495,494,489
494,493,495,493,488
494,494,495,493,487
494,494,495,493,487
494,493,495,493,486
494,493,495,493,487
494,494,495,494,487
494,493,495,494,488
494,494,495,492,489
494,494,495,493,489
494,494,495,493,490
494,494,498,493,490
494,494,498,493,489
494,494,498,493,489
494,494,498,493,488
494,494,494,493,487
495,494,491,493,487
494,494,493,493,486
494,494,494,493,487
494,494,495,493,488
494,493,495,493,489
494,494,495,493,489
494,494,495,493,490
494,494,495,493,490
494,494,495,493,489
494,494,495,494,489
494,495,495,493,488
494,495,495,491,487
494,495,495,494,487
494,494,495,494,487
494,494,495,493,487
494,494,495,493,487
494,494,495,493,488
494,494,495,493,489
494,494,495,493,489
494,494,495,493,490
494,494,495,495,490
494,493,495,495,490
494,493,495,493,489
494,493,495,493,488
494,493,494,493,487
494,494,495,493,487
494,495,495,493,487
494,496,495,493,487
494,495,495,493,487
494,494,495,493,488
494,495,495,493,489
494,494,495,493,489
494,494,495,493,489
494,495,495,493,489
494,495,498,493,489
494,495,498,493,488
494,494,499,493,488
494,494,498,493,487
494,494,494,493,486
494,494,491,493,487
494,494,493,493,487
494,494,494,493,488
494,495,495,493,489
494,495,495,493,489
494,495,495,493,490
494,494,495,493,489
494,495,495,493,489
494,494,495,493,489
494,495,495,493,488
494,495,495,493,487
494,494,495,493,487
494,494,495,493,486
494,494,495,494,487
494,494,495,494,487
494,494,495,493,488
494,494,495,493,489
494,494,495,493,489
494,494,495,494,490
494,494,495,493,489
494,495,495,493,489
494,494,495,493,488
494,494,495,493,488
494,494,495,493,487
494,494,495,493,486
494,494,495,493,486
494,493,495,493,487
494,493,495,493,488
494,493,495,493,488
494,493,495,493,489
494,494,495,493,490
494,494,495,493,490
494,495,495,493,489
494,496,495,493,489
494,496,495,495,488
494,495,495,493,488
494,494,495,494,487
494,495,495,493,487
494,495,495,493,487
494,495,495,493,487
494,495,495,493,488
494,494,495,493,489
494,494,496,493,490
494,494,498,493,490
494,494,499,493,490
494,495,498,493,490
494,495,496,493,489
494,495,492,493,488
494,495,492,491,487
494,495,494,493,487
494,495,495,494,487
494,495,495,493,487
494,495,495,493,488
494,494,495,493,488
495,495,495,493,489
494,495,495,494,490
494,495,495,494,490
494,494,495,493,490
494,495,495,493,489
494,494,495,493,488
494,495,495,493,487
494,495,496,493,487
494,495,495,493,486
494,495,495,493,486
494,495,495,494,487
494,495,495,493,488
494,495,495,493,488
494,495,495,493,489
494,495,495,493,489
494,495,495,493,489
494,495,495,494,489
494,495,495,493,488
494,495,495,493,488
494,495,495,493,487
494,495,495,493,487
494,495,495,493,486
494,495,496,493,487
494,495,498,493,487
494,495,498,493,488
494,495,498,493,489
494,495,496,493,489
494,495,491,493,489
494,495,492,493,489
494,495,493,493,489
495,495,493,493,488
494,494,492,493,487
494,494,491,493,487
494,494,492,493,486
494,495,494,493,487
494,495,495,493,487
494,495,498,493,488
494,496,497,493,489
494,496,496,493,489
494,495,495,493,489
494,495,495,493,489
494,495,495,493,489
494,495,495,493,488
494,495,496,493,488
494,495,495,494,487
494,495,497,493,487
494,495,497,493,486
494,495,497,493,487
494,495,497,493,487
494,495,496,493,488
494,496,493,493,489
494,495,494,494,490
494,495,495,493,490
494,495,495,493,490
494,495,495,494,489
494,495,495,494,489
494,495,496,493,488
494,495,495,493,487
494,495,495,493,487
494,495,495,493,487
494,496,497,493,487
494,495,498,493,488
494,496,499,494,489
494,495,500,494,490
494,496,496,493,490
494,495,492,494,490
494,495,493,493,489
494,496,492,493,489
494,495,492,493,488
494,495,493,493,487
494,496,493,493,487
494,495,492,495,487
494,495,494,494,487
494,495,494,493,487
494,495,495,492,488
494,495,495,493,489
494,496,497,494,490
494,495,498,493,490
494,495,496,493,490
494,495,494,494,489
494,495,494,493,488
494,495,494,492,487
494,496,495,492,487
494,496,496,494,487
494,495,495,494,487
494,495,496,493,487
494,495,496,493,487
494,495,495,493,488
494,495,495,493,489
494,495,495,493,489
494,496,495,493,490
494,495,496,493,489
494,495,496,493,489
494,495,496,493,488
494,495,495,494,488
494,495,495,493,487
494,495,495,493,487
494,495,495,493,487
494,495,497,493,487
494,495,498,493,488
494,496,498,493,489
494,495,498,493,489
494,496,496,493,489
494,495,492,493,489
494,496,495,493,489
494,495,496,493,489
494,495,497,493,488
494,495,496,494,488
494,495,494,494,487
494,495,492,493,487
494,496,494,494,487
494,495,494,494,488
494,495,495,493,489
494,495,495,493,489
494,496,495,493,490
494,496,496,493,490
494,495,496,494,490
494,496,496,493,489
494,495,496,493,488
494,496,493,493,488
494,496,495,494,487
494,496,495,493,487
494,496,495,493,487
494,496,495,493,487
494,495,495,493,488
494,495,495,493,489
494,495,495,493,489
494,495,495,493,489
494,496,495,493,489
494,496,494,493,489
494,496,494,493,489
494,495,494,493,488
495,495,494,493,487
494,495,494,494,487
494,495,496,493,487
494,495,496,493,487
494,495,496,493,487
494,495,495,493,488
494,495,495,493,489
494,495,495,493,489
494,496,495,493,489
494,496,495,493,489
494,495,496,494,489
494,495,498,493,488
494,495,498,493,488
494,495,499,493,487
494,495,497,493,486
494,495,492,493,486
494,495,493,493,487
494,495,494,493,488
494,495,495,493,488
494,495,495,494,489
494,495,495,493,490
494,496,494,493,490
494,496,495,493,489
494,496,495,493,489
494,495,496,494,488
494,495,497,493,487
494,496,497,493,487
494,495,497,491,486
494,495,497,494,487
494,495,493,493,487
494,495,494,494,488
494,495,495,494,489
494,495,495,493,490
494,495,495,494,490
494,495,495,494,490
494,495,495,492,489
494,496,495,493,488
494,495,495,493,488
494,495,495,493,487
494,493,495,493,486
494,494,495,493,487
494,494,495,493,487
494,495,495,493,487
494,495,495,493,488
494,496,495,494,489
494,497,495,493,489
494,496,495,493,490
494,495,495,493,489
494,495,495,493,489
494,495,496,493,488
494,496,497,493,488
494,496,497,493,487
494,496,498,493,487
494,496,498,493,487
494,495,496,493,487
494,495,496,493,488
494,496,496,493,488
495,495,491,493,489
494,495,492,494,489
494,495,494,493,489
494,495,495,493,489
494,495,495,493,488
494,495,495,493,488
494,495,495,493,487
494,495,495,493,487
494,495,495,493,486
494,495,495,493,487
494,495,495,493,487
494,494,495,493,488
494,494,495,493,489
494,494,495,493,489
494,494,494,493,489
494,495,494,493,489
494,495,493,493,489
494,495,494,493,488
494,495,494,493,488
494,495,496,492,487
494,494,497,492,486
494,495,496,493,486
494,494,495,494,487
494,495,495,493,488
494,495,494,493,489
494,494,494,493,489
494,494,495,493,490
494,494,495,493,490
494,495,495,493,489
494,495,495,493,489
494,495,495,493,488
494,495,495,494,488
494,494,495,493,487
494,494,495,493,486
494,494,495,493,487
494,495,495,493,487
494,494,495,493,488
494,494,495,493,488
494,494,496,493,489
494,494,497,493,489
494,495,497,493,489
494,495,500,492,489
494,495,501,493,488
494,495,498,493,487
494,495,495,492,486
494,495,493,493,486
494,495,490,495,486
495,495,492,494,486
494,495,494,493,487
495,495,495,492,488
494,495,495,493,488
494,494,495,493,489
494,494,494,494,489
494,495,494,493,489
494,495,495,493,488
494,495,495,493,488
494,495,494,493,487
494,495,494,493,486
494,495,494,492,485
494,495,494,492,486
494,494,495,494,487
494,494,495,493,488
494,495,495,493,488
494,494,495,493,489
494,495,495,493,489
494,495,495,493,489
494,495,495,493,489
494,495,495,493,488
494,495,495,493,487
494,495,494,493,487
494,495,493,493,486
494,495,493,493,486
494,495,493,495,487
494,495,494,494,488
494,495,495,493,488
494,494,496,493,489
494,494,496,493,489
494,495,495,495,490
494,495,495,492,489
494,495,495,493,489
494,495,495,493,488
494,494,495,493,487
494,495,495,493,486
494,495,495,493,486
494,495,495,493,486
494,495,495,493,487
494,495,495,493,487
494,495,495,493,488
494,495,495,493,489
494,495,495,493,489
494,495,495,493,489
494,495,495,493,489
494,494,495,493,488
494,495,495,493,487
494,495,495,493,487
494,495,495,493,486
494,495,495,493,486
494,495,495,493,486
494,494,495,493,487
494,494,495,493,488
494,494,497,493,489
494,495,498,493,489
494,495,498,493,489
494,495,498,493,489
494,495,493,492,488
494,495,492,493,488
494,495,494,494,487
494,494,494,494,487
494,494,494,493,486
494,495,494,493,486
494,495,495,493,487
494,495,495,493,487
494,495,495,493,488
494,494,495,493,489
494,494,495,493,489
494,495,495,493,489
494,495,495,493,489
494,495,495,493,488
494,495,495,493,488
494,495,495,493,487
494,495,495,493,486
494,495,495,493,486
494,495,495,493,486
494,495,495,493,487
494,495,495,493,488
494,494,495,493,489
494,495,495,493,489
494,494,495,493,489
494,495,495,493,489
494,495,495,492,489
494,495,495,493,488
494,494,495,494,488
494,495,495,492,486
494,494,495,492,486
494,494,495,493,486
494,493,495,493,486
494,494,494,495,488
494,494,495,494,489
494,495,493,493,489
494,496,493,492,489
494,496,493,491,489
494,496,493,495,489
494,495,496,493,489
494,495,499,493,488
494,495,501,492,487
494,495,500,493,487
494,495,496,493,486
494,495,491,493,486
494,495,493,493,487
494,495,494,494,488
494,495,494,493,489
494,494,494,493,489
494,495,494,493,490
494,495,495,493,490
494,494,495,493,489
494,494,495,493,488
494,495,495,493,488
494,495,495,493,487
494,494,495,493,487
494,495,495,493,487
494,494,495,493,487
494,495,495,493,488
494,495,495,493,489
494,495,494,493,489
494,494,495,493,489
494,495,495,493,490
494,495,495,493,489
494,495,495,493,489
494,495,495,493,488
494,495,495,493,488
494,494,495,493,487
494,494,496,493,487
494,495,497,493,487
494,494,497,493,487
494,494,497,493,488
494,494,494,493,488
494,494,493,493,489
494,494,494,494,490
494,495,494,493,490
494,495,495,493,489
494,495,495,493,489
494,495,495,495,489
494,494,495,494,488
494,494,495,493,487
494,494,495,493,487
494,494,495,493,487
494,494,495,493,488
494,495,495,493,488
494,495,495,493,489
494,495,495,493,490
494,495,495,493,490
494,495,495,494,490
494,495,494,494,489
494,495,495,493,489
494,494,497,493,488
494,494,498,493,487
494,494,498,493,487
494,494,496,493,487
494,495,491,492,487
494,495,492,493,488
494,495,494,493,489
494,495,494,493,489
494,495,494,493,490
495,495,494,492,490
494,495,494,493,489
494,495,494,493,488
494,495,495,493,488
494,494,494,493,487
494,494,495,493,487
494,494,495,493,486
494,494,495,493,487
494,494,495,493,487
494,495,495,493,488
494,495,495,493,489
494,495,494,493,489
494,494,494,493,489
494,494,494,493,489
494,495,495,493,489
494,495,496,493,488
494,495,495,493,487
494,494,494,493,486
494,494,493,493,486
494,494,493,493,486
494,494,493,493,486
494,494,495,493,487
494,494,496,493,488
494,494,495,493,489
494,494,495,493,489
494,494,495,492,489
494,494,496,492,489
494,494,495,492,488
494,494,495,492,487
494,494,495,493,487
493,494,495,494,486
494,494,495,493,486
494,495,495,493,486
494,494,494,493,487
494,494,495,493,488
494,494,496,493,489
494,494,497,493,489
494,494,496,493,489
494,495,496,493,489
494,495,496,493,489
494,495,493,493,488
494,495,493,493,488
494,494,494,493,487
494,495,496,493,486
494,495,498,493,486
494,494,498,493,487
494,495,498,493,487
494,494,496,493,488
494,494,491,493,489
494,494,492,493,489
494,494,493,493,489
494,494,494,493,489
494,495,494,493,489
494,495,495,493,488
494,495,494,493,487
494,494,494,493,487
494,494,495,493,486
494,495,495,493,487
494,495,495,493,487
494,494,495,492,487
494,494,495,492,489
494,494,495,494,489
494,494,495,493,489
494,494,495,493,489
494,494,495,493,489
494,494,495,493,488
494,494,495,493,488
494,495,495,493,487
494,494,495,493,486
494,494,495,493,486
494,494,495,493,486
494,494,495,493,487
494,494,495,493,488
494,494,495,493,489
494,494,495,493,489
494,494,495,493,489
494,494,495,493,489
494,494,495,493,489
494,494,495,493,488
494,494,495,493,487
494,494,495,493,487
494,494,495,492,486
494,494,495,492,486
494,494,495,493,487
494,494,495,492,487
494,494,495,492,488
494,494,496,493,489
494,494,495,493,489
494,494,495,493,489
494,494,495,494,489
494,494,495,493,488
494,494,495,493,488
494,494,495,493,487
494,494,497,493,486
494,494,498,493,486
494,494,498,493,487
494,494,498,493,487
494,494,494,493,488
494,494,490,494,489
494,494,492,494,490
494,494,493,494,490
494,494,494,493,490
494,494,495,493,489
494,494,494,493,488
494,494,495,493,488
494,494,495,493,487
494,494,495,493,487
494,494,495,494,487
494,494,495,493,487
494,494,495,493,488
494,494,495,493,489
494,494,495,493,489
494,494,495,492,490
494,494,495,493,490
494,495,495,493,489
494,495,494,493,489
494,494,494,493,488
494,494,494,493,487
494,494,494,493,487
494,494,494,493,486
494,493,494,493,487
494,493,495,493,487
494,493,497,493,488
494,493,496,492,489
494,494,495,492,489
494,494,495,493,490
494,494,495,493,490
494,494,495,493,489
494,494,495,493,488
494,495,495,493,488
494,494,495,493,487
494,494,495,493,487
494,494,495,493,487
494,494,496,493,487
494,494,497,494,488
494,494,499,494,489
494,494,498,493,490
494,494,497,493,490
494,494,492,492,490
494,494,492,493,489
494,494,493,493,489
494,494,494,493,488
494,494,495,493,488
494,494,496,493,487
494,494,496,493,487
494,494,497,493,487
494,494,496,493,487
494,494,493,493,488
494,494,493,493,489
494,494,494,493,489
494,494,495,493,490
494,494,495,493,489
494,493,495,493,489
494,494,495,493,488
494,494,495,493,488
494,494,495,493,487
494,495,495,493,487
494,494,495,493,486
494,494,495,493,487
494,494,495,493,488
494,494,495,493,489
494,494,495,493,489
494,494,495,493,490
494,494,495,493,490
494,494,495,493,490
494,493,495,493,489
494,493,495,493,488
494,493,495,493,488
494,493,494,493,487
494,493,494,493,487
494,493,493,493,487
494,494,493,494,487
494,494,494,493,488
494,494,496,492,489
494,495,496,493,489
494,495,496,493,490
494,494,496,492,489
494,494,496,492,489
494,494,495,494,489
494,494,495,493,488
494,494,495,493,487
494,494,495,493,487
494,494,497,493,487
494,494,498,493,487
494,494,498,493,488
494,494,498,493,488
494,494,496,492,489
494,494,491,493,489
494,494,493,493,490
494,494,495,493,489
494,494,495,493,489
494,494,494,493,488
490,488,489,488,487
488,489,491,491,492
506,502,499,491,487
488,489,492,488,487
489,491,493,490,495
510,496,490,487,488
492,506,500,491,488
487,489,489,488,489
493,514,506,497,488
491,497,498,494,489
494,493,493,493,489
496,495,495,493,488
494,494,495,493,487
494,491,490,488,486
487,488,490,488,486
489,490,491,488,486
490,492,491,489,486
490,531,524,507,488
500,496,496,493,487
494,493,495,493,487
494,493,495,493,488
494,493,495,493,489
494,493,495,494,489
494,493,495,493,488
494,493,495,493,488
494,494,495,493,487
494,493,495,493,486
494,494,495,493,486
494,493,494,492,486
489,488,489,487,486
488,489,490,488,487
489,491,491,489,488
490,492,490,488,489
491,492,491,489,489
491,492,493,488,489
491,493,494,488,489
491,493,495,488,488
491,493,495,489,487
491,493,490,490,486
491,494,491,490,486
492,494,492,490,486
492,494,492,489,485
492,494,492,490,486
492,494,492,489,487
492,494,492,490,487
492,494,492,490,488
492,494,492,490,488
492,494,492,490,488
492,494,493,489,487
492,494,492,489,487
492,494,493,490,486
492,494,493,490,485
492,494,493,490,485
492,494,493,490,485
492,494,493,490,485
492,493,493,490,486
492,494,493,490,487
492,494,493,490,487
492,493,493,490,488
492,494,493,490,488
492,494,494,490,488
492,494,494,490,487
492,493,494,490,486
492,493,495,489,485
492,494,493,489,485
492,494,491,490,485
492,493,492,490,485
492,493,492,490,485
492,494,493,490,486
492,494,493,490,487
492,494,493,490,487
492,493,492,490,488
492,493,492,491,488
492,493,493,491,488
492,493,492,490,487
492,494,492,490,486
492,494,492,490,486
492,494,495,490,485
491,493,496,490,485
492,493,496,491,486
492,493,496,490,486
491,493,492,490,487
491,493,489,490,487
492,493,491,490,488
492,493,492,492,489
492,493,492,491,488
492,493,492,491,488
492,493,493,491,487
492,493,493,491,486
492,493,493,491,486
492,493,492,491,486
492,493,492,491,486
492,493,492,491,486
492,493,492,491,487
492,493,492,491,487
492,494,492,490,488
491,493,492,490,488
492,493,492,491,488
492,493,493,491,488
492,493,495,491,487
492,493,494,491,486
492,493,494,491,486
492,493,493,491,485
492,493,493,491,485
492,493,493,491,485
492,493,493,491,486
492,493,493,491,486
492,493,494,491,487
492,493,495,491,488
492,493,495,491,488
492,493,495,491,488
492,493,495,491,487
492,491,492,492,486
492,491,491,491,486
492,492,492,491,485
492,492,493,491,484
492,493,493,490,485
492,493,493,490,485
618,569,541,520,479
500,493,496,498,479
493,489,495,497,481
493,489,496,496,483
493,490,498,496,485
494,490,498,496,485
494,491,498,495,486
494,491,498,495,485
494,492,493,495,485
494,492,492,496,485
494,491,494,496,486
494,492,494,495,486
494,492,495,495,487
494,492,495,495,488
494,492,495,494,489
494,492,495,494,489
494,492,495,494,490
494,492,495,494,490
495,492,495,495,490
494,492,495,495,489
494,492,495,495,488
494,492,495,495,488
494,492,495,495,487
494,492,495,494,487
495,492,495,494,487
495,492,495,494,488
495,493,495,494,489
495,492,495,493,489
494,492,496,493,489
495,493,495,493,489
494,493,496,493,489
495,493,495,493,489
495,493,496,494,488
495,493,495,494,487
495,492,495,494,487
495,493,496,494,486
495,493,496,494,486
495,493,496,494,487
495,493,495,494,488
495,493,496,494,489
495,493,496,494,490
495,493,496,494,490
495,493,495,494,490
495,493,496,494,490
495,493,495,494,489
495,493,496,494,488
495,493,495,493,488
495,493,495,493,487
495,493,495,493,487
494,493,497,494,488
495,492,499,493,488
495,493,499,493,489
495,493,500,493,490
495,493,496,492,489
495,493,491,494,490
495,493,492,494,490
495,493,494,494,490
495,493,495,493,489
495,493,495,492,488
495,493,496,492,487
495,493,495,493,487
494,492,495,494,487
494,492,495,494,487
494,493,495,493,488
495,493,495,493,489
495,493,495,493,489
495,493,495,493,490
495,493,495,493,490
495,493,495,493,489
495,493,495,493,489
495,493,495,493,488
495,493,495,493,488
495,493,495,493,487
495,492,495,493,487
495,491,495,493,487
495,491,495,493,488
495,492,496,494,489
495,492,495,494,489
495,493,495,493,490
495,493,495,493,490
495,494,495,493,490
495,494,495,493,489
495,493,495,493,488
495,493,495,493,488
495,493,495,493,487
495,493,495,493,487
495,493,495,493,487
495,493,495,493,487
495,493,495,493,488
495,493,495,493,489
495,493,495,493,489
495,493,495,493,489
495,493,495,493,489
495,493,495,493,489
495,493,495,493,489
495,493,495,493,488
495,493,495,493,487
495,493,495,493,487
495,493,496,493,486
495,493,496,493,486
495,492,495,493,487
495,493,495,493,488
495,493,497,493,489
495,493,499,493,490
495,493,500,493,490
495,493,500,493,490
495,493,499,493,489
495,493,492,492,488
495,493,490,493,488
495,493,493,493,487
495,493,495,493,487
495,493,494,493,487
495,493,494,494,487
495,493,494,495,488
495,493,495,493,489
495,493,495,493,489
495,493,494,493,490
495,493,493,493,490
495,493,494,493,489
495,493,494,493,489
495,493,495,493,488
494,493,496,492,487
495,493,496,493,487
495,493,496,494,487
495,493,496,494,487
495,493,496,493,487
495,493,495,493,487
495,493,495,493,488
495,493,495,493,489
495,492,495,493,489
495,492,496,493,489
494,492,496,493,489
494,492,496,493,488
495,493,495,493,487
495,493,495,493,487
495,493,496,493,486
495,494,498,493,486
495,494,498,493,486
495,493,498,493,487
495,494,497,492,487
495,493,493,493,488
495,493,493,493,489
495,493,494,493,489
495,493,494,493,489
495,493,495,493,488
495,493,494,493,488
495,493,495,493,487
495,493,495,493,486
494,493,495,493,486
495,493,495,493,486
495,493,495,492,486
495,493,495,492,487
495,493,496,493,488
495,493,497,494,489
495,493,497,493,489
495,493,497,493,489
495,493,497,493,489
495,493,494,493,488
495,493,493,494,488
495,493,494,493,487
495,493,494,493,486
495,493,495,492,486
495,493,495,494,487
495,493,495,493,487
494,493,495,493,488
494,493,495,493,489
495,493,495,493,489
495,493,495,493,489
494,493,495,493,489
495,493,495,493,489
494,493,495,493,488
494,493,495,493,487
494,493,495,493,487
494,493,495,493,486
495,493,495,495,487
494,493,495,492,487
495,493,495,493,487
495,493,494,493,488
495,493,493,493,489
495,493,493,493,489
495,493,495,492,489
494,493,496,493,489
495,493,497,493,488
494,493,496,493,487
495,493,495,493,487
495,493,495,493,486
495,493,495,493,486
495,493,497,493,486
495,493,498,493,487
495,493,498,493,488
495,493,496,493,488
494,493,494,493,489
494,493,491,493,489
495,494,493,492,489
495,493,495,493,489
494,493,495,493,488
494,493,496,493,487
495,492,495,493,486
495,492,495,493,486
495,493,495,493,486
495,493,495,493,486
494,493,495,493,487
494,494,495,493,488
494,494,495,493,488
495,494,495,493,489
495,493,495,493,489
494,493,495,493,489
494,493,495,493,488
494,493,495,493,487
494,493,495,493,487
494,493,495,493,486
494,493,495,493,486
494,493,495,492,486
494,493,495,493,486
494,493,495,493,487
495,493,495,493,488
494,493,495,493,489
495,493,495,492,489
495,493,495,493,489
494,493,496,494,489
495,493,495,493,488
495,493,496,493,487
495,493,496,492,487
495,493,497,493,486
494,493,496,493,486
494,493,495,492,486
494,493,492,492,487
495,494,493,492,488
494,493,493,492,488
495,493,493,493,489
495,493,495,493,489
494,493,496,493,489
494,493,500,493,489
494,493,500,493,488
494,493,496,491,487
495,494,491,492,486
494,493,492,492,486
495,493,494,492,486
495,493,495,493,486
495,492,495,492,487
494,493,496,492,488
495,493,496,493,489
494,493,495,494,489
494,493,494,493,489
494,493,495,493,489
494,494,495,493,488
494,493,495,493,487
494,493,495,493,487
494,493,495,493,486
494,493,495,493,486
494,493,495,493,486
495,494,495,493,487
494,494,495,493,488
494,494,495,492,488
494,493,496,493,489
495,493,495,492,489
494,493,495,493,489
495,493,495,493,488
495,492,495,493,488
495,493,495,493,487
494,493,495,493,486
494,493,495,493,486
494,494,495,493,486
495,494,495,493,486
495,494,495,492,487
495,494,496,493,488
494,494,496,493,489
494,493,497,493,489
494,494,497,493,489
494,493,496,492,489
494,493,496,492,488
494,494,493,493,487
494,493,494,492,487
494,493,495,493,486
494,493,495,493,486
494,493,495,493,486
494,493,494,493,486
494,493,494,494,488
494,493,494,492,488
495,493,494,492,488
494,493,497,492,489
494,494,500,493,489
494,493,500,493,488
495,493,499,493,488
494,493,496,493,487
495,494,492,493,486
495,494,493,493,486
495,494,494,493,486
495,494,495,493,486
495,494,495,493,487
494,493,495,492,488
495,493,495,493,488
495,493,495,492,489
494,493,495,492,489
494,493,496,492,488
494,493,496,493,488
494,493,495,493,487
494,493,495,493,487
494,493,495,494,487
494,493,495,493,486
494,493,495,492,486
495,493,495,492,486
494,493,495,493,487
494,493,495,493,488
494,494,495,493,489
494,494,495,493,489
494,493,495,493,489
494,493,495,493,489
494,493,495,493,488
494,493,495,493,487
494,493,495,493,486
489,487,490,487,485
488,489,491,488,486
490,491,492,489,486
491,492,492,489,487
491,492,492,489,488
491,492,492,489,488
492,493,492,489,489
491,493,493,490,489
492,493,493,489,488
492,493,494,489,488
492,493,493,489,487
492,493,493,488,486
492,493,493,488,485
492,494,493,488,484
492,494,493,489,485
492,494,493,489,485
493,494,493,489,486
492,494,493,489,486
492,493,495,489,487
492,493,496,490,488
492,493,495,490,487
492,493,496,490,487
492,493,495,490,486
492,493,489,490,485
492,494,490,489,485
492,494,491,490,484
492,493,492,490,484
492,493,492,490,484
492,493,492,490,485
492,493,493,490,486
492,493,494,490,486
492,493,495,490,487
492,493,495,490,487
492,493,494,489,487
492,493,490,489,486
492,493,489,490,486
492,493,491,491,485
492,493,491,490,485
492,493,493,490,484
492,493,495,490,484
492,493,494,491,485
492,493,493,491,485
492,493,493,490,486
492,493,493,489,487
493,493,492,490,487
492,493,493,490,487
492,493,493,490,487
492,493,493,491,486
492,493,493,491,486
492,493,493,490,485
492,493,493,490,484
492,493,493,490,484
492,493,493,490,484
492,493,493,490,485
492,493,493,490,486
492,493,493,491,487
492,493,493,491,487
492,493,493,491,488
492,493,493,491,487
492,493,493,491,487
492,493,493,490,486
492,493,494,490,485
492,493,494,490,485
492,493,493,490,484
492,493,493,491,484
492,493,493,491,485
492,493,493,491,485
492,493,493,491,486
