Sensor0,Sensor1,Sensor2,Sensor3,Sensor4

724,496,493,496,493
537,495,493,495,494
372,495,493,495,493
233,494,493,495,493
193,494,494,495,494
208,494,494,494,492
254,494,494,494,492
365,493,494,494,492
508,494,494,494,491
646,493,494,494,491
799,495,494,493,493
840,494,494,495,492
800,495,494,495,493
639,495,493,495,493
454,495,493,495,494
299,494,493,496,493
211,495,494,494,493
192,493,494,493,493
224,493,494,493,494
296,493,494,495,491
413,494,494,494,492
554,495,494,494,492
721,494,494,493,492
839,495,494,494,493
828,493,493,496,492
746,496,494,496,493
552,495,494,495,493
379,494,493,495,494
247,494,493,494,492
199,493,493,495,494
206,494,494,495,493
250,495,494,494,493
342,494,494,494,492
473,494,494,493,492
620,494,494,494,491
786,494,494,494,493
846,494,494,495,492
813,496,493,495,492
670,496,493,495,493
473,495,493,494,494
319,495,493,494,494
219,494,493,495,492
194,492,494,493,494
222,493,494,495,494
282,493,494,495,492
399,494,494,493,492
543,494,494,494,491
695,494,494,494,491
829,495,494,495,492
834,494,493,495,492
767,495,494,495,493
580,495,494,495,493
406,495,493,496,493
256,494,493,495,493
201,495,493,494,492
201,494,493,493,492
238,494,494,494,493
326,494,494,494,493
460,494,494,493,492
603,494,494,494,491
767,494,494,494,491
845,494,494,495,492
819,495,494,495,493
695,495,494,496,494
497,495,493,496,493
338,494,493,495,494
226,495,493,495,493
193,493,493,494,492
215,494,494,495,493
271,494,494,493,492
382,493,494,493,492
522,494,494,494,492
669,493,494,493,493
818,494,494,493,492
836,495,494,494,493
779,495,493,495,495
609,495,494,496,492
429,494,493,495,494
278,494,493,496,494
205,493,493,494,493
198,494,494,494,493
231,493,494,494,493
313,494,494,494,492
440,494,494,494,492
582,493,494,494,492
746,495,494,493,491
843,495,494,494,493
823,495,493,496,493
717,494,494,496,493
522,495,493,495,493
357,495,493,496,493
234,495,493,494,494
193,494,494,495,494
209,495,493,494,493
259,494,494,494,492
362,493,494,494,492
503,493,494,494,493
647,494,494,493,492
807,494,494,494,492
841,495,494,494,492
799,495,493,494,494
635,495,493,496,494
450,495,493,496,493
296,495,493,495,493
210,494,493,494,493
194,494,494,494,492
226,493,494,494,491
298,493,494,494,492
428,493,494,494,491
568,494,494,494,493
723,494,494,493,492
839,496,494,494,494
827,494,494,493,493
743,495,494,495,493
549,495,493,496,493
383,494,493,495,493
241,494,493,495,493
196,494,493,495,493
205,494,494,494,492
250,494,494,495,492
347,494,494,494,492
484,494,494,494,491
626,494,494,494,492
787,494,494,493,492
844,495,494,494,492
809,495,494,495,494
662,495,493,495,494
470,495,493,495,494
315,495,493,494,493
217,494,493,495,493
193,494,493,495,493
220,495,493,494,493
287,494,494,494,494
405,494,494,494,491
547,494,494,494,491
701,494,494,494,492
830,495,494,495,493
832,494,494,495,493
761,495,493,495,494
576,496,493,496,494
404,495,493,495,494
254,495,493,496,494
199,494,493,495,493
202,494,493,495,493
239,494,494,494,492
331,494,494,495,492
467,493,494,494,492
610,494,494,493,492
771,494,494,494,492
845,494,494,495,493
816,495,494,495,492
687,495,493,495,493
493,495,493,495,493
335,495,493,495,493
222,494,493,495,493
191,493,494,494,492
216,494,493,494,493
272,494,494,494,492
386,493,494,494,492
526,493,494,493,492
675,493,494,494,491
817,494,494,493,492
837,496,494,495,492
776,495,493,496,495
600,495,494,496,494
421,495,493,495,493
272,493,493,495,494
205,493,493,494,493
198,494,493,494,494
232,494,494,495,493
317,494,494,494,493
447,494,494,494,491
589,493,494,493,492
749,494,494,494,493
844,495,494,494,493
821,495,494,495,493
709,496,493,496,493
519,495,493,495,493
357,495,493,495,494
230,494,493,495,493
192,494,493,496,492
210,494,493,495,493
261,493,494,493,492
367,494,494,494,492
506,494,494,493,492
650,494,494,496,491
808,494,494,494,492
840,495,494,493,494
796,494,493,495,493
629,495,493,495,493
443,495,493,495,494
291,495,493,495,494
209,495,493,494,493
195,493,493,495,493
226,493,494,493,491
302,493,494,494,493
427,493,494,494,492
569,495,494,493,490
729,494,494,494,491
840,494,494,494,493
826,495,494,494,493
738,495,494,495,493
542,495,493,496,494
376,494,493,495,495
239,494,493,495,492
196,494,493,494,493
207,494,494,495,493
252,495,494,495,493
349,494,494,494,492
492,494,494,494,492
633,495,494,494,489
788,495,494,495,492
842,495,494,495,492
806,495,494,496,492
655,495,493,495,494
465,495,493,494,494
310,495,493,496,493
215,494,493,494,494
193,494,494,494,493
221,494,494,495,492
288,494,494,493,491
408,495,494,493,492
550,494,494,494,492
704,494,494,493,492
834,495,494,495,493
831,495,494,494,493
757,495,493,495,494
570,495,494,494,494
399,495,493,496,493
251,494,493,495,494
197,494,493,494,493
202,494,494,495,492
241,493,494,494,493
334,494,494,493,492
472,494,494,493,490
614,494,494,494,490
775,495,494,493,492
844,495,494,494,492
814,495,494,494,492
681,495,493,495,493
493,495,493,496,495
333,495,493,495,494
221,495,493,495,493
190,494,493,493,493
216,493,494,494,493
275,494,494,494,492
392,494,494,493,492
530,494,494,493,492
680,493,494,494,492
818,494,494,495,493
833,495,494,495,493
773,494,493,495,493
594,496,494,495,494
416,495,493,495,494
266,494,493,495,493
203,493,493,496,493
199,495,494,493,493
233,495,494,494,494
319,494,494,494,492
452,494,494,493,492
595,494,494,493,493
754,494,494,494,492
844,495,494,493,494
821,496,494,495,493
706,495,494,495,493
514,495,493,495,493
351,496,494,495,494
227,495,493,494,492
191,494,493,494,492
210,494,494,494,493
263,494,494,493,493
373,494,494,494,492
513,494,494,494,492
655,493,494,493,492
811,494,494,493,493
839,495,494,494,492
792,495,494,495,493
621,495,493,495,494
439,495,493,495,493
288,495,493,495,492
208,493,493,493,492
195,494,494,494,492
227,494,494,494,492
306,494,494,494,492
434,495,494,493,492
575,494,494,493,492
733,494,494,493,492
839,494,494,495,492
825,495,494,495,492
730,495,493,496,493
540,496,493,495,494
374,495,493,495,495
238,494,493,494,493
194,493,493,495,491
207,494,494,494,492
254,494,494,494,491
354,493,494,494,493
496,494,494,494,493
638,494,494,494,492
795,495,494,493,492
842,495,494,493,492
805,495,493,494,494
649,496,494,495,494
462,495,493,494,494
307,495,493,495,493
213,494,493,496,493
193,494,494,494,492
221,494,494,493,493
291,494,494,494,493
415,494,494,493,492
558,495,494,495,492
711,494,494,493,493
835,495,494,493,492
829,495,494,495,492
752,495,493,495,494
564,494,493,495,493
393,495,493,495,494
247,494,493,495,494
197,493,494,495,495
203,493,493,495,492
242,494,494,494,491
338,494,494,494,492
476,494,494,494,493
618,493,494,493,492
779,494,494,493,492
844,495,494,495,492
812,495,493,494,493
675,496,494,495,493
485,495,493,495,493
328,495,493,496,493
220,494,493,495,493
190,494,494,494,492
216,494,494,494,493
278,494,494,494,493
396,494,494,494,492
535,494,494,494,492
683,494,494,493,493
822,495,494,495,492
833,494,494,494,493
769,495,493,495,492
590,496,493,496,494
413,494,493,496,494
264,495,493,495,492
200,494,493,494,492
198,494,494,494,493
234,494,494,494,492
322,495,494,493,492
457,493,494,493,493
600,494,494,493,492
760,495,494,494,492
844,495,494,494,493
818,494,494,494,493
701,496,494,495,493
509,495,493,495,493
347,495,493,495,493
225,495,493,494,493
190,494,494,494,492
212,494,494,494,493
265,494,494,494,492
376,493,494,494,492
518,494,494,494,492
661,495,494,494,491
812,495,494,494,492
836,493,494,494,493
788,496,493,494,494
615,496,493,495,494
432,495,493,495,493
282,494,493,494,493
205,494,494,494,493
196,493,493,493,493
228,494,494,495,493
308,494,494,493,493
439,494,494,493,493
579,494,494,494,491
737,494,494,493,492
841,495,494,495,493
823,494,494,496,492
724,496,493,495,493
532,495,493,495,493
369,495,493,495,493
234,494,493,495,493
193,495,494,495,493
206,493,494,494,493
255,494,494,493,492
359,494,494,494,490
498,494,494,493,492
641,494,494,493,492
799,495,494,494,492
841,495,494,494,492
802,495,494,495,493
643,495,493,495,494
459,495,493,495,493
302,495,493,494,493
210,494,493,493,493
192,494,494,494,493
223,494,494,494,492
293,494,494,493,491
419,494,494,493,492
561,494,494,493,492
716,494,494,493,492
836,494,494,494,492
827,495,494,493,493
748,496,493,494,493
558,495,493,495,493
388,495,493,496,494
244,494,494,495,494
195,494,493,495,493
204,494,494,494,493
244,494,494,495,491
341,494,494,493,493
481,494,494,493,491
623,494,494,494,492
782,494,494,494,492
844,496,494,493,492
812,495,494,495,493
670,495,493,495,493
478,495,494,494,494
323,494,493,495,493
218,494,493,494,493
191,494,494,494,492
218,494,494,494,492
282,493,494,494,492
401,494,494,493,492
541,494,494,494,492
690,494,494,494,492
825,494,494,493,493
833,495,494,495,493
766,495,493,494,493
584,495,494,495,493
410,495,493,495,494
262,494,493,494,493
200,494,494,494,493
199,494,494,493,494
235,494,494,494,492
325,494,494,493,491
462,495,494,494,492
605,493,494,493,491
764,494,494,492,492
844,495,494,494,493
817,495,494,496,494
694,494,493,495,493
504,494,493,496,494
342,495,493,495,495
224,494,494,494,493
190,494,494,494,493
213,494,494,494,494
267,493,494,494,493
375,494,494,494,491
516,495,494,493,491
666,494,494,493,490
816,494,494,494,492
837,494,494,494,493
782,496,493,495,494
610,495,493,496,495
427,495,493,495,494
276,495,493,495,492
206,494,493,494,494
198,494,493,495,492
232,494,494,494,491
311,492,494,494,493
442,493,494,493,491
585,494,494,493,492
743,494,494,494,493
842,494,494,495,492
824,495,494,494,492
722,496,493,495,493
530,495,493,495,494
365,495,493,495,494
232,494,493,494,493
192,494,494,494,494
208,495,493,493,492
256,494,494,494,492
365,494,494,494,493
507,494,494,492,493
647,494,494,493,491
801,495,494,494,492
840,495,494,494,492
799,495,493,494,493
638,496,493,495,494
457,495,493,496,493
300,495,493,496,493
209,494,493,494,492
193,494,494,495,492
224,494,494,494,493
296,493,494,494,491
424,494,494,493,493
565,494,494,494,491
719,494,494,492,492
838,495,494,494,493
827,494,494,493,493
742,495,494,495,493
554,495,493,495,494
385,495,493,496,494
240,495,493,494,493
195,494,493,493,492
203,493,494,494,494
248,494,494,494,492
343,494,494,493,492
483,494,494,494,492
626,494,494,492,491
785,494,494,493,493
842,495,494,494,492
810,495,494,494,493
665,495,493,495,493
474,495,493,495,493
319,495,493,494,493
215,494,493,494,494
190,494,493,494,494
219,495,493,494,493
282,493,494,493,492
404,494,494,493,492
546,494,494,493,491
696,494,494,493,491
829,495,494,493,493
831,495,494,495,493
762,496,493,496,492
579,496,493,495,493
407,495,493,495,492
256,494,493,494,494
198,494,494,494,493
200,494,494,493,493
237,494,494,494,493
328,493,494,494,493
466,494,494,493,492
608,494,494,492,492
767,493,494,493,492
844,494,494,494,493
815,495,494,494,494
688,495,493,496,493
498,495,493,494,494
339,495,493,494,494
223,493,493,494,493
191,495,494,495,493
214,494,493,495,494
271,493,494,494,493
385,494,494,493,492
524,495,494,493,492
670,494,494,493,492
817,495,494,494,492
836,495,494,494,493
777,495,493,496,494
604,495,494,495,493
427,495,493,495,493
276,494,493,495,493
204,494,494,494,492
197,495,494,493,494
230,493,494,494,491
314,494,494,493,492
447,493,494,493,492
588,494,494,493,493
747,494,494,493,492
843,495,494,494,492
821,495,494,494,492
714,495,493,495,494
522,495,493,495,493
359,494,493,495,493
231,494,493,494,493
191,493,494,494,493
208,493,494,494,492
258,495,494,493,492
365,494,494,494,491
505,495,494,493,490
649,494,494,493,493
805,495,494,493,493
840,496,494,494,493
798,494,493,494,493
632,495,493,496,494
448,495,493,495,494
294,494,493,494,493
209,495,494,495,494
194,493,494,494,493
225,494,494,494,494
301,494,494,494,492
430,494,494,493,493
570,493,494,493,492
725,494,494,492,492
837,494,494,494,492
827,494,494,494,493
739,494,494,496,495
548,495,493,495,493
383,495,493,495,494
238,494,494,495,492
196,494,493,494,494
205,494,494,495,492
248,495,494,494,492
349,494,494,494,492
490,494,494,493,493
629,494,494,494,491
787,494,494,494,492
842,494,494,494,492
807,495,494,494,492
658,496,494,495,493
472,495,493,495,494
315,494,493,495,494
215,493,493,495,493
192,493,493,494,493
218,494,494,494,494
285,494,494,494,492
407,493,494,493,492
548,494,494,493,492
703,494,494,494,492
830,495,494,494,492
830,495,494,495,493
760,495,493,496,495
572,495,493,496,494
399,495,493,494,493
252,494,493,495,492
200,494,493,494,493
202,494,494,494,493
240,494,494,495,493
332,493,494,494,491
468,493,494,494,492
611,494,494,492,492
772,494,494,493,493
845,495,494,494,493
815,494,493,494,493
685,495,494,495,494
493,495,493,494,494
335,495,493,495,494
223,494,493,494,495
192,493,493,494,492
216,494,494,494,494
271,494,494,494,492
390,493,494,494,493
531,494,494,494,493
676,494,494,494,492
817,494,494,494,493
835,494,494,495,494
772,495,493,495,495
600,495,493,496,494
424,494,493,495,494
273,493,493,495,495
204,493,493,495,493
198,494,494,495,492
232,493,494,494,493
318,493,494,494,493
452,494,494,494,492
592,494,494,493,492
752,494,494,493,492
842,494,494,494,491
819,495,494,495,493
708,495,493,495,492
518,494,493,495,495
357,494,493,496,494
230,494,493,494,493
192,493,493,495,493
210,493,494,494,492
262,493,494,493,493
369,494,494,494,493
509,494,494,493,494
652,493,494,493,491
808,494,494,494,492
838,494,494,495,492
794,495,493,495,494
628,496,493,495,494
443,494,493,495,494
290,495,493,494,493
207,494,493,494,493
195,493,494,494,493
227,493,494,495,493
303,494,494,494,493
431,493,494,494,493
572,494,494,493,491
731,494,494,494,492
840,494,494,494,493
825,495,494,494,493
736,496,493,495,494
542,495,494,495,493
377,495,493,494,494
238,495,493,494,492
197,494,493,494,494
207,493,494,494,493
252,494,494,493,493
353,493,494,494,492
495,493,494,493,491
635,493,494,494,492
792,494,494,493,494
842,495,494,494,494
807,494,493,495,493
652,496,493,495,493
467,495,493,495,493
311,494,493,496,494
214,494,493,494,493
193,494,494,494,493
221,493,493,494,493
289,493,494,494,492
415,493,494,493,492
556,494,494,493,492
706,494,494,492,493
833,494,494,494,492
829,494,493,494,492
753,494,493,495,494
569,495,493,495,494
398,495,493,495,494
251,495,493,494,493
197,493,493,495,492
203,494,494,495,493
241,493,494,495,493
336,493,494,494,492
473,493,494,494,491
615,493,494,493,491
776,494,494,494,492
844,494,494,495,494
812,494,493,495,493
680,495,493,495,494
488,495,493,496,494
330,494,493,495,493
221,493,493,495,494
192,493,493,494,492
217,493,494,493,494
276,495,494,494,493
392,493,494,494,492
531,493,494,494,492
683,493,494,493,493
821,494,494,494,492
834,495,494,494,492
770,495,493,496,493
593,495,493,496,494
415,495,493,495,494
266,495,493,495,494
203,493,493,494,493
201,494,494,492,493
232,491,494,496,491
321,493,494,495,492
452,494,494,494,492
594,493,494,492,491
757,493,494,493,492
845,494,494,494,492
820,495,494,494,493
705,495,493,497,495
505,496,494,495,494
344,495,493,495,493
229,495,493,496,494
192,494,493,495,493
215,494,493,494,492
264,494,494,493,492
370,493,494,493,493
510,493,494,493,492
658,494,494,493,491
814,494,494,494,492
839,494,494,494,492
794,495,493,495,493
622,495,493,496,494
440,495,493,495,495
288,494,493,494,495
206,495,494,494,493
196,493,493,494,493
228,494,493,495,492
307,494,494,494,493
438,492,494,494,492
579,493,494,493,493
733,494,494,493,493
839,494,494,494,493
824,494,494,494,492
728,495,494,495,494
537,494,493,495,494
371,494,493,495,493
237,494,494,495,493
193,494,493,494,492
208,493,494,494,493
254,493,494,494,493
352,494,494,494,493
490,493,494,494,493
635,495,494,493,492
798,495,494,494,492
841,495,494,494,492
805,495,493,494,493
648,495,493,496,494
454,495,493,495,493
299,495,493,495,493
215,494,493,494,493
196,493,494,494,493
224,493,494,494,493
293,494,494,493,492
410,494,494,493,492
554,494,494,494,492
716,495,494,494,493
838,494,494,493,492
829,495,494,494,494
754,495,493,495,494
560,495,493,495,493
390,495,493,494,493
247,495,493,494,493
196,494,494,494,493
205,493,494,493,492
244,494,494,494,491
342,493,494,493,492
482,493,494,493,491
621,494,494,494,492
779,494,494,495,492
844,495,494,494,493
812,494,493,495,493
693,495,493,495,495
525,495,493,495,494
370,495,494,495,494
232,493,493,495,494
175,494,493,495,493
202,494,493,494,493
278,492,494,494,493
425,493,494,494,493
569,493,494,494,493
705,493,494,494,493
799,495,494,494,492
814,494,494,494,492
755,495,493,495,492
607,496,493,495,493
444,494,493,496,495
294,494,493,495,493
180,495,493,494,492
176,494,494,494,493
216,493,494,494,493
329,493,494,493,492
484,494,494,494,492
629,494,494,492,492
748,494,494,494,492
820,494,494,494,492
798,494,494,495,494
696,495,493,495,493
532,495,493,496,494
375,494,493,494,493
233,493,493,494,495
163,493,494,495,493
190,494,494,495,491
254,494,494,493,492
396,494,494,493,492
547,494,494,494,492
685,494,494,493,492
785,494,494,493,492
815,496,494,495,492
769,495,493,494,493
626,495,493,494,494
462,495,493,495,494
310,495,493,495,494
191,494,493,495,493
171,494,494,494,492
208,493,494,495,492
310,493,494,493,491
465,494,494,493,490
607,493,494,494,494
710,494,494,494,493
818,495,494,494,493
801,494,494,495,493
706,495,493,495,493
507,495,493,496,494
319,495,493,494,491
230,494,494,494,493
191,494,494,495,493
204,493,494,494,493
252,494,494,495,492
354,494,494,493,493
463,493,494,493,492
641,493,494,493,491
803,495,494,494,492
844,495,494,495,492
804,494,493,495,492
674,495,493,495,494
506,496,493,496,493
274,495,493,494,493
205,495,493,495,493
188,494,494,494,493
217,494,494,494,493
290,493,494,494,492
432,493,494,493,493
583,494,494,493,491
717,494,494,494,493
829,494,494,495,491
822,494,494,493,493
742,495,493,495,493
552,495,493,494,494
399,494,493,495,493
255,494,493,496,495
189,493,493,494,492
199,493,494,495,493
240,494,494,494,492
344,493,494,494,493
491,493,494,493,492
635,494,494,493,492
773,494,494,494,492
836,494,494,494,493
805,494,493,495,493
683,495,493,495,493
516,495,493,495,494
361,495,493,495,493
227,494,493,494,494
172,494,493,495,494
203,494,494,494,493
278,494,494,493,493
428,494,494,494,492
573,494,494,493,492
707,494,494,494,492
801,495,494,494,492
813,495,494,495,492
752,495,493,495,493
601,496,493,495,493
440,494,493,495,494
289,494,493,494,493
178,494,493,494,493
177,494,494,494,492
216,494,494,494,493
324,494,494,493,492
473,494,494,493,493
611,494,494,493,491
743,495,494,493,491
827,495,494,495,493
802,495,494,495,493
684,495,493,494,493
506,495,493,496,493
344,494,493,495,494
210,494,493,494,494
178,493,494,493,493
204,493,494,494,493
261,494,494,494,492
375,493,494,494,491
515,493,494,493,491
661,494,494,494,491
811,495,494,494,492
832,495,494,496,492
778,495,494,495,493
606,495,493,495,495
424,494,493,496,493
275,494,493,495,492
203,494,493,493,493
196,493,494,493,492
229,494,494,494,492
311,493,494,495,491
442,494,494,493,493
586,494,494,494,491
743,494,494,493,492
841,495,494,494,493
822,495,494,495,493
720,495,494,495,493
534,495,493,495,494
371,494,493,495,494
230,494,494,495,494
191,494,494,494,493
207,494,494,494,491
256,493,494,494,493
373,493,494,493,492
518,494,494,494,492
656,495,494,492,492
797,495,494,493,493
836,494,494,494,492
796,494,493,495,493
641,495,493,496,493
468,495,493,496,493
311,495,493,494,493
201,494,494,494,493
187,493,494,494,492
218,493,494,493,492
295,494,494,494,493
432,493,494,493,493
574,493,494,493,492
714,494,494,493,491
831,494,494,494,492
821,495,494,495,493
738,495,493,496,493
556,495,493,495,494
389,495,493,496,493
239,494,493,494,494
191,494,494,495,493
199,495,494,495,493
245,494,494,493,492
343,494,494,493,491
484,494,494,493,493
626,494,494,492,491
782,494,494,493,493
840,494,494,494,492
808,495,494,495,494
664,494,493,495,493
471,494,493,495,495
316,495,493,494,494
215,493,493,494,493
191,494,494,494,492
218,493,494,495,493
284,494,494,493,491
403,494,494,494,492
547,494,494,494,491
698,495,494,494,492
828,495,494,495,492
831,495,494,494,494
760,495,493,495,493
579,495,493,496,493
407,494,493,494,493
256,494,493,495,493
198,494,494,493,493
198,493,494,493,492
236,493,494,494,492
330,493,494,493,492
471,494,494,494,492
611,494,494,493,493
764,493,494,493,492
844,494,494,493,493
815,494,493,495,493
689,495,493,495,494
501,495,493,495,492
340,495,493,494,493
221,494,493,494,493
189,494,494,495,493
213,495,493,495,493
270,494,494,494,493
386,493,494,493,492
526,493,494,494,492
670,494,494,493,492
814,493,494,494,492
835,494,494,494,493
776,496,494,495,493
604,495,493,495,494
426,495,493,494,494
275,494,493,494,493
205,494,493,494,493
197,493,494,494,494
231,494,494,494,492
314,494,494,493,492
446,494,494,494,493
588,494,494,493,492
747,493,494,493,491
843,494,494,494,492
822,494,494,495,494
715,494,493,495,493
522,494,494,495,495
358,495,493,494,494
229,494,493,494,494
192,495,494,494,493
210,494,494,494,492
258,494,494,495,493
366,494,494,494,493
506,494,494,493,491
650,493,494,493,492
806,494,494,493,493
839,496,494,493,493
798,496,494,495,494
633,495,494,496,494
448,494,493,495,494
294,494,493,494,493
210,493,493,494,493
195,493,494,494,493
226,495,493,494,493
300,494,494,493,493
428,493,494,494,492
569,494,494,493,491
725,493,494,493,492
839,495,494,494,492
827,495,494,494,492
739,494,493,496,495
548,496,493,496,495
383,495,493,495,493
240,494,493,495,492
196,493,494,495,492
206,494,494,494,492
251,494,494,493,493
350,493,494,493,492
488,493,494,493,492
629,493,494,493,492
788,495,494,493,492
841,495,493,493,493
808,494,494,495,493
658,495,493,495,493
471,495,493,494,493
315,494,493,495,492
215,494,493,493,493
191,493,494,493,492
218,493,494,493,494
284,493,494,493,492
407,493,494,494,492
548,493,494,492,491
704,494,494,493,492
832,494,494,493,493
830,495,494,494,493
759,494,493,495,495
571,495,493,495,493
399,494,493,495,493
250,493,493,494,494
198,494,494,495,493
203,494,494,494,493
240,494,494,494,492
333,493,494,494,493
467,493,494,492,492
611,494,494,493,491
773,493,494,493,492
844,495,494,494,493
815,495,493,493,493
685,495,494,496,494
494,495,493,494,493
336,494,493,495,493
221,494,494,494,494
191,493,494,495,492
215,494,493,495,492
273,493,494,493,492
392,494,494,494,491
531,494,494,493,492
675,493,494,493,493
816,495,494,494,493
834,495,494,494,492
772,495,493,495,494
599,495,493,495,494
424,494,493,495,493
272,495,493,494,492
203,494,494,494,493
197,493,493,494,493
231,493,494,494,493
318,494,494,493,492
452,494,494,494,491
592,494,494,493,492
751,495,494,493,491
842,495,494,494,492
821,495,494,493,493
707,495,493,495,494
517,494,493,495,493
353,494,493,495,495
228,494,493,494,492
191,494,494,494,493
210,493,494,495,492
262,493,494,493,493
368,493,494,493,491
508,494,494,494,491
652,493,494,493,491
809,495,494,494,492
839,494,494,494,493
794,494,493,495,494
626,495,493,495,493
442,495,493,495,493
291,494,493,494,493
207,493,493,496,493
196,493,493,494,493
227,494,494,493,492
304,493,494,493,493
431,494,494,494,492
574,494,494,494,493
732,494,494,493,491
840,494,494,494,492
825,495,494,494,492
735,496,493,496,493
543,496,494,495,493
377,495,493,494,495
238,494,494,494,493
195,493,494,495,493
207,494,493,494,493
253,493,494,494,493
353,493,494,493,492
495,493,494,493,491
635,494,494,494,490
791,495,494,494,492
841,494,494,496,493
805,495,494,495,493
651,496,493,495,493
465,495,493,495,494
310,494,493,496,492
213,495,494,494,492
192,494,494,494,493
219,494,494,495,494
288,493,494,493,493
410,493,494,494,492
552,493,494,493,491
705,494,494,493,492
833,495,494,494,492
829,495,494,493,493
758,495,493,495,493
603,495,493,494,494
440,495,493,496,494
289,494,493,495,494
183,494,493,495,492
187,494,494,494,493
230,493,494,494,492
352,493,494,493,492
505,493,494,494,492
646,494,494,494,492
762,494,494,493,492
824,495,494,494,492
796,495,494,494,492
683,495,493,494,493
516,495,494,495,493
362,494,493,493,494
225,494,493,495,493
167,494,494,495,494
196,494,493,494,492
265,493,494,493,492
415,493,494,493,491
562,493,494,493,491
699,494,494,492,492
792,493,494,494,493
810,495,494,493,493
755,494,493,494,493
609,495,493,495,494
445,495,493,495,493
294,495,493,494,494
182,494,493,494,492
174,495,494,494,492
213,493,494,494,492
325,493,494,493,492
480,494,494,493,493
624,494,494,493,492
744,494,494,493,492
818,494,494,494,492
798,494,494,494,492
699,495,493,493,493
537,495,493,495,493
379,495,493,494,493
239,494,493,495,493
164,493,494,494,493
188,494,494,494,493
250,493,494,493,491
393,493,494,494,491
541,493,494,492,493
681,494,494,494,493
784,495,494,493,493
815,494,494,494,493
772,495,493,494,493
632,495,493,493,493
467,495,494,494,493
315,495,493,494,492
194,495,493,494,493
171,494,493,494,492
207,493,494,493,492
306,494,494,492,491
459,493,494,494,491
602,493,494,493,492
731,494,494,494,491
815,495,494,492,492
803,495,494,494,493
719,496,493,494,493
558,495,494,494,494
401,495,493,494,494
255,495,493,494,493
167,493,493,493,493
185,494,493,494,493
238,493,494,493,492
371,494,494,493,492
524,494,494,493,492
664,494,494,493,492
771,494,494,494,492
816,494,494,493,494
784,495,494,494,493
654,495,493,494,494
488,495,493,494,493
333,495,493,495,493
205,494,493,494,493
168,494,494,493,493
201,494,494,494,492
288,493,494,493,492
439,494,494,493,491
585,493,494,493,492
717,494,494,493,493
809,495,494,495,493
806,494,494,494,493
736,495,493,495,493
580,495,493,494,493
421,494,493,494,494
273,494,493,494,494
170,495,493,495,493
180,494,494,494,492
224,493,494,493,493
350,493,494,493,492
504,493,494,494,491
644,494,494,493,492
757,494,494,495,492
819,494,494,493,492
791,495,493,494,493
674,495,493,494,494
510,494,493,495,493
356,494,493,494,493
219,494,493,495,493
164,493,494,495,493
194,493,494,495,492
270,494,494,494,492
418,494,494,493,492
564,493,494,493,492
701,494,494,494,492
796,494,494,494,492
810,494,494,494,492
751,495,493,494,493
604,495,493,494,493
441,494,493,495,494
290,495,493,494,492
179,493,493,494,492
174,493,493,493,492
214,494,494,493,492
328,493,494,493,492
483,494,494,493,492
627,494,494,493,492
748,493,494,494,493
818,494,494,495,492
797,494,494,495,493
696,495,493,495,492
531,495,493,495,493
374,494,493,495,493
235,495,493,494,493
162,493,494,494,493
190,494,494,495,493
254,494,494,493,493
396,494,494,493,492
546,493,494,493,492
683,493,494,493,492
784,495,494,494,492
814,494,494,494,493
769,495,493,494,493
625,494,493,495,493
462,494,493,494,493
310,494,493,495,494
191,495,494,495,494
171,493,493,493,493
206,493,494,494,493
310,494,494,494,492
464,493,494,493,491
606,493,494,494,492
731,494,494,493,491
816,494,494,494,493
802,495,494,495,492
715,494,493,494,493
554,495,493,494,492
398,494,493,495,493
251,494,493,494,494
166,493,493,493,493
184,493,494,494,494
239,494,494,494,491
374,493,494,494,492
527,493,494,493,493
666,494,494,492,492
772,494,494,493,492
817,494,494,493,493
782,495,493,494,494
650,495,494,495,493
486,494,493,494,494
330,494,493,495,494
203,494,493,494,493
167,494,494,495,493
201,494,494,493,492
289,493,494,493,492
443,493,494,494,492
589,493,494,493,492
721,494,494,493,493
811,494,494,493,492
806,494,494,494,492
734,495,493,495,492
576,494,493,494,492
417,494,493,495,494
269,493,493,495,494
168,494,493,494,493
179,493,493,494,494
227,493,494,494,493
353,493,494,494,492
508,493,494,493,492
649,493,494,494,492
760,494,494,493,493
819,494,494,493,494
790,494,493,494,494
670,495,493,495,494
505,494,493,494,494
352,495,493,495,494
218,494,493,494,493
166,493,494,494,493
196,493,494,494,492
272,493,494,494,492
420,493,494,493,492
566,493,494,493,491
701,494,494,493,492
800,494,494,495,494
809,495,494,494,492
750,496,493,495,493
599,495,493,495,493
437,494,494,495,494
285,494,493,495,494
176,494,493,494,493
176,493,494,494,494
215,493,494,494,492
333,493,494,493,492
487,494,494,493,491
628,494,494,494,493
749,493,494,493,491
822,494,494,495,493
797,494,493,494,493
693,494,493,495,493
530,495,493,495,493
371,494,493,495,494
229,494,493,495,494
165,494,494,494,492
190,493,494,494,492
256,493,494,493,492
401,493,494,494,492
550,493,494,494,492
688,493,494,493,493
789,493,494,494,493
814,495,494,495,492
766,494,493,496,493
623,495,493,495,493
457,494,493,495,493
305,494,493,495,494
186,494,494,494,493
172,493,493,494,493
208,493,494,494,492
312,493,494,493,492
466,493,494,494,492
609,493,494,494,492
736,494,494,494,493
816,494,494,494,492
801,494,493,495,493
712,495,493,494,493
550,495,493,495,494
391,495,493,495,495
247,494,493,495,493
164,495,493,493,493
185,494,493,495,492
242,493,494,493,492
380,493,494,493,493
531,493,494,493,492
669,495,494,495,492
774,494,494,494,491
818,494,494,495,492
781,494,494,494,494
645,494,493,495,493
480,494,493,495,494
326,494,493,495,493
199,493,493,494,493
168,493,494,495,492
202,493,494,494,492
295,493,494,494,492
447,493,494,494,493
590,494,494,493,492
723,494,494,493,491
815,494,494,494,493
805,494,494,494,494
732,495,493,495,493
574,495,493,495,493
413,495,493,495,494
265,495,493,495,494
167,493,494,494,493
180,493,493,494,493
229,493,494,494,493
356,494,494,494,491
511,493,494,493,492
651,493,494,494,492
762,494,494,495,492
819,494,494,494,493
791,495,494,495,493
669,494,493,495,492
500,495,493,495,492
346,494,493,495,493
211,494,493,495,494
165,493,493,494,493
197,493,494,494,492
274,493,494,494,492
424,493,494,493,492
573,493,494,493,492
707,494,494,494,491
803,493,494,494,492
810,494,494,495,492
748,495,493,495,493
596,494,493,494,493
432,494,493,494,493
280,495,493,494,493
171,494,493,494,492
175,494,494,495,492
216,494,494,494,492
335,494,494,493,492
491,494,494,493,492
632,494,494,494,492
750,495,494,494,492
821,495,494,494,492
796,495,494,494,494
688,494,493,495,493
523,495,493,496,493
367,494,494,495,494
226,494,493,496,493
164,493,493,494,493
191,493,494,493,492
257,494,494,493,492
403,494,494,493,492
550,493,494,493,492
689,495,494,493,492
793,494,494,494,492
813,494,494,495,493
763,495,493,494,493
618,494,493,495,493
455,495,493,494,493
302,494,493,496,494
183,494,494,494,492
172,493,494,494,493
209,493,494,494,493
317,493,494,494,493
471,494,494,493,492
612,493,494,494,492
739,494,494,492,492
820,494,494,495,492
800,493,494,494,492
711,494,493,494,494
546,494,493,495,492
386,495,493,495,494
241,494,494,494,493
165,493,493,495,493
186,494,494,494,492
245,493,494,493,491
383,493,494,494,492
535,493,494,494,492
673,494,494,493,491
779,494,494,494,493
817,494,494,494,492
780,494,493,494,494
642,494,493,495,493
476,495,493,495,493
320,494,493,495,493
195,494,494,494,492
168,493,494,494,493
202,494,494,494,492
297,493,494,494,492
451,493,494,494,493
594,494,494,494,491
723,493,494,494,492
815,493,494,494,491
806,495,494,495,493
728,494,494,495,493
567,495,493,495,492
409,494,493,496,494
260,494,493,495,493
167,494,494,495,493
181,493,494,495,492
232,493,494,494,492
360,493,494,494,491
514,493,494,494,492
653,494,494,493,491
762,494,494,494,492
820,494,494,494,493
789,494,494,495,492
664,495,493,494,493
498,494,493,494,493
341,493,493,495,493
208,494,493,494,493
165,494,494,494,493
197,493,494,494,493
279,493,494,494,491
428,493,494,494,493
575,493,494,493,492
711,493,494,494,491
807,494,494,495,493
809,494,494,494,494
745,495,493,495,492
591,494,493,495,493
429,495,493,496,493
277,494,493,495,493
170,493,493,495,494
176,493,494,494,493
217,492,494,495,492
340,493,494,494,491
495,494,494,494,492
636,494,494,493,491
755,494,494,494,493
824,494,494,495,491
794,494,494,495,492
685,495,493,496,493
519,494,493,495,493
362,493,493,494,493
224,494,493,494,493
164,493,494,494,493
193,493,494,495,492
260,493,494,494,491
409,493,494,493,491
556,493,494,493,491
692,494,494,494,491
792,493,494,495,494
812,494,494,495,492
757,495,493,494,493
613,494,493,495,493
449,495,493,494,493
297,495,493,495,493
180,493,493,496,493
174,495,494,493,495
211,494,494,496,491
318,494,494,494,491
474,493,494,494,492
615,493,494,494,491
738,493,494,495,493
821,493,494,493,492
803,494,494,494,491
707,494,493,495,492
543,495,493,495,493
381,495,493,495,494
239,494,493,495,492
166,493,494,495,494
188,493,494,494,492
249,492,494,494,492
386,494,494,494,490
536,493,494,493,493
678,493,494,494,492
784,494,494,493,492
817,495,494,494,493
778,495,493,496,493
638,495,493,494,492
472,494,493,495,493
316,494,493,495,494
191,494,493,495,493
169,494,494,493,493
205,493,494,493,493
301,493,494,493,490
454,493,494,493,492
598,493,494,493,492
727,494,494,495,491
816,494,494,494,493
805,495,494,494,493
725,494,493,494,493
563,494,493,495,493
404,494,493,494,493
257,494,493,495,493
166,493,493,494,493
184,493,494,494,492
235,493,494,495,491
365,493,494,494,491
517,493,494,493,492
657,494,494,494,491
766,493,494,494,492
819,495,494,493,492
788,494,494,496,493
659,494,493,495,492
493,494,493,495,492
338,495,493,496,494
207,493,493,495,492
167,493,493,495,492
198,493,494,495,492
282,493,494,494,492
433,492,494,494,492
579,493,494,495,492
713,494,494,494,492
809,494,494,494,492
807,495,494,495,492
742,494,493,494,492
587,495,493,495,493
426,494,493,495,493
275,494,493,495,493
169,495,494,495,492
176,494,494,494,493
221,493,494,495,492
344,492,494,493,491
498,493,494,494,491
639,493,494,494,492
755,494,494,493,490
822,494,494,494,492
793,494,494,495,493
682,495,493,494,493
515,495,493,495,494
359,495,493,496,493
221,494,493,494,492
163,493,494,494,492
192,493,494,495,493
265,494,494,494,492
412,493,494,495,492
560,493,494,494,492
697,494,494,495,491
794,494,494,495,492
811,495,494,493,493
756,495,493,495,493
609,495,493,496,493
444,495,493,495,493
292,494,493,495,494
180,494,493,494,492
174,494,494,494,493
212,493,494,495,491
322,493,494,493,492
479,494,494,495,492
622,494,494,493,493
743,494,494,494,492
820,494,494,494,492
799,494,494,495,493
702,494,493,496,492
536,494,494,495,494
377,494,493,495,492
236,494,493,495,493
165,493,494,495,493
190,494,493,495,491
250,494,494,493,490
391,493,494,493,490
540,494,494,494,493
680,493,494,493,492
784,495,494,494,492
816,495,494,494,492
775,495,493,495,494
632,494,494,495,493
468,495,493,496,494
314,494,493,495,494
191,494,493,494,493
171,493,493,493,493
206,494,494,494,494
305,493,494,494,492
458,493,494,493,493
601,494,494,494,492
730,494,494,493,492
818,494,494,495,493
804,494,494,495,493
721,496,493,495,493
560,494,493,496,494
401,494,493,495,494
255,494,493,495,494
168,493,493,494,494
184,493,493,495,492
239,493,494,494,494
369,494,494,493,492
523,493,494,494,492
663,495,494,493,492
769,495,494,494,493
819,494,494,495,492
785,494,493,495,493
656,495,493,495,493
489,494,493,496,493
332,494,493,496,494
204,494,493,495,493
168,494,493,495,494
201,494,494,495,492
286,493,494,494,493
437,494,494,494,492
584,493,494,493,493
716,494,494,493,492
811,495,494,494,493
806,494,494,494,494
740,494,493,495,494
582,495,493,495,494
423,495,493,495,494
273,494,493,495,494
168,493,494,494,492
179,493,494,495,493
223,493,494,494,492
350,494,494,494,492
502,493,494,494,493
644,494,494,494,493
757,494,494,495,493
821,494,494,495,492
794,494,493,495,492
678,496,493,496,493
512,495,493,495,493
358,495,493,496,494
220,494,493,495,494
166,494,494,494,494
195,494,493,495,494
270,493,494,494,492
416,493,494,493,492
563,494,494,495,492
701,494,494,494,493
799,494,494,493,492
810,493,493,494,494
755,494,493,495,494
607,495,493,495,494
442,494,494,496,494
291,494,493,495,495
177,493,493,496,494
176,493,494,493,493
214,494,493,494,493
328,493,494,495,492
482,494,494,494,493
626,493,494,494,492
747,494,494,494,492
821,494,494,494,494
799,495,494,494,493
699,495,494,495,494
533,495,494,496,494
376,494,493,496,494
234,495,493,495,495
165,493,493,495,493
189,494,493,494,494
253,493,494,494,493
395,493,494,493,494
545,493,494,494,492
684,493,494,494,493
788,494,494,495,494
816,495,493,495,493
772,495,494,496,494
629,495,493,495,494
462,495,493,496,494
311,494,493,495,495
191,494,493,495,493
171,492,493,495,493
207,494,493,494,493
309,492,494,493,492
464,494,494,494,492
605,493,494,494,493
732,494,494,494,493
819,494,494,494,493
803,494,493,495,492
717,494,493,496,494
556,495,493,496,495
398,494,493,496,494
251,494,493,495,494
167,494,493,494,494
184,493,494,495,494
240,492,494,495,492
374,493,494,495,493
526,494,494,493,492
667,494,494,494,492
775,495,494,494,492
819,494,494,495,494
785,494,494,495,494
652,494,493,495,495
486,495,493,496,495
329,494,493,496,494
201,493,493,494,493
166,494,493,494,492
200,492,494,493,493
289,494,494,494,493
440,493,494,494,493
584,492,494,495,491
718,495,494,495,493
815,495,494,494,493
810,494,494,495,493
738,495,493,495,494
579,495,493,497,496
418,493,494,496,495
267,493,493,497,493
167,493,494,494,493
178,492,494,495,495
224,492,494,493,492
350,494,494,493,492
506,493,494,495,494
645,495,494,494,491
758,494,494,493,492
822,495,494,497,494
795,493,494,494,494
676,494,494,496,493
504,495,493,495,494
349,495,493,495,494
213,495,494,494,494
168,493,493,496,492
195,492,494,494,494
273,492,494,495,492
418,493,494,494,494
566,493,494,494,492
700,493,494,495,491
806,493,494,493,492
814,493,494,493,492
754,493,493,496,493
602,494,494,496,493
436,495,493,495,493
282,495,494,496,494
174,493,494,496,494
177,494,493,496,492
216,492,494,495,493
330,493,494,494,492
483,494,494,494,493
628,494,494,495,493
749,493,494,493,492
825,494,494,494,493
801,495,494,495,494
698,494,493,495,495
531,494,493,494,493
372,494,493,496,494
230,494,493,495,493
163,494,493,495,494
190,493,493,495,492
255,492,494,493,494
395,494,494,494,493
548,493,494,494,492
688,493,494,494,493
792,494,494,494,493
816,494,494,493,492
771,494,494,495,493
625,493,493,496,494
458,494,494,496,494
305,494,494,496,494
185,494,493,494,494
172,493,493,494,494
206,492,494,493,493
310,494,494,494,493
466,494,494,494,493
610,493,494,493,493
736,495,494,493,493
822,493,494,494,494
805,495,493,495,493
715,495,493,495,494
552,494,493,495,494
393,495,493,495,494
248,494,493,495,494
165,493,494,495,493
183,493,494,495,494
239,492,494,494,493
377,494,494,493,493
531,493,494,495,492
670,494,494,494,493
778,493,494,495,493
820,496,494,494,494
782,494,494,496,493
647,494,494,495,494
480,495,493,495,494
324,493,494,495,494
196,494,493,495,493
167,494,494,495,494
199,494,494,495,492
292,492,494,494,493
445,494,494,493,492
590,492,494,495,492
722,492,494,495,491
818,494,494,494,494
808,495,494,495,492
737,495,493,494,493
575,495,493,494,493
413,494,493,495,495
262,494,493,494,493
168,494,494,495,494
178,494,494,493,494
227,493,494,495,492
324,493,494,494,494
452,492,494,494,491
605,494,494,493,491
778,491,494,495,491
846,497,494,494,492
803,499,494,495,493
660,496,493,496,493
452,493,493,497,493
281,493,494,496,493
216,493,494,496,492
190,492,494,491,493
212,493,494,494,492
281,495,494,493,492
389,492,494,494,491
508,491,494,496,489
706,493,494,494,493
837,495,494,496,494
838,496,494,492,495
768,494,493,494,494
579,494,493,496,493
376,495,493,495,493
259,493,493,494,494
204,494,494,494,494
205,494,494,495,494
240,494,494,494,494
329,493,494,494,492
444,493,494,493,492
591,494,494,493,493
776,493,494,494,492
855,494,494,495,497
846,495,494,494,495
713,494,493,495,494
519,495,493,495,495
363,495,493,495,494
225,493,493,494,494
186,495,494,493,493
218,494,494,495,493
266,495,494,493,492
381,492,494,494,492
534,493,494,493,491
681,493,494,493,493
818,494,494,494,492
837,495,494,495,493
779,493,493,495,496
604,495,493,496,494
438,494,493,496,494
291,494,493,495,494
197,493,493,495,494
190,493,493,494,494
224,492,494,495,493
307,494,494,494,493
438,493,494,495,492
586,494,494,493,493
748,494,494,494,493
844,494,494,494,494
824,494,494,495,494
721,494,493,495,493
544,495,493,495,494
381,494,493,495,495
234,493,493,495,494
185,494,493,494,494
204,493,493,495,492
259,493,494,494,493
393,493,494,494,492
546,493,494,494,492
686,493,494,493,492
789,494,494,494,493
827,494,494,493,493
788,494,493,495,493
648,494,493,494,495
481,495,493,495,495
323,494,493,495,494
187,494,493,494,492
171,493,494,495,493
206,494,494,494,494
285,493,494,495,493
425,493,494,494,493
566,493,494,493,493
713,494,494,494,492
831,494,494,494,493
820,495,494,494,492
733,494,493,495,495
537,494,493,496,494
370,494,493,496,494
236,494,494,496,494
191,493,493,495,493
201,495,494,494,492
246,495,494,495,494
343,493,494,493,492
475,494,494,494,493
621,493,494,493,493
791,495,494,493,494
848,494,494,496,492
812,495,494,493,495
662,494,493,496,495
462,494,493,496,494
306,494,493,495,493
216,493,493,493,494
191,494,493,494,493
219,493,493,494,493
285,493,494,495,494
401,493,494,494,493
546,493,494,494,492
704,494,494,493,493
837,495,494,494,492
834,494,494,495,493
762,495,494,495,494
580,495,493,495,493
409,494,493,495,495
258,493,493,495,494
194,494,493,494,493
199,494,493,494,493
237,494,493,494,493
336,493,494,494,493
482,494,494,494,493
624,494,494,494,491
768,494,494,495,492
843,494,494,494,493
815,494,493,495,493
689,495,494,495,494
510,495,493,496,494
348,495,493,496,494
214,495,493,495,493
184,494,493,495,493
209,494,493,494,493
266,494,494,494,493
395,493,494,494,493
536,493,494,494,493
674,493,494,494,491
816,494,494,494,492
832,495,494,496,494
773,494,494,494,495
599,495,494,496,495
420,494,493,497,494
270,494,493,494,494
199,495,493,494,493
193,494,494,494,492
227,492,494,494,495
314,492,494,495,492
437,492,494,494,492
581,494,494,491,492
755,495,494,493,493
847,493,494,496,494
823,494,494,494,496
712,496,493,497,495
512,496,493,495,493
341,493,493,496,493
234,493,493,495,494
194,494,493,495,493
212,494,493,493,493
263,493,494,494,493
365,492,494,494,492
499,494,494,494,492
658,493,494,494,493
816,494,494,494,494
843,494,494,495,494
800,494,493,495,495
633,496,493,495,494
443,494,493,496,494
292,494,493,494,494
210,494,493,495,493
195,494,493,495,493
228,492,493,494,492
304,493,494,494,493
443,494,494,494,493
585,494,494,494,492
729,493,494,494,493
840,495,494,494,494
827,494,493,494,493
737,494,493,495,494
561,494,493,495,494
396,494,493,495,494
246,494,493,495,493
188,494,493,495,494
200,494,494,494,493
246,494,494,494,493
358,493,494,494,493
505,494,494,494,493
643,493,494,495,492
784,494,494,494,493
839,495,493,495,494
805,494,494,495,494
652,495,493,495,495
470,494,493,495,495
311,495,493,495,493
209,494,494,495,494
187,494,493,494,493
216,494,494,494,493
285,493,494,493,492
403,494,494,494,493
546,493,494,494,493
706,494,494,494,493
835,494,494,494,492
831,495,493,493,493
756,494,493,495,495
567,495,493,496,495
391,494,493,496,495
249,493,493,496,495
199,494,493,494,495
203,493,493,494,493
240,494,493,494,493
334,493,494,494,493
467,493,494,493,492
613,494,494,494,492
780,495,494,494,493
848,494,494,494,493
818,494,493,496,494
686,495,493,496,494
495,495,493,495,494
335,494,493,496,495
221,494,493,495,494
190,495,493,494,493
214,492,494,495,493
276,494,494,494,492
399,492,494,494,493
541,494,494,492,493
681,494,494,493,493
820,495,494,496,495
833,496,494,496,494
772,496,493,497,492
595,495,493,497,494
417,494,493,496,495
266,495,493,494,493
200,493,493,496,495
199,495,493,494,494
230,494,494,493,492
319,495,494,494,494
434,493,494,495,492
579,494,494,493,492
761,494,494,494,492
847,494,494,494,492
824,494,493,495,494
711,496,494,497,494
507,494,493,497,495
318,494,493,495,494
236,493,494,496,495
200,495,493,493,494
219,493,494,497,495
269,495,494,494,494
370,493,494,494,494
486,494,494,496,491
664,494,494,493,494
819,492,494,495,495
847,495,494,494,493
799,496,494,495,493
631,495,494,496,495
428,493,493,495,496
282,493,493,495,493
213,495,493,493,495
203,492,494,494,495
233,492,494,493,492
310,492,494,494,492
435,493,494,494,493
579,493,494,494,492
738,493,494,494,493
847,494,493,495,493
830,495,493,495,494
736,495,494,495,495
559,494,493,496,494
395,495,493,495,495
247,495,493,495,493
192,494,493,493,493
205,494,493,495,493
252,493,494,494,493
370,493,494,494,492
516,494,494,494,493
653,494,494,494,492
786,494,494,495,492
835,494,494,494,492
801,495,493,495,493
652,496,494,495,494
475,494,493,496,494
316,494,493,496,493
204,494,494,496,494
185,493,493,494,494
214,493,493,494,492
285,493,494,494,492
409,493,494,493,493
552,494,494,494,493
709,494,494,493,491
835,495,494,494,492
830,494,493,494,493
751,495,494,496,495
559,495,493,495,494
385,495,493,496,495
248,494,494,495,493
197,495,493,496,493
204,494,494,494,493
242,493,493,494,492
338,492,494,494,494
466,493,494,494,493
611,493,494,494,493
783,493,494,494,492
849,494,494,496,492
816,495,494,496,494
679,495,493,496,495
483,495,493,496,495
328,495,493,495,494
222,494,493,494,493
193,493,493,494,492
218,493,493,495,493
279,493,493,494,494
399,494,494,495,493
542,494,494,494,493
687,493,494,494,492
824,494,494,495,493
834,495,494,494,492
769,494,493,495,495
598,494,494,495,493
425,496,493,495,493
272,495,493,493,496
195,493,493,494,493
196,494,493,495,493
231,493,493,494,493
319,493,494,494,493
455,494,494,495,493
598,495,494,493,492
759,494,494,494,493
844,495,493,495,493
819,495,493,496,495
704,496,493,496,494
503,494,493,495,495
341,494,493,496,493
228,494,494,496,494
191,494,494,495,494
212,493,494,494,491
265,494,494,495,493
370,493,494,494,492
511,494,494,494,492
662,493,494,494,493
815,494,494,495,494
840,495,493,495,493
791,495,493,495,494
619,495,493,496,494
432,494,493,496,494
282,494,493,495,492
210,493,494,495,494
198,494,493,496,494
230,495,494,495,494
307,493,494,495,492
435,493,494,493,493
577,493,494,493,492
738,495,494,495,493
844,495,493,495,494
825,495,493,495,494
728,495,493,496,495
535,495,493,495,494
371,495,493,496,494
235,494,493,496,493
192,494,493,494,493
206,494,493,494,493
254,494,493,494,493
356,494,494,494,492
496,494,494,494,492
639,494,494,493,492
803,494,494,494,492
844,495,494,494,494
806,496,493,496,494
649,495,493,496,494
458,495,494,496,494
302,495,493,496,494
213,494,494,495,493
193,495,493,496,494
222,493,494,496,493
293,494,494,494,495
414,493,494,494,494
558,494,494,494,493
719,495,494,495,493
841,496,494,496,492
830,494,494,495,493
753,495,493,497,493
559,494,493,496,495
384,493,493,495,494
247,494,493,494,493
198,493,494,495,494
205,494,493,494,493
245,494,494,494,493
340,493,494,494,493
469,495,494,494,492
615,493,494,494,491
786,495,494,494,493
848,495,494,495,493
817,494,493,496,494
674,496,494,496,495
474,495,494,496,494
319,495,493,495,493
222,495,493,496,495
194,493,493,496,494
220,495,494,494,494
280,493,494,495,493
394,493,494,494,492
534,494,494,494,491
693,493,494,494,492
830,494,494,495,494
837,494,494,495,492
771,495,494,496,493
588,496,493,495,494
414,494,493,496,493
261,493,493,495,492
199,493,493,495,493
200,495,493,495,492
236,493,494,494,493
324,493,494,494,493
461,494,494,494,493
603,493,494,494,492
766,493,494,494,491
847,494,494,494,491
821,493,494,494,493
700,496,493,496,494
504,495,493,495,493
340,495,493,496,495
226,494,493,495,494
189,495,494,495,493
212,493,494,493,492
266,493,494,494,492
374,493,494,495,492
513,494,494,493,492
669,494,494,494,492
819,494,494,495,492
839,495,494,493,492
790,494,494,496,492
614,496,494,495,494
422,495,494,495,493
272,495,494,494,492
207,494,494,494,492
197,495,494,496,494
231,495,494,495,494
310,492,494,494,492
430,493,494,494,494
573,493,494,493,491
748,495,494,495,491
848,493,494,496,492
829,495,494,495,492
728,494,494,496,494
523,496,493,494,493
358,494,493,497,496
239,495,494,493,491
196,495,494,493,495
211,492,494,494,495
259,494,494,495,492
359,495,494,494,491
492,494,494,493,493
640,493,494,493,493
805,493,494,495,492
847,494,494,496,493
806,495,493,495,493
645,496,494,495,493
449,494,493,495,494
294,495,493,495,493
214,495,493,495,493
195,493,493,496,493
225,493,493,493,492
299,492,494,494,492
416,493,494,494,492
562,494,494,494,492
724,493,494,493,492
843,494,494,494,494
833,494,494,494,493
751,495,494,495,495
559,495,494,496,494
387,494,493,496,494
245,494,494,496,492
195,494,494,494,494
204,493,494,494,493
247,494,494,494,492
343,494,494,494,492
480,494,494,494,493
624,493,494,492,491
788,495,494,493,493
848,494,494,493,493
814,495,493,495,493
671,496,494,496,494
471,495,493,496,495
316,495,493,495,493
219,494,493,494,494
191,494,493,494,493
218,493,493,494,493
283,494,494,496,493
394,494,494,494,492
538,493,494,494,491
699,493,494,493,492
831,494,494,495,492
834,495,494,495,494
766,494,493,495,494
581,495,493,495,495
402,495,494,495,494
255,494,494,495,493
200,494,493,495,493
199,495,493,494,493
237,494,494,494,492
327,493,494,494,493
461,494,494,493,493
605,493,494,493,492
768,493,494,494,492
849,495,494,494,492
821,494,493,496,494
696,495,493,495,494
504,495,493,494,494
343,495,493,496,494
223,494,493,496,494
190,494,493,495,494
212,494,493,494,492
268,493,494,494,493
384,494,494,493,492
525,494,494,494,493
668,493,494,493,493
819,494,494,493,493
838,495,494,495,494
783,494,494,495,493
611,495,493,496,495
428,494,494,496,495
274,495,494,496,493
205,494,494,494,494
197,495,493,494,493
227,495,493,494,493
311,494,494,495,493
435,494,494,494,492
580,494,494,493,493
749,494,494,493,493
845,495,494,493,492
825,495,493,495,493
722,495,494,496,494
521,495,493,496,493
355,495,493,496,494
234,494,494,494,493
193,494,493,494,493
211,494,494,494,494
259,493,494,494,493
362,494,494,494,493
501,494,494,495,493
648,494,494,494,491
809,495,494,494,493
845,494,493,494,492
803,495,493,496,493
638,495,493,497,494
453,494,494,496,494
300,494,493,494,494
211,494,493,495,493
192,494,493,495,494
225,494,494,495,493
297,493,494,494,492
431,493,494,494,492
572,494,494,493,492
722,494,494,493,492
840,495,494,494,493
828,494,494,495,492
744,495,493,496,493
556,496,493,496,494
391,494,494,495,495
240,494,493,494,495
193,494,493,494,492
203,494,493,495,493
247,493,494,495,492
344,493,494,494,493
486,494,494,495,491
628,493,494,493,492
787,494,494,494,492
844,495,494,495,492
810,495,493,496,493
665,495,493,496,494
471,495,493,495,495
315,494,493,494,494
214,494,494,495,492
189,494,494,494,492
218,494,494,495,492
284,493,494,494,492
399,494,494,493,493
543,494,494,493,492
702,494,494,494,492
834,494,494,494,492
834,495,494,495,493
765,496,493,495,493
576,495,494,496,493
402,495,493,496,494
252,494,493,495,493
197,494,493,495,494
200,494,493,496,493
238,493,493,494,492
330,493,494,494,492
466,493,494,494,492
611,494,494,493,492
771,495,494,495,493
847,495,494,494,492
819,494,494,495,494
691,495,494,496,493
499,494,493,496,494
339,494,493,495,493
222,493,494,495,493
189,493,494,494,493
213,495,493,494,492
270,493,494,495,493
387,494,494,494,492
529,494,494,494,492
673,493,494,494,492
818,494,494,494,493
837,494,494,495,493
777,494,493,496,494
604,495,493,495,494
426,495,493,495,494
275,494,493,496,494
203,494,493,494,492
195,494,494,494,493
228,494,494,494,493
314,493,494,494,492
446,493,494,494,493
588,494,494,494,490
751,494,494,495,492
845,494,494,493,492
823,494,494,495,494
715,495,493,495,494
522,495,493,496,493
357,495,493,496,494
230,494,493,495,494
190,494,493,495,493
208,493,493,494,493
259,494,494,495,493
366,493,494,494,492
505,494,494,493,492
651,493,494,493,492
809,495,494,494,492
842,495,494,494,493
799,496,493,495,494
634,496,493,496,494
448,495,493,496,494
294,495,493,495,493
208,494,493,495,493
192,493,493,495,492
224,493,494,495,492
300,495,494,494,492
430,493,494,494,493
571,493,494,493,492
728,494,494,493,492
840,495,494,495,492
826,495,493,495,493
739,496,494,496,494
549,495,493,496,494
382,495,493,495,494
238,495,493,494,494
193,494,493,494,493
204,494,493,495,493
249,494,494,495,492
347,494,494,494,493
490,494,494,494,492
631,494,494,494,492
789,494,494,495,492
845,495,494,495,494
808,494,494,495,493
658,495,493,496,494
470,495,494,495,494
314,494,493,495,493
213,494,493,495,494
191,493,493,494,492
218,494,493,494,492
284,495,494,494,493
407,494,494,494,492
549,494,494,494,492
703,494,494,493,491
834,494,494,494,492
831,494,493,495,493
760,494,494,495,493
574,495,494,495,494
401,494,493,495,494
251,495,493,494,493
197,494,493,494,493
201,493,494,493,492
239,494,494,494,492
331,494,494,493,492
470,494,494,493,492
612,494,494,493,492
775,494,494,493,492
846,495,494,495,493
816,495,493,495,493
687,495,494,495,494
493,495,494,495,494
335,494,494,496,493
219,495,493,495,492
190,493,494,494,493
213,494,494,495,494
272,494,494,493,492
388,494,494,494,493
529,493,494,493,493
679,494,494,492,492
819,495,494,495,493
836,494,494,494,493
775,495,493,495,494
600,495,493,495,494
420,495,493,495,494
269,494,493,494,495
204,493,493,494,494
197,493,494,494,493
231,494,494,494,492
318,493,494,494,492
451,494,494,494,492
592,494,494,494,493
751,494,494,494,492
845,495,494,494,492
822,495,494,495,492
711,495,493,496,494
519,495,494,495,493
356,494,493,494,494
228,495,493,495,493
189,494,493,494,493
210,494,494,493,492
261,493,494,494,494
369,494,494,494,492
512,494,494,494,492
653,494,494,493,491
811,494,494,494,492
840,495,494,494,493
795,494,494,496,493
627,495,493,495,494
444,495,493,495,494
290,494,493,495,493
207,494,493,495,492
194,494,493,495,493
226,493,494,495,493
303,494,494,494,492
429,494,494,494,492
572,493,494,495,492
734,495,494,494,492
842,495,494,495,493
827,495,494,495,493
744,495,493,495,494
581,495,494,495,494
421,495,493,495,493
271,495,493,495,493
175,494,493,495,493
191,494,493,494,493
243,494,494,494,492
372,494,494,494,492
526,494,494,494,492
667,494,494,494,492
773,495,494,493,492
823,495,494,495,493
792,495,493,495,493
662,495,493,495,494
496,495,494,495,494
340,494,493,495,494
209,494,493,495,494
166,493,494,495,493
200,494,493,494,493
283,494,494,495,493
437,493,494,493,492
583,494,494,493,492
716,494,494,494,493
809,494,494,494,494
809,495,494,494,493
743,495,494,495,493
587,495,493,495,493
427,496,493,495,494
277,495,493,494,494
170,494,493,494,493
177,494,493,494,493
221,494,494,494,493
345,493,494,494,492
500,494,494,493,492
641,493,494,494,492
758,494,494,494,493
822,495,494,494,493
792,494,493,494,494
680,495,494,495,494
517,494,493,495,494
360,495,493,494,494
222,494,493,495,493
163,493,494,494,492
191,494,493,494,492
263,494,494,494,493
412,493,494,493,493
560,494,494,494,492
697,494,494,494,492
796,494,494,494,493
813,495,494,494,492
757,495,494,495,493
612,495,494,495,494
445,495,493,496,493
295,494,493,495,494
179,494,493,494,493
173,494,493,494,493
211,493,494,494,493
323,494,494,494,492
479,494,494,494,491
624,494,494,493,492
746,494,494,494,493
821,495,494,495,492
801,495,494,495,493
701,495,494,495,494
536,495,494,496,494
379,495,493,495,493
237,494,493,494,493
163,493,493,496,493
188,493,493,494,492
247,494,494,495,493
391,494,494,493,491
543,494,494,494,491
680,494,494,495,492
782,494,494,495,493
817,494,494,494,493
774,496,493,496,493
633,495,494,496,494
468,495,494,495,494
315,494,493,495,494
192,494,494,495,494
168,493,493,494,492
204,494,494,494,493
304,493,494,494,492
458,494,494,494,492
602,494,494,494,492
732,495,494,494,492
818,494,494,494,493
804,495,494,495,492
721,495,494,495,493
560,495,493,495,493
403,495,493,495,495
254,494,493,496,493
166,494,493,495,493
182,494,494,494,493
235,494,494,494,491
364,494,494,495,491
477,495,494,494,492
613,494,494,494,492
783,495,494,494,492
830,494,494,495,493
794,495,494,496,494
641,495,493,496,494
432,495,494,496,494
276,494,493,495,493
210,495,493,494,493
191,494,493,495,493
220,493,494,495,492
288,493,494,494,493
400,494,494,495,492
523,493,494,493,491
720,494,494,493,492
841,495,494,495,493
833,494,494,496,493
755,495,494,495,493
580,495,493,495,494
420,495,494,495,493
273,494,493,494,493
188,494,494,495,493
195,493,494,495,493
237,493,494,494,493
332,494,494,494,492
490,494,494,494,492
636,494,494,494,491
769,494,494,494,492
838,494,494,495,492
809,495,493,495,493
671,495,494,495,494
500,495,493,495,493
349,495,493,495,493
214,494,493,495,493
182,495,494,495,493
206,494,493,495,492
269,493,494,494,492
382,493,494,494,491
536,493,494,493,491
682,494,494,494,491
819,494,494,494,493
832,495,494,494,493
770,495,493,495,494
621,495,493,496,495
447,494,493,495,494
283,494,494,495,493
183,494,493,494,494
185,493,494,494,493
222,493,494,495,493
336,493,494,494,492
488,493,494,495,493
633,494,494,494,492
754,494,494,494,492
825,494,494,493,493
802,495,494,495,493
703,495,493,495,493
537,495,493,496,493
377,495,493,495,494
236,494,493,495,494
164,493,493,495,493
191,494,493,494,494
253,494,494,495,493
396,494,494,494,492
547,495,494,493,491
686,494,494,494,492
788,495,494,494,493
817,495,494,493,493
772,495,493,495,493
619,495,494,495,494
447,495,493,496,494
289,495,494,495,493
185,494,493,494,493
177,494,493,493,493
212,494,494,494,492
297,494,494,495,493
440,493,494,494,492
580,494,494,494,492
726,494,494,494,493
832,494,494,494,493
817,495,494,494,492
718,495,493,496,494
529,495,493,496,493
365,494,493,495,495
228,494,493,494,493
188,494,493,495,494
202,494,494,493,492
249,493,494,494,493
356,494,494,494,492
497,495,494,493,492
639,493,494,494,492
797,495,494,494,492
841,494,494,495,492
802,495,493,495,493
645,496,493,496,494
464,495,494,495,494
306,495,493,495,494
209,494,493,495,494
190,493,493,494,493
220,494,493,494,492
292,494,494,495,492
428,494,494,494,491
572,494,494,494,492
713,494,494,495,491
833,494,494,495,493
825,494,494,494,493
747,496,494,495,493
574,495,493,495,493
407,495,493,495,494
255,495,493,496,492
185,494,493,495,493
195,493,493,494,494
238,494,494,494,492
347,494,494,495,492
495,494,494,494,491
634,494,494,494,491
772,494,494,494,492
836,494,494,495,492
805,494,493,495,494
671,495,494,496,493
491,495,493,495,494
333,495,493,496,493
207,494,493,495,493
181,494,493,494,492
211,494,493,494,492
273,493,494,495,492
402,493,494,493,492
545,494,494,494,492
684,495,494,494,492
818,494,494,494,493
829,494,494,495,493
764,496,494,495,493
584,495,494,496,495
410,494,493,496,494
260,494,493,495,493
196,493,493,494,493
195,494,493,495,493
231,494,494,496,492
323,493,494,494,492
459,495,494,494,492
601,494,494,494,491
761,494,494,495,493
844,495,494,495,493
818,494,494,495,493
698,495,493,495,493
506,495,493,496,493
345,495,493,496,493
223,494,493,496,494
188,494,494,496,494
210,494,494,494,493
266,495,494,493,492
381,493,494,494,492
524,494,494,494,492
664,494,494,493,493
814,495,494,494,493
836,495,493,494,493
784,496,493,495,494
616,495,494,495,492
437,494,493,497,493
284,494,493,497,493
200,495,494,495,491
190,491,493,496,495
224,495,494,493,493
309,492,494,495,491
439,492,494,496,492
579,494,494,496,492
741,493,494,496,494
840,493,494,496,494
824,496,494,494,493
722,496,494,496,493
520,495,494,496,494
349,495,493,496,493
236,495,493,495,493
196,494,493,495,492
210,493,493,496,493
258,494,494,494,492
359,494,494,495,492
489,494,494,494,492
644,495,494,494,491
806,494,494,495,493
845,495,494,494,494
805,494,493,495,493
642,495,494,497,494
450,495,493,496,494
299,494,494,495,494
213,494,493,494,493
195,494,493,496,493
224,495,493,495,493
298,493,494,495,492
435,494,494,495,492
577,493,494,494,491
717,493,494,494,492
836,496,494,495,493
827,494,493,496,493
745,494,493,495,493
574,495,493,496,494
406,495,494,496,494
256,494,493,495,493
187,494,493,495,492
196,494,493,495,492
241,494,494,495,493
353,493,494,494,493
498,493,494,495,492
635,494,493,494,492
774,494,494,494,492
835,495,494,494,493
804,494,493,495,494
663,494,494,496,494
484,495,493,496,494
324,495,494,496,494
207,493,493,495,494
184,493,493,495,494
213,494,493,495,492
275,494,494,494,493
397,494,494,494,492
540,493,494,494,493
694,495,494,493,492
826,495,494,494,492
830,495,494,494,493
763,495,493,496,494
577,495,494,496,494
398,494,493,495,494
252,494,493,495,493
199,494,493,495,492
200,494,493,495,492
235,495,493,494,492
327,495,494,494,492
459,494,494,494,493
603,493,494,494,492
770,495,494,495,492
847,495,494,494,493
819,495,493,495,493
694,496,493,496,493
500,495,493,496,494
341,494,493,496,494
224,494,493,495,494
191,493,493,495,493
214,493,493,495,493
270,494,494,494,492
389,493,494,494,492
532,494,494,494,492
670,494,494,494,492
815,495,494,494,493
836,495,494,494,494
780,495,493,496,493
612,495,494,497,494
438,495,494,496,493
286,494,494,495,494
201,494,493,494,493
193,494,493,494,492
225,494,494,494,492
311,493,494,495,492
450,493,494,494,492
588,494,494,494,492
741,494,494,494,491
840,494,494,495,492
818,494,494,496,493
717,495,494,496,493
527,495,493,495,494
361,495,493,496,494
228,495,493,495,493
188,495,493,494,493
208,492,493,494,492
257,494,494,494,492
362,494,494,494,493
501,493,494,495,492
645,494,494,495,492
806,494,494,495,493
841,495,494,495,493
797,495,493,495,493
637,496,494,495,493
448,495,494,496,493
294,495,493,496,493
211,492,493,495,492
194,494,493,495,493
226,494,494,494,493
299,493,494,494,492
421,494,494,494,492
566,493,494,495,492
724,494,494,494,493
840,495,494,495,492
828,495,494,495,494
742,495,493,495,494
547,495,494,495,494
382,495,494,496,493
243,494,493,496,494
196,494,493,495,493
206,493,494,495,492
251,494,494,495,493
347,493,494,495,492
487,494,494,495,493
628,494,494,493,492
785,494,494,496,491
845,494,494,494,492
810,495,493,496,493
663,495,493,496,494
476,495,493,495,493
321,495,493,497,494
217,493,493,495,493
193,494,494,494,493
220,494,493,494,493
287,494,494,495,492
410,494,494,495,493
551,494,494,494,491
700,494,494,495,492
833,494,494,495,493
832,494,494,495,493
764,496,494,496,495
579,496,494,496,494
405,495,494,495,494
254,494,493,495,493
199,494,494,495,493
202,494,493,496,493
239,494,494,494,493
330,494,494,494,492
463,494,494,494,492
607,494,494,493,492
775,493,494,495,492
848,494,494,494,492
819,494,494,494,493
692,495,493,496,493
490,495,493,496,493
331,494,493,495,493
226,494,493,494,492
193,495,494,495,493
219,494,493,495,493
275,493,494,494,492
382,494,494,494,492
523,494,494,494,492
678,494,494,494,492
819,494,494,494,492
838,495,494,494,492
778,496,493,495,495
605,495,494,496,494
424,495,493,495,493
275,495,493,495,493
207,494,493,495,493
200,494,493,493,494
234,494,493,494,492
317,493,494,494,492
455,495,494,494,492
594,494,494,494,492
747,494,494,495,492
842,495,494,494,492
822,495,493,495,493
713,496,494,496,494
527,495,494,495,493
364,495,493,496,494
228,494,493,495,494
191,493,493,494,493
208,494,493,495,493
258,493,493,494,493
370,494,494,495,492
511,493,494,494,492
651,494,494,494,492
807,494,494,494,492
839,496,493,495,492
794,495,493,496,493
631,496,493,496,494
448,494,493,496,493
293,494,493,495,494
208,494,493,495,493
194,494,493,494,492
225,494,494,495,492
301,493,494,494,493
425,494,494,494,492
567,494,494,495,492
728,493,494,495,492
840,495,494,494,492
825,495,494,495,493
738,495,494,496,493
541,495,493,496,494
377,495,493,496,494
240,495,493,494,493
196,494,493,494,493
206,493,493,494,492
250,493,494,494,493
349,494,494,494,492
491,494,494,494,491
633,494,494,495,491
789,495,494,493,493
843,496,494,495,494
807,495,494,496,492
657,496,494,496,494
469,495,493,495,494
313,495,493,495,493
216,495,493,495,494
193,494,493,494,493
221,494,494,493,493
287,495,494,494,492
407,493,494,494,492
549,493,494,494,491
703,493,494,494,493
834,494,494,494,494
832,495,494,495,492
758,494,494,496,494
570,495,494,496,494
399,495,493,496,494
251,494,493,494,493
199,495,493,494,493
204,493,493,494,493
240,495,494,494,494
334,493,494,493,493
470,494,494,495,492
611,494,494,495,491
772,494,494,494,492
846,495,494,495,493
815,494,494,496,494
685,495,493,496,494
496,495,494,496,494
336,495,493,496,494
221,494,493,495,493
191,493,494,495,493
215,493,494,495,494
274,494,494,494,493
391,494,494,494,492
530,494,494,495,492
676,493,494,493,491
818,494,494,494,493
834,495,494,494,492
773,495,493,495,494
599,495,493,496,494
420,495,493,495,493
271,495,493,495,493
203,494,494,495,492
198,494,494,495,492
230,494,494,494,492
318,494,494,495,492
449,494,494,494,492
591,493,494,494,492
753,494,494,494,493
841,495,494,495,492
819,494,494,495,494
709,495,493,495,494
514,495,493,495,494
352,494,493,496,493
230,495,493,495,493
192,493,493,494,494
210,492,493,494,492
262,494,494,494,492
371,493,494,494,493
511,493,494,493,492
653,493,494,494,492
808,494,494,495,493
839,495,494,495,492
793,496,493,496,494
626,495,493,496,494
446,495,494,495,494
292,495,493,495,493
208,494,494,494,494
196,493,493,494,494
226,494,493,495,492
304,494,494,495,492
435,493,494,494,492
573,494,494,494,492
730,494,494,493,493
840,495,494,495,492
825,494,494,495,493
733,495,494,495,494
544,495,494,496,494
378,495,493,496,495
237,494,494,494,493
194,495,493,495,494
206,494,494,495,493
252,493,494,494,493
351,494,494,494,493
492,494,494,494,493
635,493,494,494,491
793,495,494,494,493
842,494,494,495,493
806,494,493,495,493
654,495,493,496,494
465,495,494,496,495
307,494,493,496,493
213,494,493,495,493
192,494,493,494,493
221,493,494,494,492
291,493,494,495,492
409,494,494,494,492
553,494,494,494,492
709,494,494,493,493
835,495,494,495,492
830,494,494,494,492
752,494,493,496,494
566,495,494,496,493
396,495,493,496,494
249,494,493,495,494
198,493,493,495,492
203,493,494,495,493
243,493,494,495,492
337,494,494,493,493
477,494,494,494,493
617,494,494,492,491
775,493,494,495,492
845,495,494,494,493
816,495,493,495,494
680,495,494,495,494
493,495,493,495,495
335,494,493,496,494
221,493,493,495,494
193,493,493,494,493
217,494,494,494,493
276,493,494,494,493
396,493,494,495,492
535,494,494,494,492
679,494,494,493,492
821,493,494,496,493
833,495,494,495,493
772,495,494,495,494
595,495,494,495,493
419,495,494,495,494
269,494,493,495,494
203,493,493,494,493
198,494,493,496,493
234,494,494,494,494
321,493,494,494,493
452,493,494,494,492
596,494,494,494,492
756,494,494,495,492
844,494,494,495,494
820,495,493,495,493
707,495,493,495,495
513,495,493,496,494
351,494,493,495,495
228,494,493,495,493
192,493,493,495,492
213,494,493,495,493
266,493,494,494,493
374,493,494,495,492
516,493,494,495,493
658,494,494,495,490
811,494,494,494,493
838,494,493,496,493
790,494,494,496,494
623,495,493,496,494
440,494,494,495,494
288,495,493,495,495
207,494,494,494,493
196,494,493,495,493
227,493,493,495,493
306,494,494,494,493
437,493,494,494,492
576,493,494,495,492
732,494,494,495,492
840,494,494,495,494
824,495,494,494,493
729,494,494,496,494
538,495,494,495,494
375,494,493,496,494
237,494,493,495,494
194,493,494,495,492
207,494,493,493,493
254,494,494,494,492
355,493,494,494,493
495,493,494,493,492
635,494,494,494,493
795,494,494,494,492
842,494,493,495,493
805,495,493,496,493
650,495,493,496,494
463,496,493,496,494
306,494,493,497,493
214,494,493,495,494
193,493,493,495,493
223,494,494,496,492
292,493,494,494,493
414,493,494,495,492
556,494,494,494,493
712,494,494,495,493
836,494,494,494,492
830,494,494,494,491
752,494,493,496,495
564,495,493,496,494
393,495,494,495,494
247,493,493,496,494
196,493,493,495,493
204,493,493,495,494
243,493,494,494,492
338,493,494,494,492
475,493,494,494,492
617,494,494,494,492
779,494,494,495,492
843,494,494,496,494
814,495,493,495,493
677,496,493,496,494
484,494,493,496,494
329,495,493,495,493
220,494,494,495,492
193,493,493,496,493
218,493,494,495,493
279,493,494,495,493
397,493,494,495,492
537,494,494,493,491
685,494,494,494,491
821,494,494,495,492
834,494,494,495,494
768,495,493,495,495
588,495,494,495,494
415,494,493,496,493
264,494,493,497,492
203,494,494,494,494
200,494,493,494,492
234,493,494,494,493
322,494,494,495,493
457,493,494,494,492
599,494,494,493,491
758,494,494,495,492
843,494,494,494,494
819,493,494,497,492
703,495,494,497,493
508,494,493,496,494
347,495,493,497,493
226,495,494,494,493
193,494,494,495,493
211,495,494,495,493
267,493,494,495,493
370,493,494,494,491
510,494,494,495,491
661,495,494,494,491
815,493,494,494,493
838,496,494,495,492
789,494,493,495,493
620,494,493,495,494
426,494,493,497,495
277,494,493,495,494
210,494,493,495,493
198,493,493,495,492
231,492,494,494,493
310,493,494,494,491
426,493,494,495,492
571,494,494,494,492
741,494,494,494,492
843,495,494,495,492
825,494,494,495,492
730,495,493,497,493
530,494,493,496,494
364,495,493,496,493
240,494,494,495,493
199,494,494,495,493
212,493,493,495,494
259,494,494,494,494
359,493,494,495,493
500,493,494,495,492
642,494,494,493,491
798,494,494,495,493
841,495,494,496,492
803,495,493,495,494
646,495,494,495,493
466,495,493,496,494
311,494,493,496,494
212,494,493,495,493
194,493,493,495,493
224,493,494,495,493
295,493,494,495,493
425,493,494,495,493
567,493,494,494,492
711,493,494,495,492
835,494,494,495,492
825,495,493,495,493
746,495,494,496,494
563,494,493,496,493
393,495,493,496,494
245,494,494,494,493
196,494,493,495,493
204,494,493,495,491
244,494,494,494,493
339,494,494,494,492
476,493,494,493,492
617,493,494,495,492
780,494,494,495,492
842,494,494,495,492
810,494,493,495,494
672,495,493,496,494
476,495,493,495,493
322,494,493,495,493
220,494,493,496,493
193,494,494,494,494
220,492,494,495,493
282,494,494,496,493
392,494,494,494,492
536,494,494,494,491
691,494,494,494,492
824,494,494,494,493
831,494,494,495,493
765,494,493,495,493
585,495,493,495,493
410,494,493,496,493
263,495,493,495,493
202,494,493,494,492
202,493,494,495,493
237,494,494,495,493
326,493,494,493,492
463,494,494,494,491
603,493,494,494,492
760,494,494,494,492
841,495,494,494,492
815,495,494,495,492
696,495,494,496,493
507,495,493,496,493
347,494,493,495,493
226,494,494,496,493
191,494,493,495,494
213,494,494,494,492
267,493,494,496,493
378,494,494,495,492
519,493,494,494,491
662,493,494,494,492
813,493,494,494,492
835,494,494,495,492
782,495,493,495,492
612,495,493,496,492
430,494,493,496,494
280,494,493,496,492
209,493,493,495,492
199,494,493,493,493
230,493,494,494,491
310,493,494,494,493
436,493,494,493,493
577,493,494,493,492
738,495,494,493,492
841,495,494,495,491
820,494,494,495,493
722,495,493,495,493
527,495,493,496,493
363,494,493,495,494
236,494,493,495,493
197,493,493,495,494
211,493,494,495,492
259,494,494,495,491
361,494,494,494,492
499,493,494,494,492
642,494,494,493,491
801,493,494,495,492
840,495,494,494,492
800,494,494,496,493
641,495,493,496,493
457,495,493,497,493
304,494,493,495,493
214,494,493,496,492
196,492,494,496,492
225,493,494,494,492
296,493,494,495,492
424,494,494,495,492
565,493,494,494,491
715,495,494,493,492
834,495,494,496,493
825,495,494,494,492
743,495,493,496,493
554,495,493,496,494
388,495,493,496,494
244,494,493,495,493
197,494,493,494,493
206,493,493,494,493
248,493,494,494,492
343,494,494,494,492
480,494,494,494,492
621,494,494,494,491
780,494,494,493,492
842,495,494,494,492
808,495,493,497,494
667,496,493,496,493
476,495,493,495,493
322,495,493,496,493
219,494,493,495,493
194,494,494,495,493
220,494,494,494,492
284,494,494,494,493
399,493,494,495,491
540,494,494,494,492
692,494,494,493,491
825,494,494,494,492
830,494,494,494,493
762,495,494,494,492
582,495,493,496,493
409,495,493,496,494
260,494,493,494,492
201,494,493,494,493
201,493,494,495,493
238,493,494,495,492
327,494,494,494,492
462,494,494,493,493
603,494,494,493,492
763,494,494,494,492
841,495,494,495,493
814,495,494,495,492
693,495,493,496,494
501,495,493,495,493
342,494,493,496,494
227,494,493,495,493
193,493,493,494,492
215,494,494,494,493
269,494,494,495,492
382,493,494,494,493
521,494,494,494,492
666,494,494,494,491
813,495,494,495,492
833,495,494,495,492
780,495,494,496,494
608,495,494,495,494
428,495,493,496,494
279,495,493,496,493
210,495,493,495,492
200,493,494,494,493
234,493,494,494,492
313,493,494,495,491
442,493,494,495,491
582,494,494,493,491
741,494,494,494,492
840,495,493,495,494
821,494,494,495,493
715,495,493,495,493
526,495,493,496,493
363,495,493,496,494
236,493,494,496,493
196,494,493,494,494
210,494,493,495,492
260,493,494,495,492
364,493,494,494,492
503,493,494,494,491
644,494,494,494,492
801,494,494,495,492
838,494,494,495,493
797,495,493,496,493
637,495,493,496,493
453,495,493,496,493
301,494,493,495,493
213,493,493,494,493
196,494,493,495,494
227,493,494,494,493
299,493,494,494,493
423,494,494,494,492
564,494,494,494,491
721,494,494,494,493
834,495,494,494,493
824,495,494,494,492
741,495,494,497,494
551,496,493,496,494
384,495,493,496,494
244,494,493,494,493
199,494,493,494,494
207,493,493,494,493
250,494,494,494,492
346,493,494,495,492
485,494,494,494,492
626,493,494,494,491
782,494,494,496,493
839,495,494,494,493
807,495,493,495,494
662,495,494,496,494
475,494,493,495,493
321,495,493,495,493
219,494,494,495,494
195,493,493,494,493
222,494,493,495,492
285,494,494,495,492
406,493,494,496,491
545,494,494,494,492
694,494,494,495,493
824,494,494,494,492
829,495,494,495,493
759,496,493,496,493
577,496,494,496,494
406,494,493,495,493
257,493,493,495,492
200,492,494,494,493
204,493,494,495,493
239,493,494,494,492
330,492,494,494,492
465,492,494,494,492
605,492,494,494,492
766,494,494,494,492
842,496,494,495,491
813,495,494,495,493
689,496,494,496,493
499,495,493,496,494
340,495,493,496,493
225,494,493,495,494
194,497,493,494,492
217,498,493,494,493
273,497,494,494,493
386,495,494,494,491
525,494,494,494,491
670,490,494,494,493
813,492,494,495,493
832,494,494,495,493
773,495,494,496,494
604,495,493,496,493
425,494,493,496,494
276,494,493,496,493
207,493,493,496,493
199,494,493,495,492
233,495,494,494,493
315,494,494,495,492
446,494,494,494,492
587,494,494,493,491
745,494,494,495,491
839,494,494,495,492
820,494,494,496,493
724,495,493,496,494
560,494,493,496,494
402,495,493,496,494
260,496,493,495,493
177,495,493,494,493
198,494,494,494,491
254,492,494,494,491
391,495,494,493,492
540,494,494,494,491
677,494,494,495,491
779,495,494,495,492
817,494,494,495,492
778,495,494,496,493
642,495,493,496,494
479,495,494,496,494
327,494,494,496,493
202,494,493,495,494
173,494,494,496,493
207,494,494,495,492
299,494,494,494,492
452,496,494,494,492
594,497,494,494,492
723,494,494,494,492
812,493,494,494,492
801,488,494,495,493
727,488,494,497,494
569,493,493,496,493
412,496,493,495,493
264,499,494,496,493
170,502,493,495,493
185,504,493,495,493
235,499,493,495,492
362,494,494,495,492
515,492,494,494,492
654,490,494,494,492
762,490,494,496,492
815,492,494,494,492
786,493,494,495,494
662,494,494,495,494
498,491,494,496,494
345,493,494,496,494
214,494,493,495,493
169,498,493,496,495
203,498,493,494,493
280,494,494,494,491
429,489,494,494,491
575,489,494,494,491
709,495,494,494,491
801,500,494,494,492
805,497,494,494,493
742,494,493,495,494
590,496,493,496,494
431,497,493,496,494
284,497,493,496,493
177,494,494,495,493
180,490,493,495,493
221,494,493,496,492
342,493,493,495,492
496,494,494,495,491
635,493,494,494,491
751,494,494,494,493
818,494,493,498,495
792,496,493,495,492
683,494,494,495,491
518,492,494,495,493
366,494,494,496,495
229,495,494,495,493
168,494,493,494,493
196,494,493,495,492
263,494,493,494,493
409,493,494,495,492
555,494,494,495,491
692,494,494,494,492
788,496,494,494,493
810,494,494,494,493
756,496,493,496,493
615,496,494,496,495
452,498,494,497,495
302,496,493,495,493
188,494,493,495,493
176,494,493,496,493
213,492,494,494,493
322,492,494,494,491
473,492,494,494,491
616,492,494,494,491
740,492,494,495,492
815,494,494,496,492
796,493,494,496,493
704,493,494,496,494
543,492,494,496,493
386,489,494,495,493
243,492,494,496,493
166,493,493,495,493
190,495,493,495,491
249,495,493,494,492
387,495,494,494,492
537,492,494,494,491
675,496,494,494,492
777,495,494,494,492
813,493,494,495,492
774,493,493,496,493
636,492,494,497,494
472,488,494,496,494
321,491,494,495,494
200,486,494,495,494
172,491,494,495,492
208,498,493,495,492
302,495,494,494,494
454,489,494,493,492
596,490,494,494,492
723,495,494,495,493
811,493,494,495,493
802,491,494,496,492
722,492,494,495,494
563,489,494,497,494
408,492,494,496,494
263,491,494,495,495
171,493,494,495,492
183,491,494,496,493
235,490,494,494,492
365,491,494,494,492
518,491,494,493,492
657,492,494,494,492
763,492,494,495,492
816,491,494,494,493
784,491,494,494,494
657,492,494,496,494
496,492,494,495,495
343,493,494,495,496
212,492,494,495,495
168,491,493,494,493
201,490,493,495,493
283,490,494,495,491
432,490,494,494,490
577,491,494,495,492
711,492,494,495,492
803,491,494,492,492
805,492,494,496,494
739,492,494,495,494
589,492,494,495,494
428,492,493,496,493
280,492,493,497,492
174,490,494,496,493
180,490,494,494,493
222,491,494,494,493
344,492,494,493,492
497,491,494,494,492
639,492,494,494,492
753,492,494,495,491
815,490,494,496,492
791,489,494,495,492
681,491,494,496,493
515,492,494,496,493
363,492,493,496,495
228,493,494,496,493
167,491,493,495,492
196,489,494,495,492
264,488,494,494,492
411,490,494,494,491
558,490,494,494,491
692,491,494,495,492
788,491,494,495,492
809,492,494,495,492
754,492,494,496,494
608,493,493,496,494
446,494,493,496,495
298,493,493,496,493
182,494,493,494,492
176,491,494,495,491
213,488,494,494,492
323,488,494,493,491
476,493,494,493,492
616,492,494,494,491
738,492,494,494,492
817,491,494,494,493
796,493,494,495,492
702,495,493,494,493
540,491,494,495,494
383,489,493,495,494
239,486,493,495,492
168,487,494,495,493
192,491,493,494,493
250,492,494,494,492
389,491,494,493,491
537,488,494,494,492
677,489,494,494,491
781,491,494,494,492
813,492,494,494,493
772,493,494,495,492
635,492,493,496,494
469,492,493,496,493
318,492,494,494,494
196,492,493,494,493
174,491,494,495,493
208,492,494,493,492
304,491,494,493,491
455,491,494,493,492
599,488,494,494,492
727,490,494,493,492
812,493,494,495,493
801,493,494,494,492
722,494,494,494,493
562,493,493,496,493
404,488,493,496,493
260,491,493,495,493
172,493,493,494,493
187,495,493,493,492
240,494,494,494,492
368,493,494,494,491
520,489,494,494,491
657,487,494,494,491
762,489,494,494,492
815,490,494,495,494
783,491,494,495,493
653,490,493,495,493
490,491,494,495,494
339,493,494,495,494
210,492,493,494,493
172,493,494,494,492
203,490,494,495,492
286,490,494,493,492
436,488,494,493,492
581,490,494,494,491
711,490,494,493,492
806,489,494,494,492
803,491,494,495,492
738,490,493,495,493
585,491,493,496,493
425,493,494,495,494
277,492,493,495,494
172,490,493,494,493
183,489,493,494,493
226,490,493,493,492
347,490,494,494,492
500,490,494,494,492
639,490,494,494,492
753,491,494,494,492
817,490,494,495,493
788,490,494,496,493
658,492,493,496,495
459,492,494,495,495
296,490,493,495,492
218,491,494,494,490
192,491,494,498,490
214,488,494,493,493
273,491,494,494,493
379,491,494,495,492
490,491,494,493,492
684,490,494,494,493
819,490,494,495,492
831,493,494,493,493
768,501,493,495,493
590,501,493,496,493
386,498,493,495,493
266,495,493,494,493
209,487,493,495,493
205,484,493,495,492
240,486,493,494,493
324,488,494,495,492
436,488,493,494,491
576,487,494,493,492
759,489,494,494,493
844,490,494,495,493
819,492,494,495,492
722,492,493,496,493
557,492,493,495,493
396,494,493,496,494
225,492,493,496,494
191,492,493,496,493
219,486,493,496,493
263,488,494,494,492
370,489,493,494,493
521,488,494,493,492
664,491,494,493,491
806,493,494,495,492
832,494,494,495,494
785,492,494,493,494
617,493,493,496,493
459,492,493,496,494
310,492,493,495,494
200,491,493,495,493
191,490,494,494,493
221,489,494,494,492
304,491,494,494,491
432,491,494,494,492
581,491,494,494,492
725,489,494,494,492
831,488,494,495,492
815,491,494,495,492
731,494,493,495,493
551,496,493,495,494
385,496,493,495,493
241,495,493,494,493
190,489,493,495,493
203,487,493,494,493
254,486,494,494,492
383,488,494,494,491
533,490,494,494,492
672,491,494,494,492
775,493,494,494,493
820,492,494,494,492
787,487,493,495,493
657,488,493,495,494
493,490,493,496,493
340,493,493,495,493
212,493,493,495,493
174,494,493,495,493
205,493,493,494,492
291,491,494,494,492
441,489,494,493,492
587,490,494,494,493
714,491,494,494,493
808,491,494,494,494
804,490,494,494,493
732,491,493,495,494
565,492,494,495,494
400,492,493,495,494
250,492,493,495,494
184,493,494,495,493
193,493,493,494,493
235,495,493,494,492
331,494,493,493,492
473,489,494,494,492
611,487,494,494,492
767,488,494,494,493
834,491,494,494,493
804,494,493,495,493
668,495,493,495,494
478,495,493,495,494
325,492,493,496,494
220,489,493,496,493
192,485,493,494,492
218,488,493,494,492
279,491,494,494,493
391,493,493,493,492
533,493,494,494,491
683,488,494,493,491
819,487,494,493,493
829,492,494,495,492
765,491,493,495,494
591,493,493,495,495
422,492,493,496,495
273,492,493,495,495
201,492,493,495,494
200,490,493,494,494
236,489,494,495,491
328,490,494,494,491
471,489,494,494,492
611,490,494,494,492
748,491,494,494,490
835,492,494,495,492
811,492,494,495,492
702,492,493,496,494
527,492,493,496,494
365,492,493,495,494
223,491,493,495,493
185,492,493,495,492
207,489,493,494,492
263,489,494,494,492
388,489,494,493,492
531,489,494,493,492
667,491,494,494,492
801,491,494,495,493
825,491,494,494,492
779,492,494,495,493
617,492,494,495,494
446,491,493,496,494
293,491,494,495,494
200,490,493,495,492
192,489,493,494,493
225,489,493,495,492
304,488,494,493,492
440,489,494,494,492
577,489,494,493,491
728,489,494,494,493
833,493,493,495,492
819,493,493,495,493
720,494,493,495,494
533,493,493,495,494
371,493,493,496,494
236,492,493,495,493
196,491,493,494,492
209,490,493,494,493
257,489,493,494,493
358,490,494,494,493
497,490,494,494,492
639,490,494,494,492
796,490,493,494,492
838,491,494,495,493
799,492,494,494,493
645,491,494,495,494
462,491,493,496,495
307,491,493,495,495
213,490,493,495,493
195,491,493,495,492
226,492,493,494,493
294,494,494,494,493
424,491,493,494,493
564,489,494,493,493
710,487,494,493,491
831,489,494,494,493
824,490,494,494,493
748,492,493,496,494
565,492,493,495,494
399,492,493,496,494
252,491,493,494,494
196,491,493,494,493
205,490,493,494,492
244,490,494,493,491
344,490,494,494,492
487,490,494,494,493
625,489,494,494,492
773,491,494,494,491
837,493,494,494,493
806,493,494,495,493
669,494,493,496,494
486,492,493,496,495
330,490,493,494,493
218,489,493,494,493
192,491,493,494,494
218,491,493,494,493
280,492,493,494,492
400,491,494,494,492
539,491,494,494,492
684,491,494,495,492
820,491,494,495,492
829,492,493,495,493
764,492,493,495,494
585,493,493,495,495
413,493,493,495,495
264,492,493,496,495
202,490,493,495,494
202,490,493,495,493
237,490,494,493,493
324,489,494,494,493
458,490,494,495,491
598,491,494,494,490
761,490,494,495,494
840,491,494,496,494
813,491,493,493,494
697,491,493,496,494
503,490,494,496,494
342,490,494,496,492
228,489,493,494,494
193,491,494,497,491
213,492,493,494,494
270,493,494,494,495
374,491,494,492,493
509,493,494,493,494
664,491,494,494,492
815,492,494,495,492
835,493,494,495,493
785,493,493,497,493
615,493,493,496,494
420,493,493,496,493
274,492,493,494,494
213,492,493,494,492
202,492,493,494,493
232,492,494,494,491
313,490,494,494,492
431,489,494,493,492
574,490,494,493,491
741,491,494,493,493
842,493,494,495,492
823,492,494,495,493
726,494,493,495,493
529,493,494,495,493
369,492,493,496,494
238,492,493,495,493
198,491,493,494,492
212,491,493,494,493
259,491,494,494,493
367,490,494,493,493
511,490,494,494,492
650,493,494,493,491
795,493,494,494,494
838,493,494,495,494
798,493,494,496,494
644,494,493,495,494
470,494,493,496,493
314,492,493,495,495
207,492,493,496,494
192,489,493,493,493
222,491,493,494,493
292,493,494,494,492
421,492,494,493,493
560,490,494,494,492
712,489,494,494,492
834,492,494,495,492
823,496,493,494,493
744,495,493,495,494
553,494,493,495,494
383,491,493,496,495
246,492,493,494,494
199,493,493,494,493
207,492,493,495,494
248,491,494,494,493
342,488,494,495,492
471,489,494,494,492
614,488,494,494,492
783,490,494,494,492
843,495,493,495,492
811,494,493,495,493
671,495,493,496,494
473,494,493,496,494
317,492,493,495,493
223,492,493,494,493
196,491,493,494,493
222,490,493,494,493
285,490,493,494,494
400,492,494,494,491
541,493,494,493,492
693,492,494,494,493
824,494,494,494,492
831,493,494,495,493
765,493,494,496,494
588,495,493,496,493
419,494,493,495,494
270,494,493,495,493
198,494,493,494,492
200,491,493,494,492
237,492,493,494,492
331,491,493,494,492
473,492,494,494,492
610,492,494,494,492
756,493,494,494,492
837,494,493,495,493
812,492,493,495,494
693,494,494,495,494
513,494,493,495,495
351,494,493,495,494
222,492,493,494,493
187,491,493,495,492
211,492,493,494,491
267,491,494,494,491
379,492,494,494,492
521,493,494,494,492
662,492,494,493,491
811,492,494,494,492
832,494,493,496,493
779,493,494,495,493
609,494,493,496,494
427,494,493,497,494
278,493,494,494,493
208,493,493,495,493
199,493,493,495,493
232,492,493,495,492
312,492,494,494,492
437,492,494,495,493
580,493,494,493,493
743,494,494,495,491
841,494,494,494,492
820,494,493,494,494
721,494,493,496,494
529,494,493,495,494
366,492,494,496,494
235,491,493,497,493
196,493,493,495,493
211,493,494,496,493
259,491,493,494,493
365,493,494,494,492
507,493,494,494,492
647,492,494,493,492
799,492,494,494,493
838,492,494,495,492
800,493,494,495,494
639,493,494,496,494
460,493,494,496,494
305,495,493,495,493
210,493,493,494,492
194,490,494,495,493
225,492,493,494,494
296,491,494,494,492
424,495,493,495,492
563,495,493,493,492
716,493,494,494,491
836,494,494,494,491
825,494,494,496,493
744,492,493,496,495
550,494,493,495,494
384,493,493,496,494
244,492,493,494,493
198,494,493,496,492
207,493,493,493,493
248,489,494,494,492
344,489,494,494,491
477,492,494,495,492
620,492,494,494,493
783,492,494,494,493
842,494,493,495,493
808,492,494,496,494
668,494,493,495,494
476,494,493,495,495
320,494,493,497,493
219,496,493,494,492
196,493,493,494,493
222,492,493,494,492
285,491,494,495,492
404,492,494,494,491
544,493,494,494,492
694,494,494,494,491
826,494,494,495,492
829,493,494,496,494
765,494,493,495,493
582,495,493,495,493
411,494,493,496,494
261,494,493,495,494
201,493,493,495,492
203,494,493,495,494
237,494,493,495,493
328,494,493,494,492
468,494,494,494,491
606,493,494,493,491
762,493,494,495,493
840,493,494,495,494
814,494,494,495,493
692,492,494,496,494
503,494,493,497,494
344,495,493,495,493
224,494,493,495,494
192,494,493,495,493
214,492,494,494,492
269,491,494,494,492
383,491,494,495,493
524,494,494,493,492
666,492,494,494,491
811,493,494,494,494
833,497,494,495,493
778,497,493,495,495
607,497,494,497,495
428,494,494,496,494
279,491,494,497,493
208,491,493,494,493
199,493,493,494,494
232,493,493,494,494
313,496,493,493,492
442,493,494,494,492
583,493,494,494,492
742,492,494,495,493
840,491,494,495,492
821,493,494,496,494
718,494,493,496,494
526,495,493,496,493
365,495,493,495,494
234,493,493,495,492
194,493,493,495,494
210,492,493,494,492
260,493,493,494,492
365,493,494,494,493
505,493,494,494,493
645,492,494,493,492
804,493,494,495,492
838,493,494,496,493
797,493,493,495,494
637,494,494,495,493
456,495,493,496,493
301,495,493,496,494
212,495,493,495,493
194,494,493,494,493
225,493,493,494,492
299,493,494,494,494
428,493,494,494,493
569,492,494,493,493
719,492,494,493,493
834,494,493,494,493
823,495,493,495,493
742,495,493,496,493
552,495,494,496,494
384,495,493,496,494
242,494,493,494,494
197,494,493,494,492
205,492,493,495,492
249,491,494,495,493
345,491,493,494,492
484,493,494,494,492
625,494,494,494,493
782,494,494,494,493
840,494,494,494,493
806,494,493,495,492
662,495,493,496,494
474,495,493,496,493
320,494,493,496,494
218,493,493,495,492
193,493,493,495,493
221,493,494,494,493
285,493,494,494,493
404,493,494,494,492
544,493,494,494,492
694,493,494,494,492
827,494,494,494,493
830,494,494,496,493
759,494,493,495,494
577,494,493,495,495
407,494,493,496,493
258,493,494,496,493
199,493,493,495,493
201,493,493,495,492
239,493,494,495,492
329,493,494,494,492
467,493,494,494,492
606,493,494,494,490
765,494,494,492,492
842,494,494,495,493
813,494,494,495,493
689,494,493,496,494
499,494,493,496,493
339,494,493,495,493
224,494,493,495,492
192,493,493,494,492
214,494,493,495,492
271,493,494,494,493
386,493,494,494,493
526,493,494,494,493
670,494,494,493,492
814,493,494,494,494
833,494,493,495,493
776,494,493,495,493
605,495,494,496,494
427,494,493,496,494
276,494,493,495,493
206,494,493,495,493
200,494,493,494,494
233,493,493,495,493
314,493,494,494,492
447,493,494,494,492
586,493,494,494,493
745,493,494,494,493
840,494,494,495,493
820,495,494,496,494
714,495,493,496,494
523,494,494,496,495
363,494,493,496,494
234,493,493,495,493
194,493,493,494,494
211,494,493,494,493
261,493,494,495,491
367,493,494,495,493
507,493,494,494,492
648,494,494,493,492
803,494,494,495,492
839,495,494,495,492
796,494,494,496,494
633,494,494,496,494
452,494,494,496,494
299,493,493,495,493
212,494,493,496,494
196,494,493,494,493
226,493,493,495,493
301,494,494,494,492
429,493,494,494,492
568,493,494,494,492
724,493,494,494,493
837,492,494,495,493
824,493,494,494,493
739,493,494,497,494
552,493,494,497,495
384,494,494,496,494
241,494,493,496,493
198,494,493,495,493
207,493,493,495,493
250,495,494,493,492
349,496,494,494,493
487,497,494,493,491
630,496,494,494,492
786,495,494,495,492
841,493,494,496,494
806,493,494,496,494
660,494,494,497,495
469,494,494,496,493
315,493,494,496,496
219,492,494,496,496
196,491,493,496,495
222,492,493,494,491
288,494,494,494,493
402,493,494,495,491
544,493,494,493,493
700,493,494,492,493
827,491,494,496,491
832,493,494,495,492
761,495,494,496,494
573,497,494,495,495
393,497,493,495,495
257,495,494,494,494
204,492,494,496,493
207,495,493,495,492
241,493,494,493,493
333,492,494,495,492
456,494,494,495,492
599,497,494,493,490
775,494,494,496,492
846,495,494,497,492
818,495,494,494,492
690,492,494,494,496
487,495,494,494,493
326,496,494,495,494
231,495,493,496,493
199,492,494,494,492
222,495,493,497,494
277,494,494,493,495
382,494,494,494,492
518,494,494,493,491
679,492,494,493,491
822,493,494,493,490
836,495,494,497,491
779,493,494,495,496
603,494,493,496,493
417,493,494,495,495
266,496,493,497,492
208,494,493,497,492
202,495,494,496,493
235,494,494,493,493
319,492,494,495,492
438,492,494,496,492
583,493,494,493,490
753,493,494,496,493
843,494,494,494,490
821,494,494,495,493
713,494,493,498,493
511,494,494,495,494
349,495,493,497,492
238,495,493,495,495
198,493,494,495,495
214,492,493,493,493
267,493,493,493,494
365,492,494,495,493
498,492,494,493,491
651,495,494,495,493
811,494,494,494,491
840,495,494,495,493
798,496,494,497,496
631,493,494,496,494
434,493,494,497,494
284,493,494,497,492
216,494,493,494,491
201,494,493,496,491
229,494,494,496,491
304,493,494,495,491
417,492,494,493,492
559,494,494,493,489
732,495,494,492,494
843,493,494,496,493
826,493,494,494,491
739,493,494,497,492
544,493,493,496,496
371,493,493,494,494
247,492,494,497,492
202,493,493,494,495
209,493,493,497,493
253,494,494,496,492
353,491,494,493,492
473,491,494,495,493
626,492,494,495,494
794,491,494,493,494
843,493,494,494,492
808,493,494,497,494
659,498,494,498,494
456,499,494,498,492
298,495,494,494,493
223,496,493,496,491
198,493,494,494,492
225,495,494,493,495
294,494,494,495,491
401,496,494,493,492
533,492,494,495,494
711,493,494,496,492
838,493,494,494,491
832,493,494,495,492
762,494,493,493,494
571,495,494,495,495
386,493,494,495,493
257,495,493,494,494
205,494,494,497,495
206,495,493,493,492
246,496,493,493,493
335,496,494,495,492
462,494,494,493,492
605,492,494,496,490
776,495,494,493,492
847,494,494,495,492
818,495,493,495,494
688,495,493,495,494
487,495,494,496,494
331,494,493,495,492
227,492,494,496,493
195,492,494,493,495
223,493,494,495,492
279,494,494,494,494
386,494,494,494,493
524,494,494,494,493
679,494,494,494,492
819,494,494,495,492
836,494,494,495,492
775,496,494,495,494
600,495,494,496,494
417,495,493,496,494
269,493,494,496,492
209,493,493,495,493
204,492,493,495,493
236,494,493,495,493
320,495,494,495,492
443,494,494,494,492
587,494,494,493,492
754,495,494,494,493
845,495,494,494,492
821,495,494,495,494
712,496,494,496,494
516,495,493,495,494
354,495,493,496,494
231,494,493,495,493
195,494,493,495,493
214,494,493,495,493
264,495,494,495,492
372,494,494,493,492
511,494,494,493,491
653,493,494,495,492
809,494,494,494,493
839,495,494,496,493
795,493,493,496,494
628,495,494,496,494
443,497,494,496,495
291,499,493,495,493
212,496,493,494,493
197,494,493,494,493
229,491,493,495,492
304,491,494,495,493
425,493,494,494,492
568,493,494,495,491
730,494,494,494,492
841,495,494,494,492
827,494,494,495,493
734,496,494,496,494
536,495,494,495,494
372,494,493,496,494
244,494,494,496,493
199,493,493,493,493
210,499,493,495,492
257,499,494,494,492
352,498,494,495,493
485,494,494,495,493
627,491,494,493,491
792,491,494,494,493
844,494,494,494,493
807,495,493,495,493
655,494,494,496,494
465,495,493,495,494
312,495,493,495,494
218,494,493,495,493
197,493,494,495,493
224,493,494,495,493
291,494,494,494,493
414,494,494,494,493
555,495,494,494,493
705,494,494,494,492
834,495,494,494,493
829,494,494,494,493
755,495,493,496,493
575,495,494,496,494
406,496,494,496,495
256,495,493,495,495
197,494,493,495,494
202,493,494,496,493
240,492,494,494,492
334,493,494,494,492
473,495,494,493,492
613,495,494,492,491
770,495,494,493,492
842,495,494,495,492
810,493,494,495,495
681,495,494,496,494
484,495,494,495,493
328,496,493,496,494
223,495,493,494,493
193,494,493,495,494
218,495,493,493,494
277,495,493,494,492
387,495,494,493,492
525,493,494,494,492
681,496,494,494,492
818,497,494,494,492
835,500,494,494,493
774,497,493,496,493
594,494,494,497,495
416,492,494,497,495
270,493,494,495,493
206,494,494,494,494
202,493,494,494,492
236,494,494,495,492
320,493,494,494,493
455,493,494,494,493
596,494,494,493,493
753,494,494,494,492
842,494,494,495,492
819,495,494,495,494
708,495,493,496,494
521,497,493,496,495
359,497,493,495,494
229,497,493,494,494
192,494,494,496,494
211,493,494,494,492
261,492,494,494,492
375,493,494,493,493
516,496,494,493,492
655,496,494,494,492
808,495,494,495,493
838,492,494,494,492
792,493,494,496,494
624,495,494,495,494
443,495,494,496,494
290,495,493,495,493
208,494,493,495,493
196,494,493,494,492
227,494,494,494,491
303,494,494,494,492
429,493,494,494,493
571,494,494,493,491
732,494,494,494,491
839,494,494,495,492
825,495,494,495,493
733,497,493,496,493
536,498,494,497,494
373,496,493,496,495
240,495,493,495,493
197,496,493,497,494
208,494,493,495,493
255,493,494,494,494
353,493,494,494,492
492,494,494,494,492
635,493,494,495,491
793,494,494,495,492
842,495,494,495,493
806,495,494,495,493
652,497,494,496,493
465,497,494,496,494
311,496,493,496,492
215,495,493,494,493
194,495,493,495,492
221,495,493,495,492
290,496,494,494,492
415,494,494,494,493
557,493,494,493,493
705,490,494,493,493
834,494,494,494,491
828,495,494,494,492
750,496,494,496,494
569,496,494,497,495
400,496,493,496,494
252,495,493,496,492
197,493,493,495,492
203,493,493,495,492
241,493,493,494,493
336,494,494,494,492
473,494,494,494,491
614,494,494,493,491
774,494,494,494,493
844,494,494,495,493
813,494,493,496,493
679,496,494,496,493
489,496,494,496,494
330,495,493,495,493
220,494,493,495,494
191,494,493,494,493
216,493,494,495,492
277,490,494,494,491
392,495,494,494,492
530,495,494,494,492
684,494,494,494,491
820,495,494,494,491
833,496,494,496,494
772,497,494,495,493
594,498,493,495,493
416,495,494,496,494
267,494,494,496,494
203,495,493,494,493
200,494,494,495,492
233,493,494,495,493
319,492,494,495,493
455,492,494,494,493
597,491,494,493,492
755,492,494,496,492
842,495,494,495,493
818,498,494,496,492
705,498,494,497,494
514,497,494,495,494
352,494,494,496,493
227,494,494,495,494
191,494,493,495,493
211,495,493,495,492
264,494,494,494,493
375,493,494,494,492
517,493,494,495,492
656,493,494,493,491
808,495,494,495,491
837,498,494,495,492
789,498,494,496,494
621,497,494,497,493
441,494,493,496,494
289,494,494,496,493
207,492,494,495,493
196,494,493,494,493
227,494,494,495,492
305,496,494,494,492
433,495,494,494,492
574,493,494,494,493
733,493,494,495,492
840,493,494,494,492
823,495,494,495,493
729,499,494,496,494
539,498,494,496,495
373,496,494,496,494
235,493,494,495,493
195,493,494,495,492
207,494,494,495,492
255,496,494,495,492
355,494,494,493,492
495,492,494,493,492
637,492,494,494,491
795,492,494,495,493
841,494,494,495,493
804,497,494,495,493
650,496,494,495,494
463,495,494,495,493
308,495,493,496,493
212,494,494,495,493
194,493,494,495,493
221,493,494,495,492
291,494,494,494,492
416,494,494,494,493
558,495,494,493,493
710,494,494,495,491
834,495,494,494,492
828,495,494,494,494
750,496,493,496,493
565,495,494,496,495
394,497,494,495,494
248,495,493,494,493
196,495,494,495,491
203,492,493,494,493
243,493,494,494,492
337,492,494,494,492
477,495,494,494,491
618,495,494,494,492
776,495,494,494,491
843,494,494,495,492
813,496,494,495,494
676,496,494,496,493
487,495,494,495,495
330,495,494,495,494
220,495,493,495,493
192,494,493,494,493
217,496,494,494,492
279,498,494,495,492
397,495,494,494,491
535,494,494,494,493
684,493,494,495,492
820,493,494,496,493
832,494,494,495,492
768,494,494,496,493
592,495,493,495,493
417,495,494,496,493
267,495,493,493,493
201,493,493,495,492
199,494,494,495,492
234,493,494,495,492
322,494,494,494,491
456,495,494,495,493
598,495,494,494,492
758,495,494,495,493
842,494,494,495,493
819,494,494,496,492
704,497,493,495,493
508,496,494,495,493
347,495,493,495,492
227,494,493,495,494
191,493,493,494,492
213,492,494,494,493
265,493,494,494,493
375,496,494,495,492
517,497,494,494,492
660,495,494,494,491
812,495,494,494,494
837,494,494,495,493
788,495,493,497,493
619,496,494,495,493
437,495,493,496,493
286,495,493,494,493
207,494,494,495,492
196,494,493,495,493
228,494,493,495,492
308,495,494,494,492
438,494,494,493,493
578,493,494,494,491
733,494,494,494,492
840,496,494,495,493
823,496,494,495,494
726,497,493,496,495
538,497,494,495,492
373,495,494,496,492
234,496,494,494,493
194,495,493,495,494
207,494,494,495,493
255,492,494,495,492
356,493,494,494,492
497,493,494,495,492
637,492,494,494,492
796,493,494,495,493
841,493,494,495,492
803,495,494,495,492
647,498,494,495,493
462,496,493,495,494
305,494,494,495,493
212,490,494,494,493
194,492,494,495,493
223,494,494,494,492
294,496,494,494,493
417,494,494,494,491
559,494,494,494,491
714,495,494,494,493
836,495,494,494,493
829,495,494,494,492
750,495,494,497,494
562,495,494,497,494
390,496,493,496,494
244,495,493,495,493
198,496,493,494,493
204,495,493,494,494
244,494,494,495,491
338,494,494,494,492
479,493,494,494,493
622,494,494,493,492
778,494,494,494,492
843,496,494,494,493
811,495,493,495,492
672,494,494,495,493
485,494,493,495,493
328,494,493,495,492
218,494,493,495,493
191,494,494,494,494
218,493,494,495,493
279,494,494,495,492
399,494,494,494,492
539,494,494,494,492
685,495,494,494,492
821,495,494,494,491
832,495,494,494,493
766,495,494,496,494
587,495,494,495,493
414,495,494,495,493
264,495,494,495,493
200,495,493,494,494
200,494,493,494,491
234,494,494,495,492
323,494,494,494,491
458,493,494,493,491
599,494,494,493,492
759,495,494,494,492
843,493,494,495,492
818,493,494,495,493
699,494,494,496,494
506,495,493,495,493
344,497,494,495,494
227,495,493,495,493
191,495,493,495,493
212,494,494,495,492
267,494,494,494,493
377,494,494,494,493
517,494,494,495,492
663,494,494,494,491
815,494,494,493,494
837,495,494,494,493
786,495,493,496,494
617,495,493,495,494
435,496,493,496,495
283,496,493,495,493
206,497,493,495,493
197,495,493,494,492
228,496,494,495,491
309,493,494,494,491
440,492,494,493,492
580,494,494,494,492
738,494,494,494,492
841,496,494,494,493
822,497,494,494,493
724,496,494,495,493
534,494,494,496,494
369,494,493,495,494
235,494,493,495,493
193,494,494,495,491
208,494,493,495,492
256,496,493,494,492
360,495,494,494,492
499,494,494,493,492
641,493,494,495,492
797,494,494,495,493
840,494,494,495,492
802,496,494,496,493
643,495,493,496,494
457,495,493,496,493
303,495,494,495,494
213,494,493,495,493
194,495,493,494,493
224,495,494,494,493
294,493,494,494,491
418,492,494,493,491
559,493,494,494,492
715,497,494,493,493
837,497,494,494,493
828,496,494,495,493
748,494,494,495,494
560,493,494,495,492
390,494,493,495,493
244,495,493,495,495
196,494,493,494,492
204,494,494,495,492
247,493,494,494,493
342,494,494,493,492
480,495,494,495,491
623,494,494,493,491
781,495,494,494,492
842,495,494,494,493
812,495,494,495,493
671,496,494,496,494
482,495,494,495,494
326,495,493,496,493
217,495,493,494,494
191,494,493,495,494
218,494,494,494,492
278,495,493,494,492
400,494,494,493,491
540,493,494,494,492
691,492,494,493,492
824,494,494,495,493
831,494,494,495,493
765,496,494,495,493
584,496,494,496,495
411,495,494,495,494
262,494,493,495,494
200,494,493,496,493
198,495,493,494,492
236,494,494,495,492
325,494,494,494,492
461,494,494,493,492
603,495,494,494,492
761,494,494,493,491
842,495,494,494,492
816,495,494,494,493
697,495,494,495,493
505,496,493,496,494
344,494,493,496,494
225,494,494,495,493
190,495,494,494,493
214,494,494,494,492
267,494,494,495,493
380,495,494,495,493
520,495,494,494,492
664,495,494,494,492
814,493,494,494,493
837,494,494,494,493
784,496,494,496,494
613,496,494,495,493
434,496,494,495,495
282,496,494,496,493
206,496,493,494,492
196,495,493,494,493
229,497,494,495,493
310,495,494,495,492
441,490,494,494,491
581,492,494,494,493
741,493,494,494,492
841,495,494,496,491
824,498,494,495,493
720,497,493,496,495
530,496,493,496,495
364,495,493,495,493
233,493,493,495,493
194,494,494,495,493
208,494,494,493,492
256,493,494,494,494
359,493,494,494,492
499,494,494,493,492
642,494,494,493,491
802,495,494,493,492
839,495,494,495,492
802,496,494,495,493
642,496,494,496,494
452,494,493,495,494
299,494,493,494,492
212,494,493,495,493
195,493,494,494,494
225,492,494,494,492
297,493,494,495,492
422,493,494,494,493
566,495,494,494,493
719,497,494,493,492
838,495,494,494,493
828,496,494,496,494
747,495,494,495,494
558,494,493,495,494
390,495,493,495,494
243,494,493,495,493
195,495,493,494,493
204,495,493,494,494
247,494,494,494,493
344,493,494,495,492
485,494,494,494,491
624,494,494,494,492
781,495,494,494,492
843,496,494,494,492
810,495,494,495,493
666,496,494,496,494
481,496,494,495,493
324,495,494,495,493
217,493,494,495,494
191,495,493,495,493
218,495,493,494,492
280,496,494,494,492
400,494,494,495,492
541,494,494,494,491
693,493,494,493,493
828,494,494,494,492
831,496,494,494,493
763,496,494,496,495
581,497,494,495,494
406,496,494,496,494
257,496,493,494,492
199,493,494,495,493
200,493,494,495,494
236,492,494,494,494
326,494,494,495,492
461,494,494,494,492
604,494,494,493,492
766,494,494,494,492
845,496,494,493,492
818,495,494,495,494
695,496,494,496,495
501,495,494,495,492
340,496,494,496,494
224,494,493,495,493
192,495,493,495,494
215,496,493,494,492
268,494,494,494,492
383,495,494,493,492
524,494,494,493,492
665,494,494,493,491
814,495,494,495,492
835,493,494,495,493
780,494,494,495,494
610,495,494,496,494
434,496,494,496,494
282,495,493,495,494
205,493,494,495,493
197,493,493,494,494
230,494,494,495,492
312,494,494,494,493
446,494,493,493,492
584,495,494,494,493
742,495,494,495,492
841,494,494,494,494
821,494,494,494,493
719,494,494,495,494
529,494,494,495,493
363,496,494,495,494
232,493,493,494,493
192,494,494,494,492
207,494,494,496,493
257,493,494,495,492
363,494,494,493,491
502,494,494,494,492
645,495,494,493,492
804,496,494,493,493
841,499,494,495,492
800,498,494,495,494
638,496,494,496,494
452,496,493,495,493
298,494,493,496,493
212,493,494,495,493
195,493,493,495,492
225,493,493,494,493
298,494,494,494,493
423,493,494,494,492
567,493,494,494,493
722,493,494,493,493
838,494,494,495,493
827,495,493,495,493
742,495,493,495,493
554,495,494,496,493
387,494,493,495,493
241,493,493,495,493
196,494,493,495,493
205,493,494,495,493
249,493,494,495,493
346,493,494,493,493
487,495,494,494,491
628,495,494,493,492
783,496,494,494,492
841,494,494,494,493
808,494,493,495,494
664,497,494,496,493
477,496,493,495,494
321,496,494,496,493
217,495,493,494,494
192,494,493,495,492
218,496,494,494,491
283,496,494,494,492
404,494,494,494,492
545,493,494,494,492
693,492,494,494,492
828,493,494,495,493
830,494,494,496,494
761,494,494,496,494
580,496,494,496,493
407,496,494,495,494
257,494,493,496,493
199,493,493,494,495
200,493,494,494,494
238,496,494,493,492
328,495,493,495,492
464,492,494,494,492
605,492,494,493,492
767,494,494,493,492
844,497,494,495,491
817,496,494,495,493
692,494,494,495,494
498,494,494,497,495
336,494,493,496,493
225,494,493,496,493
192,493,494,495,494
215,492,493,495,493
272,493,494,495,493
382,494,494,494,492
523,494,494,495,492
672,494,494,494,491
816,495,494,496,492
837,496,494,496,494
779,496,494,495,494
607,496,494,496,494
426,496,494,497,494
276,495,493,495,494
204,494,493,495,493
198,495,493,494,493
231,494,494,495,493
313,493,494,495,492
448,494,494,494,492
589,494,494,495,491
745,494,494,494,492
841,495,493,495,492
822,495,494,495,493
717,495,494,496,494
527,495,494,497,495
365,495,493,496,495
231,494,493,496,492
192,493,494,495,492
209,493,494,494,493
256,493,494,495,492
366,493,494,494,492
507,494,494,494,492
647,495,494,493,491
803,495,494,494,493
839,495,494,494,492
797,496,494,496,493
635,496,494,496,495
452,497,493,496,494
299,495,493,495,493
211,494,493,495,494
195,495,493,494,493
225,494,494,494,492
299,493,494,495,492
423,493,494,494,491
565,495,494,494,492
723,494,494,494,492
839,495,494,495,492
826,495,494,495,493
741,496,494,495,494
551,496,494,496,493
383,496,494,495,494
241,495,493,495,494
195,495,493,494,493
205,495,493,495,493
248,495,493,494,492
347,495,494,494,492
487,494,494,494,492
629,495,494,493,492
786,492,494,493,493
840,494,494,495,493
808,495,493,495,494
661,496,494,496,493
476,496,494,495,495
320,495,493,495,494
215,494,493,494,493
192,493,494,495,492
219,493,494,495,492
285,495,493,494,492
407,494,494,494,491
549,495,494,493,491
696,493,494,494,491
827,493,494,494,493
829,493,494,495,494
759,494,493,496,493
576,495,493,495,493
405,496,494,496,495
257,494,494,495,493
199,494,493,495,493
202,493,494,495,493
237,492,494,494,493
331,492,494,494,492
468,493,494,494,491
607,492,494,494,491
766,495,494,494,491
845,498,494,495,494
815,496,494,494,492
688,495,494,496,493
498,497,493,495,494
339,497,494,496,494
223,497,494,496,493
192,493,493,495,492
214,493,494,495,492
272,494,494,494,492
386,494,494,493,492
525,494,494,494,491
672,493,494,494,492
817,495,494,494,492
834,494,494,495,493
775,495,494,496,495
605,495,494,495,493
425,495,493,496,494
275,495,493,495,495
205,494,493,494,494
198,494,493,494,491
232,495,493,494,492
315,495,494,494,492
445,495,494,494,491
586,494,494,493,491
749,493,494,495,492
841,494,494,495,493
821,495,494,494,494
715,493,493,496,494
518,494,494,496,494
357,493,494,495,495
232,493,493,496,495
192,497,493,496,490
211,498,494,493,494
260,496,494,494,492
363,494,494,494,492
503,492,494,494,492
649,493,494,493,492
806,494,494,495,492
839,494,494,496,492
796,495,493,496,492
633,496,494,495,495
440,494,493,495,494
290,494,493,495,493
214,494,493,495,493
198,493,493,494,493
229,493,494,495,492
304,495,494,494,492
423,494,494,493,493
565,494,494,494,491
726,495,494,494,491
841,495,494,494,493
827,496,494,494,493
741,496,494,495,494
546,494,494,495,493
383,495,493,496,493
244,494,493,494,492
198,494,493,494,492
207,494,493,494,492
251,494,494,494,493
352,494,494,493,492
493,494,494,493,492
633,495,494,494,492
786,494,494,493,493
841,495,494,495,494
805,495,493,494,493
657,495,494,495,494
477,495,494,496,494
319,494,493,497,494
213,495,493,494,494
191,494,493,495,492
218,493,494,493,495
287,493,494,494,491
401,494,494,493,493
543,494,494,493,489
702,492,494,492,490
829,496,494,493,492
828,494,494,496,493
760,496,494,495,492
571,497,493,494,495
388,494,494,494,493
251,496,493,494,493
200,493,493,496,492
203,492,494,494,494
242,492,494,495,492
332,494,494,495,492
451,492,494,493,491
596,493,494,494,491
776,495,494,492,491
848,496,494,493,492
819,494,494,493,496
687,497,494,496,496
482,494,494,496,492
324,497,493,494,491
229,495,494,496,493
197,494,494,494,494
221,495,493,493,492
276,495,494,494,493
385,495,494,494,492
521,495,494,493,491
679,494,494,493,493
821,492,494,494,493
838,492,494,496,493
777,493,493,496,494
603,496,494,495,494
426,496,494,496,493
278,496,493,495,493
207,495,493,495,493
201,493,493,493,492
233,493,494,495,493
320,493,494,493,492
456,494,494,495,492
593,497,494,493,493
746,497,494,492,492
840,495,494,494,492
819,494,494,495,494
710,493,494,495,493
519,494,493,495,494
354,494,493,495,494
229,492,493,495,493
192,493,494,494,493
210,495,493,495,494
262,494,493,495,493
364,494,494,495,491
501,492,494,493,493
650,491,494,494,493
809,494,494,495,492
838,495,494,496,493
796,498,494,496,493
630,496,494,496,493
436,494,493,495,493
284,493,493,494,494
214,494,493,497,494
199,494,494,494,493
229,494,494,494,492
304,494,494,494,492
420,495,494,494,493
565,493,494,494,492
732,494,494,494,493
841,496,494,495,493
828,496,494,494,492
739,495,493,496,494
542,494,494,495,494
377,493,494,495,494
243,493,493,494,494
198,494,493,494,492
207,493,494,494,493
253,493,494,493,492
355,493,494,492,491
497,494,494,493,492
636,494,494,494,491
789,493,494,494,493
842,494,494,494,492
806,494,494,495,494
656,495,494,496,493
479,496,493,496,494
321,495,493,495,494
212,494,493,495,493
191,494,493,494,492
218,494,493,495,492
285,493,494,493,493
414,494,494,494,492
554,493,494,492,491
698,495,494,493,493
830,495,494,494,493
827,494,494,495,493
753,496,493,495,495
571,495,494,495,494
399,495,493,496,493
250,493,493,495,492
197,494,494,494,493
202,493,494,495,493
239,492,494,494,493
332,493,494,493,492
465,494,494,494,492
610,494,494,493,491
774,493,494,494,492
846,492,494,495,493
815,495,494,494,493
684,496,494,495,494
489,497,493,496,495
331,498,493,496,492
223,495,493,495,493
191,495,493,495,491
216,492,494,494,494
273,491,494,494,492
389,494,494,494,492
530,495,494,493,492
678,496,494,493,491
817,498,494,494,492
834,495,494,495,493
773,494,494,495,493
597,495,494,496,495
422,495,493,495,494
273,494,493,495,493
204,493,493,495,493
199,492,493,493,493
231,492,494,496,492
318,492,494,493,492
455,492,494,495,493
593,493,494,494,492
751,494,494,494,493
842,494,494,494,492
820,495,494,495,493
708,495,494,495,494
517,495,493,495,493
355,495,493,495,493
230,494,493,495,493
192,494,493,494,492
211,494,494,494,494
263,493,494,494,492
369,494,494,494,493
509,494,494,494,492
652,494,494,494,491
808,493,494,494,492
838,493,494,495,493
794,495,493,495,494
626,495,493,495,494
444,495,494,496,494
290,494,493,497,494
209,493,493,494,494
196,494,493,494,493
228,493,494,495,493
304,493,494,494,492
430,494,494,493,493
571,494,494,494,492
731,494,494,494,492
840,494,494,495,493
826,494,494,496,492
735,496,493,496,494
544,496,494,496,493
377,495,493,496,494
239,494,493,494,494
195,494,493,494,493
207,494,493,495,493
253,493,494,494,492
353,494,494,494,492
492,494,494,493,493
634,494,494,494,491
791,495,494,494,492
842,494,494,495,494
806,495,493,495,493
654,495,494,495,494
467,494,494,496,494
313,494,493,496,495
214,493,494,494,493
192,494,493,494,493
222,494,493,495,494
288,495,493,495,491
412,493,494,494,491
553,494,494,494,492
705,494,494,494,492
831,495,494,494,494
829,495,494,495,493
753,495,493,495,494
569,496,493,495,493
398,495,493,496,494
252,495,493,494,493
198,493,494,495,492
203,495,494,495,493
240,494,493,495,494
334,493,494,493,492
472,494,494,494,490
613,494,494,494,491
774,494,494,493,494
844,495,494,494,492
813,496,494,495,493
683,495,493,495,493
492,496,493,496,493
334,495,493,496,493
220,494,493,494,492
190,495,493,495,493
216,494,493,495,493
275,493,494,494,493
391,494,494,494,492
530,494,494,493,492
679,494,494,493,492
819,495,494,495,492
834,498,494,495,492
772,498,493,496,495
597,497,494,495,494
419,494,493,496,494
270,493,494,495,494
202,492,494,495,493
197,495,493,495,493
233,493,494,494,492
319,493,494,494,491
454,494,494,493,492
595,494,494,493,492
753,495,494,494,492
843,495,494,495,493
820,494,493,495,492
707,495,494,496,494
513,493,494,495,494
350,494,493,495,494
228,491,494,495,493
192,493,493,494,493
211,493,494,495,492
263,496,494,494,492
370,494,494,493,493
512,494,494,493,491
655,495,494,493,493
809,495,494,493,493
839,495,494,494,492
791,496,494,495,493
623,495,494,495,494
441,495,493,495,493
290,496,494,495,494
208,494,493,493,492
196,493,493,495,493
227,494,494,495,492
305,493,494,494,493
434,495,494,494,492
574,494,494,494,492
730,495,494,493,492
840,496,494,495,492
824,496,494,494,493
732,496,493,495,494
543,496,494,495,493
378,495,494,496,494
237,493,493,495,494
193,493,493,493,493
206,494,494,493,493
253,494,494,494,494
353,494,494,494,492
495,494,494,494,492
635,495,494,494,491
793,495,494,494,491
841,496,494,494,493
805,496,494,494,494
653,497,494,495,494
465,494,494,495,494
309,492,494,495,494
211,491,494,495,493
193,493,494,495,493
221,495,493,494,493
291,494,494,493,492
412,494,494,494,493
557,494,494,494,492
708,494,494,494,492
833,495,494,495,492
829,495,494,494,492
753,496,493,496,493
566,496,493,496,494
397,496,493,495,493
248,494,494,494,493
196,494,493,495,494
203,493,493,495,493
243,494,494,495,494
336,494,494,494,491
477,494,494,493,492
617,494,494,493,492
775,494,494,493,493
844,496,494,494,493
815,495,493,494,493
679,496,493,495,494
488,496,493,495,493
331,496,494,496,492
221,494,493,494,493
193,495,494,495,494
217,494,494,494,493
277,494,494,494,493
393,494,494,494,492
531,493,494,494,492
680,493,494,493,492
822,495,494,494,493
834,496,494,494,493
770,495,494,496,493
594,496,493,495,494
417,495,494,495,493
268,495,493,495,495
203,495,493,494,493
199,494,493,494,494
234,493,494,494,493
321,494,494,493,493
455,494,494,493,491
597,494,494,493,492
755,494,494,494,492
843,495,494,495,492
819,495,494,495,493
706,495,494,495,494
516,496,493,496,493
351,496,494,495,494
229,495,493,495,493
191,495,493,494,492
211,495,493,495,493
264,495,494,494,493
373,494,494,494,493
512,493,494,494,492
657,493,494,493,492
811,494,494,494,493
837,494,494,494,493
791,497,494,495,493
622,496,494,495,494
440,496,494,496,495
288,497,493,495,492
208,495,493,495,492
196,493,493,495,492
229,493,494,494,492
306,492,494,493,492
435,492,494,493,492
575,494,494,494,492
734,496,494,493,492
839,495,494,494,493
825,495,494,494,493
730,497,494,496,494
537,497,493,495,494
374,495,494,496,494
238,495,493,495,493
195,494,494,494,494
208,495,493,494,494
254,494,493,493,493
355,494,494,494,493
495,494,494,493,492
636,492,494,495,492
794,493,494,494,493
842,495,494,494,492
803,495,493,495,494
649,494,494,495,493
464,496,494,495,494
308,496,493,495,494
214,494,493,494,494
194,494,494,494,492
222,494,494,495,493
290,494,493,494,492
414,494,494,495,492
557,494,494,494,491
710,494,494,494,492
835,495,494,495,494
828,494,494,494,493
752,495,493,496,493
566,494,493,496,494
394,494,493,496,493
247,494,493,494,493
196,496,493,495,493
203,495,493,495,494
244,495,494,494,492
337,494,494,494,492
477,493,494,494,492
617,494,494,493,491
777,494,494,493,492
842,495,494,495,493
811,494,494,494,493
675,496,494,496,494
485,496,493,495,493
329,495,493,495,493
220,494,493,495,494
191,494,493,494,493
217,494,493,494,492
278,495,494,494,492
396,493,494,493,493
536,494,494,494,492
683,494,494,494,491
821,495,494,494,495
833,494,494,494,492
769,496,494,496,493
590,497,494,496,494
415,497,494,496,493
266,495,494,495,492
201,492,494,495,493
199,491,494,494,492
234,492,494,494,493
323,493,494,495,491
457,494,494,494,492
597,495,494,493,491
757,495,494,493,492
842,495,494,494,492
818,495,494,495,493
702,496,494,495,494
509,496,494,495,494
349,496,493,495,494
229,496,493,494,493
192,495,493,494,493
212,492,494,495,493
266,493,494,495,492
375,493,494,494,493
513,495,494,493,492
659,493,494,493,491
813,495,494,494,492
837,495,494,494,494
789,495,493,494,493
621,494,493,495,494
437,496,493,497,493
286,494,493,496,494
209,494,493,494,493
197,494,493,494,493
229,493,493,495,492
308,494,494,495,493
432,493,494,494,493
575,494,494,493,491
737,493,494,494,491
841,495,494,494,493
825,494,494,494,494
729,496,494,495,493
532,496,494,495,494
370,495,493,496,495
238,494,494,495,494
196,493,494,494,493
208,493,494,494,494
