Sensor0,Sensor1,Sensor2,Sensor3,Sensor4

493,493,493,625,490
492,492,492,599,490
495,493,492,4,493
469,490,495,493,493
3,615,488,495,493
494,627,489,493,493
494,618,488,494,494
495,567,489,494,494
493,469,490,495,493
493,409,490,494,493
495,4,627,489,493
493,494,618,488,494
494,495,567,489,494
494,493,469,490,495
493,493,409,490,494
493,495,376,491,496
491,492,376,491,494
491,492,383,490,493
491,493,404,489,495
492,492,452,489,494
491,493,511,489,494
492,494,581,488,493
493,494,626,488,495
493,493,625,490,495
493,492,610,490,493
492,494,521,490,495
493,493,432,489,494
492,492,395,490,493
491,492,374,490,493
492,494,379,488,493
493,492,390,491,495
493,495,421,488,494
492,493,479,489,494
493,493,538,489,495
492,492,610,490,495
493,493,630,489,495
493,493,618,490,493
491,493,578,490,496
492,494,479,490,495
492,493,412,489,494
493,494,380,488,493
491,493,375,490,495
492,492,384,488,492
493,494,402,490,495
491,492,446,489,494
492,492,503,489,494
491,492,568,489,493
491,493,625,490,495
492,493,624,487,494
491,492,614,488,494
494,494,536,489,495
494,493,442,489,495
493,493,400,489,493
492,493,377,489,495
491,494,377,488,494
490,493,386,490,493
491,492,413,488,493
492,492,468,488,493
492,492,529,489,493
492,493,601,490,494
492,493,631,489,495
493,491,623,490,495
492,491,586,490,496
492,493,492,489,494
493,492,418,490,494
493,492,385,489,493
491,493,374,488,493
492,493,381,488,494
493,493,393,487,493
494,493,439,489,493
491,492,496,488,494
492,495,558,488,493
492,492,623,490,494
491,492,627,490,493
491,494,615,490,494
494,493,552,490,494
492,493,451,489,495
493,493,404,489,494
493,494,376,488,494
493,492,378,489,495
493,492,385,489,493
491,491,412,490,494
493,493,462,488,493
492,492,521,489,493
490,492,594,489,493
492,493,627,488,494
491,492,625,488,494
493,494,595,491,494
491,493,506,489,494
493,493,424,489,495
492,491,390,490,496
492,491,376,491,495
494,493,382,489,493
491,493,389,488,495
494,492,432,488,493
491,493,489,489,493
491,493,549,488,493
494,494,616,491,493
491,492,629,490,495
493,494,617,487,495
492,492,565,491,495
492,492,463,490,495
492,492,407,490,495
493,493,377,490,492
492,493,376,490,495
491,494,385,488,494
493,494,406,488,494
492,492,455,488,494
492,493,512,488,492
491,491,586,490,493
492,493,626,490,493
491,493,623,489,492
491,493,605,490,493
491,494,517,490,494
493,493,432,489,495
492,493,394,488,494
491,492,375,490,494
493,492,381,489,495
492,491,390,490,495
492,491,425,489,493
492,494,481,489,494
491,493,540,488,495
493,494,609,489,493
493,495,629,489,494
493,494,618,488,494
494,492,574,491,494
493,493,475,489,495
492,493,411,489,495
493,492,381,490,495
492,492,376,491,493
491,492,382,488,494
493,493,400,490,492
491,492,448,489,494
492,493,505,488,493
492,494,573,488,492
492,494,625,488,494
493,492,626,489,493
492,494,611,490,496
493,492,529,489,494
493,492,438,490,494
492,492,398,491,494
491,492,375,490,493
491,492,379,490,495
492,494,387,489,495
491,491,417,488,493
492,493,472,488,493
492,493,532,489,494
492,492,605,489,492
493,494,630,490,494
491,493,621,489,494
491,493,581,491,492
492,493,488,491,494
492,493,415,490,494
492,492,384,490,492
492,494,375,491,493
491,493,382,489,495
492,492,397,489,495
492,492,442,489,495
492,492,498,489,494
492,493,561,487,493
491,493,622,490,495
492,492,627,488,492
493,495,614,489,493
492,495,544,489,495
493,493,449,490,495
492,493,402,489,494
493,493,374,490,493
492,491,379,490,495
491,492,387,490,493
491,491,413,490,493
493,493,465,488,494
491,493,522,489,494
491,491,597,488,492
492,493,629,488,493
493,493,624,489,495
493,493,589,490,493
492,493,501,489,495
492,492,420,489,494
491,492,387,490,494
491,492,375,490,492
491,493,381,489,493
492,493,391,489,495
492,492,435,490,493
491,492,492,489,494
493,493,554,488,493
493,493,620,490,495
492,492,628,490,494
493,494,616,488,495
491,492,559,489,495
493,493,456,490,494
492,493,405,489,493
492,494,375,488,492
492,494,376,490,493
491,493,386,488,494
490,492,406,489,495
492,491,459,488,493
491,492,516,488,493
490,491,589,490,493
492,492,628,489,492
491,493,625,489,494
491,493,599,488,493
493,494,512,488,494
492,493,428,488,493
492,492,393,488,495
491,493,374,489,495
492,491,382,488,493
491,493,390,490,494
490,492,427,489,493
491,492,484,488,493
491,492,543,488,494
492,494,611,488,493
490,492,629,490,494
493,492,619,489,494
494,493,571,489,495
492,492,470,489,494
492,493,408,489,493
491,492,378,488,493
492,492,374,489,492
491,493,382,488,492
491,494,402,488,492
491,491,452,489,494
492,492,509,488,492
490,492,578,488,494
493,492,626,489,494
491,491,626,490,494
490,492,610,491,495
491,492,525,489,494
493,493,435,490,493
492,492,396,490,493
492,494,373,488,493
492,493,379,488,493
493,492,389,488,493
491,492,418,488,494
492,492,475,489,493
491,491,535,489,494
490,491,607,490,493
491,493,628,489,492
491,491,621,489,495
491,494,576,489,495
491,492,483,490,494
492,493,413,488,493
493,492,382,488,493
494,492,377,489,493
492,494,383,490,494
491,495,397,487,493
490,492,444,489,493
491,492,501,489,492
491,493,565,488,491
491,494,623,489,494
491,491,626,488,493
493,493,614,491,493
490,492,538,489,495
493,493,445,489,494
493,492,401,490,494
491,494,373,487,493
491,492,377,488,494
492,492,388,488,492
491,494,412,487,492
492,493,468,488,493
491,493,526,489,493
490,492,601,487,494
492,494,629,488,492
490,491,622,490,494
491,491,588,490,494
491,493,496,490,494
492,492,418,488,493
491,493,384,489,495
492,491,374,488,493
492,492,381,488,494
493,492,393,487,494
493,492,438,488,493
492,492,494,488,493
491,492,557,490,493
493,494,619,490,493
491,493,625,488,492
492,494,615,488,492
491,495,552,490,495
492,492,453,488,494
493,492,405,489,493
493,491,376,488,494
492,491,377,489,494
492,492,387,489,493
492,494,407,487,493
491,492,460,487,493
491,492,517,488,492
491,493,590,488,492
492,493,628,487,493
492,493,623,490,492
490,492,597,488,495
492,493,508,489,494
492,492,423,489,495
492,492,391,490,494
491,491,376,489,492
491,493,380,488,494
492,491,389,488,492
491,492,432,489,494
491,493,487,488,493
492,493,547,487,493
493,493,615,488,494
491,493,626,488,495
491,492,618,487,492
493,495,565,491,494
492,492,465,489,494
492,492,408,489,493
492,494,378,489,495
491,493,374,487,494
491,492,384,489,494
493,492,405,488,494
492,492,453,488,493
492,493,511,488,492
491,493,580,490,495
491,492,627,488,494
493,493,623,489,492
491,493,604,488,493
492,494,520,488,494
492,493,434,489,493
491,492,395,490,494
494,493,377,488,492
491,494,381,489,494
491,491,389,490,494
491,491,424,489,493
491,492,478,488,493
492,492,537,488,492
492,491,611,488,492
491,493,627,488,494
492,492,620,488,494
493,493,576,488,492
491,492,477,489,494
492,492,412,488,492
491,491,381,490,495
491,491,374,489,493
491,492,382,488,492
491,492,400,488,495
491,494,446,488,494
492,493,505,488,492
491,493,570,488,493
493,494,624,488,493
493,493,626,488,494
493,492,611,490,492
491,492,534,489,494
492,494,440,489,494
492,492,398,489,494
490,491,375,490,493
491,493,377,489,493
492,492,387,488,492
491,493,417,489,493
491,492,470,488,493
490,493,527,487,493
492,493,602,487,492
493,493,628,489,492
491,491,621,489,492
492,494,582,490,495
491,492,490,490,495
492,492,416,489,493
491,492,384,488,493
492,492,373,488,492
492,491,383,489,493
491,493,394,487,492
492,493,439,488,493
492,493,497,487,493
492,492,561,488,491
490,493,619,489,494
491,492,627,487,493
493,493,615,491,494
490,492,546,490,494
492,492,450,488,493
491,492,403,489,494
492,493,373,488,494
491,492,378,488,493
492,493,386,488,493
493,493,410,487,493
492,492,463,489,493
491,492,520,488,494
491,493,594,487,493
491,493,629,490,493
490,492,622,489,492
491,493,592,490,493
493,492,505,489,494
491,493,420,489,494
492,493,388,488,493
491,494,376,488,494
492,492,381,488,494
492,492,393,487,494
492,493,432,488,492
491,492,488,488,492
492,493,551,490,493
490,491,616,490,493
491,493,626,488,492
491,494,616,489,495
492,491,559,488,493
492,492,462,489,493
491,493,407,488,493
493,493,375,488,493
493,492,377,488,494
492,494,384,488,494
490,491,408,487,492
492,493,458,489,493
491,492,514,489,492
490,492,585,490,493
491,494,628,489,494
491,493,623,488,493
491,492,605,490,493
493,493,515,489,494
492,493,429,488,494
493,492,394,488,495
493,492,376,489,492
491,493,380,489,495
491,493,389,487,492
489,492,426,489,493
490,491,480,488,493
491,493,540,488,491
492,491,612,488,492
491,493,627,489,493
490,492,619,488,494
492,493,572,488,494
493,492,472,488,494
491,493,410,489,493
491,491,379,489,495
491,494,374,488,493
491,492,383,490,492
490,492,400,489,493
491,493,448,488,493
492,493,507,488,493
491,493,576,489,495
493,495,626,488,494
493,492,626,489,495
492,491,611,489,496
494,492,529,489,494
491,493,436,489,494
492,492,397,487,493
493,494,376,489,493
490,493,377,489,492
491,493,386,489,492
491,494,420,488,493
491,492,472,489,493
491,492,532,489,492
492,494,605,487,493
492,492,629,489,494
492,491,621,489,491
491,494,579,490,495
492,492,483,488,494
491,492,415,489,493
490,492,382,490,493
490,492,373,488,493
492,492,384,488,494
491,494,395,487,495
490,492,442,488,493
492,492,501,488,493
492,492,565,488,494
493,492,622,489,494
492,492,627,487,493
492,493,613,490,494
494,494,542,488,493
492,492,446,489,494
491,493,399,489,492
492,493,374,489,493
491,492,379,488,492
492,492,385,489,492
492,492,414,488,493
492,492,466,488,493
491,492,523,489,494
491,493,597,488,492
491,493,630,490,494
493,492,623,489,492
491,493,588,490,492
491,493,498,490,494
492,493,420,489,494
492,492,387,488,492
492,491,375,489,493
493,493,383,489,495
492,491,394,488,495
492,491,436,488,495
492,492,492,488,494
491,493,554,489,494
489,492,617,487,495
492,493,626,488,492
491,494,616,488,492
491,494,555,488,493
492,492,459,489,492
492,493,405,488,492
490,492,376,487,493
492,492,378,489,494
492,491,386,489,494
492,491,409,487,492
492,493,461,489,493
491,493,515,488,493
491,493,589,489,492
491,494,628,488,493
491,494,622,487,493
490,492,602,490,494
493,493,513,489,495
492,492,425,488,494
493,492,394,489,496
492,492,376,489,496
491,492,381,489,495
491,494,391,487,493
489,492,428,489,494
492,493,484,488,492
490,493,545,488,491
490,493,611,488,492
492,493,628,490,492
490,492,620,488,493
494,492,567,490,493
493,493,469,489,493
492,492,410,490,495
492,491,378,489,496
493,493,375,488,495
491,493,384,489,497
493,492,401,488,495
491,494,452,488,496
491,493,510,488,498
492,494,580,490,499
490,495,628,490,499
492,495,624,491,499
492,494,612,493,496
491,494,526,491,494
492,493,435,491,490
491,491,395,490,488
494,490,374,488,490
492,491,378,488,494
493,494,389,486,493
493,493,422,487,494
492,493,475,488,493
491,493,535,488,495
491,492,610,488,495
494,494,629,490,494
491,494,621,489,494
491,494,576,490,496
493,493,482,488,498
493,495,414,488,496
491,493,381,490,494
494,494,377,488,494
492,492,385,489,492
491,491,400,489,488
492,492,443,489,490
491,491,501,488,491
493,491,567,488,491
492,493,623,488,492
493,493,626,488,493
492,493,613,487,493
490,493,537,490,494
493,493,444,489,494
491,493,400,489,497
492,492,377,490,497
490,493,378,490,496
491,493,387,488,497
494,495,414,488,496
491,493,469,488,496
491,494,527,487,495
492,494,602,489,494
493,493,630,491,493
492,494,621,491,494
492,492,584,490,492
493,492,493,491,492
493,492,419,490,493
491,492,384,489,493
490,491,376,489,497
492,495,383,487,498
489,493,394,487,499
493,494,440,489,498
492,495,498,491,498
490,494,559,492,496
490,492,619,490,494
492,493,628,491,492
492,491,616,490,490
492,493,549,488,491
493,492,453,488,493
492,493,403,488,493
492,492,376,488,493
493,492,375,487,493
491,491,387,487,495
491,492,412,488,494
490,492,462,488,493
491,493,517,487,492
491,492,592,489,492
493,492,629,488,492
493,493,623,488,493
494,494,596,488,494
494,492,507,490,494
492,493,423,490,494
492,493,389,490,493
491,491,375,491,495
491,493,381,491,494
490,493,391,491,494
490,494,430,488,496
492,493,488,488,493
491,494,550,490,494
490,494,615,488,494
493,492,631,490,495
491,491,619,492,498
492,495,563,490,498
492,494,466,491,497
492,494,407,490,496
491,494,375,489,494
491,495,376,487,494
491,494,385,491,493
491,491,406,488,491
493,492,455,489,494
491,493,513,488,494
491,492,585,488,495
491,492,627,487,496
492,494,625,486,495
491,495,606,488,496
493,492,517,489,492
492,492,432,490,491
493,493,394,490,493
493,493,375,488,493
493,492,378,488,491
492,491,391,489,492
491,494,423,489,496
491,492,480,487,495
491,493,540,487,495
489,493,609,488,497
492,494,629,487,495
493,493,621,490,493
494,494,574,487,493
494,493,477,489,493
493,492,413,490,495
492,494,378,488,496
491,492,377,487,495
492,494,383,489,495
491,493,399,488,494
490,493,449,488,494
490,493,506,488,495
490,495,573,486,495
491,492,625,488,495
493,492,627,488,496
493,492,614,488,498
493,494,534,490,496
492,492,441,488,493
492,493,398,490,492
490,492,376,488,494
491,493,377,488,492
492,494,387,488,491
492,494,417,488,493
493,492,471,488,494
493,494,531,488,493
491,495,606,489,495
491,492,629,489,493
491,493,621,491,492
491,492,583,490,495
493,493,488,491,493
492,492,417,490,493
492,493,382,486,495
492,494,375,486,499
493,494,384,489,499
491,495,393,488,503
491,495,442,488,499
490,494,500,489,497
490,493,562,489,490
490,492,622,491,489
491,493,626,492,488
491,489,615,491,491
493,494,546,491,492
492,492,448,487,493
494,491,401,486,494
494,491,377,486,495
492,491,375,486,494
493,492,386,488,493
493,493,412,488,493
492,492,463,490,493
492,492,521,490,492
492,494,596,491,496
491,493,629,489,498
493,494,622,490,497
491,493,593,492,500
492,495,503,491,498
493,495,423,492,491
492,492,389,491,489
491,490,373,486,492
491,492,383,489,492
491,492,391,491,492
493,493,434,492,492
493,492,490,494,493
493,491,550,493,492
492,491,618,492,494
493,493,627,489,494
491,492,615,486,494
492,493,558,486,494
493,493,461,487,494
491,492,406,487,493
493,494,378,492,494
492,492,377,493,495
495,492,385,490,494
493,492,408,488,495
490,493,455,487,495
491,493,514,484,495
492,494,588,486,495
489,494,624,486,494
492,494,622,486,494
493,494,602,495,496
493,493,514,495,496
496,493,431,496,494
494,492,394,495,495
493,491,376,492,492
494,491,380,489,494
490,493,389,487,495
493,492,427,485,495
492,493,484,486,495
492,494,542,486,493
492,494,611,487,495
493,494,630,488,495
493,493,617,488,495
494,493,573,488,498
493,496,472,492,498
493,493,410,495,495
492,493,378,499,492
491,493,375,498,493
491,490,382,493,490
491,489,403,490,491
493,491,449,483,492
491,491,505,484,493
492,492,576,483,494
492,493,623,484,494
491,492,624,486,494
493,493,608,489,494
492,493,526,489,495
492,493,436,487,494
492,494,397,487,493
492,491,376,492,493
496,492,379,498,492
496,493,387,502,495
495,490,419,498,493
493,492,475,496,493
492,492,532,490,494
492,493,604,486,494
492,492,629,487,495
493,494,619,487,494
494,494,577,486,495
494,494,484,486,496
493,493,414,488,496
493,492,383,488,493
491,494,376,490,493
491,491,382,491,492
492,491,396,489,492
492,492,444,487,493
492,492,500,486,493
492,491,567,487,492
493,494,622,486,494
493,492,626,488,496
494,492,614,490,496
495,492,542,492,495
493,493,444,493,495
492,493,400,492,493
491,491,375,491,493
492,493,375,489,493
493,494,386,490,492
491,490,415,492,493
493,492,465,491,493
492,492,525,491,495
493,491,599,489,496
492,492,628,485,496
490,493,622,484,495
492,493,586,490,495
494,493,497,488,493
492,493,418,488,493
492,493,384,489,492
494,493,375,492,492
493,492,381,494,494
494,491,391,495,490
492,491,439,493,492
491,491,493,491,494
491,491,555,490,493
491,492,617,485,493
493,492,627,485,494
492,494,615,488,497
492,493,552,488,497
493,495,455,491,496
495,494,405,496,494
496,493,376,499,492
495,490,378,502,493
494,492,385,500,492
492,490,408,499,492
492,491,459,497,492
491,492,516,499,493
494,491,593,495,493
493,492,626,485,493
491,493,624,484,495
493,492,598,482,496
494,492,508,484,495
493,493,426,483,493
491,492,390,485,494
494,493,375,483,493
492,493,379,484,492
492,493,388,485,492
492,494,429,487,495
492,494,487,488,495
492,492,546,488,494
492,493,613,492,496
494,491,629,501,494
493,492,619,508,494
496,492,568,507,493
496,492,468,501,494
493,492,409,490,496
491,495,375,479,493
491,494,375,479,496
494,493,384,483,497
494,494,403,485,495
492,492,454,487,495
491,493,510,486,493
490,492,581,487,492
490,492,625,487,492
493,493,623,488,493
492,490,606,489,493
493,492,523,489,494
493,493,435,488,493
492,492,397,487,494
493,491,376,489,494
492,491,380,490,492
493,493,389,490,493
491,491,422,487,493
493,492,477,488,493
491,492,536,489,493
492,493,606,488,494
492,493,630,491,494
492,493,621,492,494
492,494,575,492,495
494,492,480,496,494
492,491,413,492,494
492,492,380,487,494
495,492,373,486,492
492,490,383,488,494
493,494,398,486,494
492,494,446,489,496
492,493,502,486,496
492,493,569,486,495
492,492,625,486,493
493,494,626,488,491
491,493,613,490,490
493,492,534,493,490
494,492,443,495,493
492,493,400,492,494
493,494,374,490,493
493,492,377,490,494
493,491,388,489,496
492,491,417,493,496
492,492,469,491,493
492,493,527,492,493
490,492,602,490,494
492,493,627,488,493
494,493,620,484,495
493,495,582,485,495
492,493,492,488,493
492,492,416,487,493
492,492,385,486,495
492,492,376,488,495
491,493,381,490,496
491,492,395,489,497
493,494,439,489,496
492,493,497,489,494
493,494,560,492,493
494,494,621,498,493
493,491,627,498,491
492,490,616,495,490
492,494,549,491,494
492,493,449,484,494
493,493,402,487,494
493,493,374,488,493
492,493,375,485,494
490,492,386,487,494
492,493,409,487,494
492,492,463,486,494
491,492,520,488,494
492,491,596,492,495
492,492,629,498,493
495,493,622,504,491
494,492,596,500,493
493,494,504,499,492
491,492,424,495,492
493,492,389,488,493
492,492,374,483,493
493,491,378,481,493
492,492,392,485,497
491,493,433,486,497
491,493,489,486,497
491,494,548,488,494
493,495,618,488,492
493,494,628,490,491
491,493,618,494,490
495,493,564,496,493
494,492,463,503,494
495,492,407,501,493
494,491,378,492,493
493,492,374,482,491
492,492,383,485,492
491,492,404,485,492
491,492,454,485,493
493,492,513,484,493
492,493,584,485,493
491,492,627,485,494
492,492,625,488,494
492,492,606,491,497
493,495,517,488,495
493,493,431,489,495
492,492,394,488,493
492,494,374,487,492
492,494,380,487,493
493,492,390,488,492
494,492,424,490,491
493,491,481,492,494
492,492,540,490,496
491,492,612,493,495
490,493,628,493,494
492,494,618,494,493
494,492,576,495,491
494,492,475,490,493
493,493,410,482,493
492,493,379,483,493
493,491,376,486,495
493,493,382,490,492
491,491,403,492,494
493,492,448,489,493
493,493,505,490,491
493,493,572,490,492
492,494,624,496,493
492,492,627,497,494
495,492,611,497,495
495,492,530,493,496
493,494,439,487,497
492,494,398,486,495
491,491,376,493,492
496,492,380,494,491
492,493,387,492,494
492,494,416,490,492
492,493,472,490,491
492,492,530,487,493
493,492,603,484,492
492,492,630,486,493
493,493,620,490,493
492,492,582,490,493
491,493,487,487,495
492,492,415,487,495
492,492,382,486,492
493,492,375,487,492
494,491,383,485,493
493,491,397,487,495
492,492,442,487,496
492,493,499,487,497
491,494,563,487,495
493,495,621,488,494
493,494,625,487,490
493,493,615,488,489
494,493,544,489,494
494,492,448,490,493
495,492,403,492,492
492,493,373,495,496
492,492,378,496,494
491,492,387,498,494
489,493,410,488,495
492,493,465,487,495
493,493,524,490,495
496,494,597,491,491
496,491,629,487,492
493,491,623,490,493
493,494,588,487,492
494,491,501,491,493
493,492,419,492,495
492,493,387,487,494
492,493,374,488,494
492,494,382,491,495
492,494,393,489,492
490,492,434,490,492
493,491,492,485,493
493,491,554,487,494
492,491,619,492,493
492,492,627,494,494
495,493,616,497,495
492,493,559,495,497
492,495,457,489,494
492,494,406,488,491
494,492,376,486,492
493,492,374,485,493
493,491,386,483,493
492,494,408,487,494
491,492,458,487,493
493,492,516,488,493
491,493,589,487,495
494,494,627,486,494
491,493,624,488,494
494,493,601,488,493
495,493,514,489,493
494,493,428,490,493
494,494,390,489,496
491,491,376,487,494
493,492,379,490,493
493,493,389,492,491
493,493,429,496,491
491,492,484,490,491
492,491,544,490,493
494,493,614,488,492
491,493,629,487,494
491,492,620,486,494
492,492,571,488,495
492,493,469,487,496
493,493,411,495,493
494,491,380,502,492
496,493,376,505,494
495,493,385,510,493
493,493,404,502,492
491,493,448,485,494
492,494,508,480,494
492,492,578,484,495
492,494,625,486,493
492,494,624,486,493
493,491,612,489,494
494,494,524,485,492
494,492,435,484,493
494,491,396,483,495
494,492,376,485,494
493,491,380,490,495
491,492,387,489,495
494,493,420,490,496
492,493,476,488,496
491,493,534,486,493
493,494,606,484,492
493,494,630,486,491
491,492,619,487,492
494,492,577,488,492
492,492,482,489,493
494,492,415,490,492
492,492,383,492,492
492,492,375,490,495
494,493,382,492,494
492,491,400,491,492
493,493,443,485,495
492,493,503,485,494
494,493,568,490,494
491,495,625,491,498
492,496,628,490,496
490,494,612,495,493
491,492,538,493,492
493,492,445,490,490
493,491,399,485,492
492,490,376,483,493
494,492,377,487,493
492,491,387,488,495
493,491,415,497,492
494,491,469,499,492
493,492,525,496,493
491,492,599,498,493
492,491,630,491,492
492,493,619,477,493
492,494,585,482,493
494,493,496,488,495
492,492,418,487,494
492,494,385,481,491
492,491,375,484,496
490,492,382,489,495
494,492,394,489,494
495,493,438,487,494
493,493,495,488,493
493,491,557,486,489
492,492,618,489,493
494,492,628,490,494
493,492,617,490,495
493,494,550,493,495
495,493,455,497,495
495,493,404,497,494
492,492,373,492,493
492,494,375,484,493
492,494,385,487,495
490,491,408,484,494
492,493,462,486,494
491,492,518,487,494
493,491,594,489,494
494,492,629,491,492
493,492,624,491,494
492,494,596,492,498
493,494,507,491,496
493,494,424,490,494
493,494,391,491,491
494,493,376,495,489
492,490,382,493,493
492,494,389,487,495
489,492,431,484,494
491,491,486,486,494
492,492,547,488,491
491,492,613,490,495
492,491,627,488,493
494,492,619,492,491
497,493,565,489,492
494,492,465,489,495
494,492,409,488,495
492,494,374,488,497
492,492,377,493,494
495,493,384,500,492
494,492,404,503,492
493,493,454,498,492
491,492,512,486,493
489,493,581,473,494
489,493,626,480,495
490,492,625,485,495
492,491,609,489,498
493,493,523,489,497
494,495,433,488,494
492,493,396,489,494
494,493,375,493,492
492,492,379,491,491
493,492,389,489,493
494,493,423,486,495
491,492,478,484,495
492,492,538,484,492
491,495,611,488,492
491,492,628,488,491
492,492,619,489,491
492,493,578,489,497
493,494,477,491,497
493,494,414,491,495
493,493,380,489,494
494,492,376,488,492
493,491,385,490,490
492,493,398,491,493
491,491,446,491,490
492,492,506,494,492
491,492,569,490,491
491,493,623,486,491
493,492,627,493,493
494,493,613,494,494
494,493,534,498,495
495,492,441,488,494
492,492,398,486,495
492,491,377,490,493
491,492,378,487,494
494,492,385,489,492
495,491,418,487,493
491,493,468,485,494
491,495,528,486,496
493,494,603,486,496
491,496,628,488,497
492,493,621,485,492
494,491,585,489,490
494,491,490,488,493
493,492,417,489,493
493,493,386,488,495
491,493,373,488,494
491,493,383,489,495
492,493,395,491,495
493,492,440,492,493
493,492,497,489,492
492,493,562,492,491
491,492,619,493,491
492,493,626,491,492
492,494,614,494,492
492,495,546,495,496
493,495,452,488,496
492,493,403,489,496
494,493,375,487,494
493,491,379,485,492
493,489,385,491,491
492,489,411,490,492
492,492,463,486,492
492,492,519,485,493
492,492,597,487,492
492,494,629,490,494
493,492,623,493,496
494,493,595,501,496
491,495,505,499,498
494,494,421,493,495
494,493,389,485,492
491,491,374,484,490
493,492,379,481,491
493,491,393,485,492
494,493,432,487,493
493,492,490,484,492
492,493,552,487,493
493,492,617,488,494
493,492,627,489,494
492,494,617,487,493
490,492,560,487,494
493,492,461,488,493
492,492,406,490,493
493,493,373,489,492
493,493,377,495,493
491,491,386,491,497
494,493,404,489,497
493,493,458,487,497
490,495,515,487,495
490,493,586,488,492
495,492,629,486,489
493,492,622,489,494
493,492,603,491,493
495,494,518,495,496
494,494,430,496,496
494,493,394,493,494
490,492,378,490,494
493,493,378,481,490
491,490,389,483,490
490,491,424,485,493
491,492,480,488,493
492,493,541,491,494
491,492,610,489,493
493,493,629,490,491
493,492,621,488,493
494,491,573,486,495
493,492,473,490,494
492,493,411,489,494
491,492,378,488,493
495,492,374,487,492
492,494,383,486,493
492,495,400,485,493
493,494,451,486,493
492,492,508,487,493
492,491,573,488,496
493,491,627,495,495
494,492,627,504,492
494,493,611,505,494
494,493,531,499,493
491,492,437,491,494
493,493,396,481,491
493,494,374,478,493
493,493,379,485,494
494,492,388,487,494
493,493,417,485,493
491,492,473,484,492
492,493,534,486,492
490,492,606,489,493
492,493,628,488,494
493,495,623,492,496
492,496,580,490,495
492,493,486,491,495
494,493,417,490,492
494,491,383,491,492
493,490,375,492,492
494,493,383,491,492
490,492,396,487,494
492,492,441,485,492
490,492,500,485,492
492,493,563,484,492
493,492,623,487,494
492,492,628,489,493
492,494,613,490,496
493,493,544,494,495
492,494,448,493,493
492,491,400,491,491
490,491,376,489,493
491,493,376,492,492
493,491,386,493,493
494,494,412,491,494
493,493,466,497,494
493,493,522,490,493
492,495,597,488,495
494,492,627,483,494
494,494,621,487,491
493,493,589,488,492
492,493,498,486,494
492,493,421,486,496
493,494,387,484,496
490,492,374,485,495
492,494,384,487,494
491,492,394,489,493
491,490,435,488,490
492,492,493,489,491
491,492,554,486,492
491,492,617,487,492
493,493,628,487,493
492,494,616,488,494
493,495,556,488,496
493,493,458,489,494
493,492,404,490,492
492,491,378,490,494
491,492,377,491,492
490,492,384,491,493
491,492,409,493,494
492,493,458,492,494
491,492,516,491,493
492,493,590,487,494
492,493,628,485,496
492,492,623,483,494
493,496,603,488,496
492,495,512,487,493
493,493,428,489,491
490,492,392,489,492
491,492,375,491,492
491,490,381,492,493
493,492,392,496,493
490,491,429,494,492
492,492,484,488,492
492,492,546,482,493
491,491,613,485,494
492,494,628,485,495
491,494,618,487,496
494,493,570,488,495
493,495,470,489,495
492,495,410,489,494
493,494,378,492,494
491,492,378,493,494
492,492,383,492,493
491,491,406,490,493
491,492,452,487,492
491,491,509,489,492
492,491,579,483,491
491,492,624,489,493
491,491,624,489,494
494,493,609,487,495
495,493,525,489,496
493,493,435,492,496
493,493,397,492,496
493,494,374,487,493
493,494,378,489,492
492,494,388,490,490
491,493,421,495,492
492,492,475,494,493
492,492,537,488,493
492,492,607,489,493
493,493,630,486,493
491,492,622,483,493
491,492,579,489,496
495,495,482,490,496
495,494,416,495,498
494,493,379,497,494
492,494,376,496,493
493,494,385,496,491
493,491,398,497,489
490,491,446,493,490
491,492,502,491,491
491,492,569,484,492
490,492,624,492,490
491,493,625,494,496
494,490,615,490,491
492,494,538,488,494
493,493,442,481,495
494,493,399,478,496
494,493,376,482,496
493,492,379,487,497
493,494,386,487,493
491,491,415,487,493
492,492,468,487,493
492,493,526,487,490
492,493,600,488,489
494,494,630,488,493
491,493,623,487,494
491,492,584,488,496
494,493,494,487,495
493,493,419,488,494
492,493,387,490,493
493,494,374,489,492
491,493,383,488,497
492,493,392,486,495
493,495,438,487,494
492,493,497,487,493
491,493,557,488,490
493,491,621,489,489
492,493,627,490,493
491,492,615,490,494
491,492,552,491,492
492,493,454,491,492
492,492,403,490,493
493,493,374,488,493
491,492,377,490,494
493,493,386,486,495
494,493,412,487,496
492,493,461,486,494
492,493,517,489,492
490,492,594,486,493
492,493,626,487,491
492,494,622,488,492
493,494,596,490,492
493,492,508,490,493
494,493,426,489,493
493,493,390,489,496
494,492,376,486,495
492,492,382,488,494
490,492,392,486,494
493,492,430,488,492
491,493,488,488,492
491,492,548,487,491
493,495,614,487,494
493,494,630,489,497
493,494,620,491,495
492,495,563,491,496
493,494,465,490,494
492,492,408,491,490
491,492,376,493,488
492,491,376,495,490
493,491,385,493,493
494,495,405,487,493
491,492,455,487,494
492,493,511,487,494
493,493,585,488,495
492,494,628,490,494
493,494,624,492,495
491,494,608,490,497
491,495,518,492,494
494,492,433,488,491
493,491,394,485,490
490,489,376,487,493
494,491,380,487,492
492,493,390,487,494
493,490,424,487,492
492,492,479,488,492
492,493,539,491,492
490,493,610,489,495
492,494,628,489,495
491,492,621,489,496
494,496,574,488,495
494,495,477,487,496
493,494,414,486,493
492,494,380,485,494
493,493,374,486,492
492,491,383,488,493
492,492,399,489,492
491,493,448,487,493
492,493,505,486,492
493,494,571,489,490
491,490,625,490,492
493,492,625,490,494
493,491,613,487,495
493,491,531,488,493
491,492,439,488,494
492,493,398,488,493
491,492,374,492,493
492,494,376,492,493
494,494,388,489,493
492,495,416,486,494
490,493,471,488,492
491,492,530,489,491
492,492,604,487,493
491,493,629,486,491
491,492,621,489,492
495,493,583,488,493
493,493,489,490,495
493,492,414,490,493
493,492,382,486,491
493,492,375,487,493
493,492,381,488,492
492,491,396,487,495
494,493,440,487,494
491,492,497,489,493
491,492,560,488,492
490,494,621,487,495
491,491,628,487,494
494,493,615,490,493
492,494,546,490,496
494,493,449,491,495
494,493,402,493,494
493,491,378,494,492
493,492,376,490,492
492,492,384,492,493
494,491,409,488,491
491,492,462,488,492
491,493,520,486,492
492,493,596,485,494
490,492,628,485,495
492,494,622,484,495
490,492,593,489,496
492,493,502,489,494
492,493,422,489,493
492,493,388,487,491
491,493,376,488,494
491,493,381,487,494
492,493,392,486,495
494,493,434,487,495
492,493,491,488,492
491,492,552,489,492
493,495,617,490,493
490,494,626,490,492
491,494,616,488,493
491,495,560,490,494
493,494,462,491,491
492,492,406,487,493
491,492,376,488,494
491,491,377,488,495
491,492,385,489,494
491,492,409,492,493
492,492,456,493,492
493,492,515,495,494
492,494,587,494,492
491,493,626,492,491
493,492,623,486,491
493,492,602,486,492
493,491,515,486,494
493,494,429,488,494
490,493,393,490,494
490,492,375,494,491
493,494,380,494,495
493,491,388,489,491
493,490,427,488,492
493,493,483,487,492
492,492,542,486,493
494,493,612,486,494
493,492,629,488,494
493,494,618,489,494
491,493,572,489,495
493,493,471,494,493
492,493,409,492,493
493,494,378,488,491
491,492,376,489,491
492,491,384,488,491
492,493,401,487,493
490,492,450,486,494
492,492,507,488,493
491,493,576,489,493
494,492,624,493,492
494,491,627,495,493
492,494,610,493,493
493,493,528,490,493
494,492,437,483,493
492,493,396,483,495
492,491,377,484,496
493,494,379,487,496
491,494,388,487,495
490,494,418,487,493
491,493,475,490,489
491,490,535,492,490
493,492,605,490,492
492,493,629,492,493
491,491,622,492,492
492,492,581,491,497
492,494,486,486,495
492,493,414,486,492
492,492,382,482,493
491,493,373,484,491
493,493,381,487,493
493,493,397,487,493
491,492,443,490,493
492,492,500,489,493
491,493,568,487,494
490,492,624,490,493
491,492,625,489,492
492,494,616,486,495
493,494,539,487,493
494,493,446,489,493
493,494,401,489,494
493,493,375,487,495
493,491,378,487,497
492,492,387,487,495
492,495,414,489,495
491,494,466,487,492
491,493,524,489,490
491,492,597,488,491
493,493,627,488,492
492,493,623,492,494
493,494,589,490,492
492,494,498,487,494
492,492,420,487,493
492,491,387,488,495
491,491,375,486,494
493,493,380,487,492
492,492,394,488,490
491,495,437,488,493
491,493,493,487,492
491,493,555,486,491
490,494,619,489,494
494,492,626,487,492
494,492,617,490,492
492,492,555,491,493
493,494,456,489,494
492,493,404,488,492
492,492,378,488,492
492,493,376,488,493
491,493,387,488,496
494,492,410,489,497
492,493,460,490,495
492,493,516,489,492
492,492,591,489,491
494,492,629,486,490
492,493,622,486,491
493,494,598,486,490
493,494,511,487,494
492,493,428,488,493
493,491,390,489,492
492,492,377,491,493
491,491,382,495,493
491,491,390,495,491
492,492,430,490,492
492,492,486,491,493
492,492,546,485,490
492,494,612,482,493
493,492,629,486,495
494,492,618,490,495
494,492,566,487,493
492,492,468,487,494
492,493,408,488,493
491,493,376,490,492
492,493,374,487,492
493,493,383,487,493
492,491,406,487,493
494,492,452,486,493
493,493,512,485,493
491,492,582,488,494
491,492,626,488,493
492,493,626,487,494
492,494,607,489,496
494,492,524,489,493
493,493,434,489,493
493,493,396,489,494
494,493,376,487,493
492,494,382,490,496
490,495,388,489,493
491,492,423,489,493
491,493,478,487,492
491,492,537,488,491
491,493,606,488,494
491,492,631,487,492
492,493,620,488,491
491,493,578,487,494
494,492,481,488,493
493,492,414,490,494
492,494,380,487,492
490,493,376,489,495
493,493,384,487,492
491,494,398,487,492
491,494,446,488,493
491,493,502,488,493
491,493,572,487,494
494,493,624,489,493
493,493,629,491,493
492,493,616,494,492
491,491,536,493,493
494,493,441,490,493
492,493,399,489,494
493,492,373,490,494
492,495,378,488,494
492,494,389,489,494
492,495,415,488,493
492,493,470,484,491
491,492,528,484,490
490,492,601,485,493
493,492,631,488,494
492,491,623,488,495
492,492,585,488,493
493,494,493,488,494
493,492,416,488,493
493,491,386,489,494
492,491,376,490,494
490,491,382,488,494
492,493,392,486,493
489,492,439,487,493
492,493,496,489,493
492,493,559,489,492
492,494,620,489,493
492,494,627,489,494
492,494,617,486,493
490,493,548,488,494
493,493,452,488,493
493,493,405,489,493
491,492,377,490,493
490,492,376,488,495
493,492,385,488,492
490,491,411,487,494
492,493,462,486,492
491,493,519,487,493
491,493,594,487,493
490,494,627,487,493
491,492,624,487,493
493,494,595,490,494
492,493,506,489,493
493,493,423,489,493
493,493,390,488,495
496,494,375,488,492
494,492,381,490,493
496,492,392,486,493
495,492,433,487,493
492,492,487,488,492
490,493,548,489,492
487,492,615,487,492
491,493,627,488,491
491,494,617,486,491
491,495,563,488,492
491,493,463,489,494
492,492,408,489,494
493,493,378,490,493
491,493,377,489,494
491,492,386,489,493
490,491,407,492,492
490,492,454,489,492
490,492,512,489,492
490,491,585,490,492
493,495,626,485,493
493,493,626,487,493
492,492,606,487,491
492,495,517,488,494
491,494,431,488,493
492,493,393,489,493
491,492,376,487,492
492,493,379,487,493
491,491,390,489,495
492,494,426,486,493
490,492,480,488,493
492,493,541,488,494
492,493,612,488,494
490,492,629,489,494
490,492,620,486,494
494,493,575,490,493
492,493,475,489,494
492,493,411,490,493
492,495,379,489,492
493,494,376,489,493
493,493,383,487,495
492,492,400,486,491
491,492,450,487,493
492,494,507,487,492
491,492,574,489,492
491,493,626,489,494
492,494,625,487,494
491,491,614,488,493
495,492,530,490,492
494,490,438,489,494
494,490,398,490,495
494,491,376,489,495
494,492,377,488,493
492,492,386,488,492
491,494,416,487,490
488,497,473,487,491
488,493,530,487,494
491,490,606,486,492
492,493,630,488,492
490,491,622,488,493
493,492,583,488,495
492,493,488,489,494
492,493,415,487,494
491,493,384,489,493
492,493,376,488,490
491,494,381,487,491
492,495,395,487,490
492,494,442,489,492
490,492,501,487,491
491,494,562,487,489
491,492,624,487,494
491,493,628,489,494
491,494,616,489,495
493,493,546,488,493
493,494,449,488,494
492,493,401,487,492
493,494,374,487,493
493,493,379,488,492
493,493,388,487,491
491,494,410,487,490
490,493,466,488,491
491,493,523,487,494
491,492,598,489,495
490,494,629,488,492
491,494,622,489,494
491,491,590,487,493
494,493,502,489,494
492,493,421,488,494
494,493,389,487,494
493,492,377,488,493
492,493,380,487,493
490,493,392,487,493
493,492,434,487,492
492,493,491,487,492
494,493,553,486,491
493,494,619,489,492
491,492,628,487,493
489,494,616,487,494
489,492,559,490,494
491,492,459,488,494
490,493,407,489,492
489,492,376,487,493
492,492,375,487,492
492,492,387,490,493
492,494,407,486,492
492,493,458,487,492
491,494,516,488,493
490,493,587,488,494
492,493,629,488,493
493,494,625,490,491
491,493,603,490,492
491,494,514,489,493
491,493,429,489,495
491,494,392,488,493
490,492,378,490,493
492,491,382,488,494
495,492,390,488,494
493,492,429,488,492
490,492,482,487,492
490,492,545,487,492
492,492,612,488,491
490,494,627,488,492
492,494,619,487,492
493,495,571,488,493
491,492,470,489,493
493,493,411,488,492
490,494,378,488,494
489,492,375,489,493
490,492,383,489,492
490,492,403,487,495
491,493,450,488,493
490,492,510,488,494
491,494,577,487,494
491,495,627,488,495
491,493,626,489,493
491,494,609,489,494
492,491,525,489,492
492,493,435,490,491
491,493,395,489,491
491,493,374,488,490
491,492,381,489,492
492,493,388,487,492
491,492,420,488,492
493,492,475,488,491
493,492,535,488,493
492,492,608,489,493
492,492,629,487,493
492,493,619,489,490
491,493,580,488,491
490,495,481,489,492
491,494,413,488,491
492,494,382,487,492
490,492,375,488,494
493,491,382,487,492
492,491,400,489,495
490,491,443,489,492
492,493,502,489,491
490,492,567,488,492
490,493,622,488,493
492,492,628,487,492
492,493,614,487,493
493,494,539,488,493
492,493,445,489,492
491,493,399,489,494
491,495,373,487,493
490,493,377,489,492
490,493,385,488,491
490,493,412,487,491
490,493,468,488,492
491,492,526,487,492
493,493,602,490,492
491,492,630,489,493
492,492,623,489,494
492,492,589,490,494
491,494,496,489,493
493,493,418,490,493
492,493,387,488,491
490,493,374,487,491
492,493,380,487,492
492,493,394,490,492
490,493,437,488,492
493,493,494,488,492
491,492,558,489,493
491,492,620,489,492
491,493,626,487,491
491,492,619,488,491
489,494,551,489,493
492,493,454,488,492
491,494,404,488,493
493,492,375,487,493
493,491,378,488,493
492,494,385,487,492
491,492,409,490,492
492,493,461,489,492
490,493,517,488,491
491,494,591,488,492
492,494,628,489,492
491,493,624,488,494
493,494,598,490,491
493,493,510,489,494
492,493,425,489,494
491,492,391,490,493
492,495,376,488,491
490,493,379,488,493
492,492,390,487,491
491,494,430,487,492
491,493,486,488,492
491,493,549,489,490
489,492,616,487,493
491,494,628,487,492
490,493,620,490,493
490,492,567,490,493
491,493,466,489,493
492,493,409,488,493
491,492,374,487,492
492,492,376,489,492
492,493,386,488,493
491,492,405,488,493
491,492,454,487,493
490,493,510,488,492
491,492,581,487,492
493,493,627,489,492
491,494,624,488,492
492,494,606,487,492
493,495,524,489,493
491,493,433,488,493
491,493,395,488,494
493,492,378,488,494
490,492,380,490,493
491,492,389,489,491
492,494,423,489,492
490,492,478,487,493
492,493,539,487,491
491,495,609,488,493
492,494,630,488,494
492,493,621,488,494
490,494,576,489,495
492,492,479,488,493
492,494,414,489,493
491,493,381,491,493
490,493,374,489,491
491,494,385,489,492
490,494,399,487,492
490,492,447,489,491
491,493,505,488,492
491,492,572,488,493
491,492,625,490,492
493,494,627,491,492
490,493,614,488,493
493,494,532,487,493
491,493,441,486,492
490,493,398,487,493
492,492,378,489,492
493,493,380,488,492
490,494,385,488,494
491,492,418,488,493
490,492,470,487,492
490,492,528,488,491
490,493,604,487,493
492,494,628,488,492
491,492,622,489,493
493,495,584,487,493
493,494,491,488,493
493,493,417,488,493
492,494,383,489,494
491,492,374,486,492
492,493,382,489,491
490,493,394,489,491
490,493,439,487,492
490,493,498,487,492
491,493,561,487,492
490,493,622,487,493
492,492,629,488,493
491,491,617,489,495
491,492,549,488,492
492,494,451,488,493
491,493,402,488,494
491,494,373,488,491
491,495,377,487,492
491,494,385,487,492
491,494,410,487,492
490,492,464,487,493
491,493,520,487,492
492,492,598,489,494
490,493,630,489,493
490,493,622,489,492
490,493,596,488,494
491,494,503,489,494
492,494,423,488,493
492,494,390,487,492
492,494,376,488,493
491,492,381,488,492
491,494,394,489,494
490,494,431,487,492
491,492,489,487,493
490,493,551,488,491
489,493,615,488,491
491,492,629,488,492
492,494,618,489,493
490,492,562,488,494
493,493,462,488,493
492,493,408,488,494
490,492,377,488,495
490,494,376,486,493
490,492,384,488,493
492,492,407,487,492
491,494,456,488,492
491,493,513,488,492
492,493,584,489,491
490,494,630,488,493
491,494,623,487,492
490,492,607,490,494
491,492,518,489,494
492,493,431,489,494
492,493,394,488,491
490,493,375,488,494
490,492,379,487,493
492,494,391,487,492
493,493,426,487,493
491,493,480,487,491
491,492,543,488,493
491,494,610,487,493
491,494,629,488,492
491,494,619,488,491
491,494,572,488,493
492,494,475,488,493
492,493,413,488,493
492,493,379,490,492
493,493,378,487,493
491,492,386,488,493
491,491,403,489,494
491,493,448,487,492
491,493,507,487,493
491,492,574,487,491
491,495,625,487,492
491,494,627,486,493
492,493,611,490,493
491,493,531,489,493
491,493,438,488,494
492,493,398,489,493
491,492,378,489,492
490,493,378,488,493
493,492,388,488,490
493,495,421,488,494
490,493,472,487,493
491,494,532,487,492
492,494,606,488,494
492,493,629,488,494
493,495,620,487,494
491,493,583,488,494
494,494,485,489,493
493,493,417,489,493
492,494,383,488,492
489,493,376,488,493
490,495,384,487,492
490,492,396,489,494
492,492,443,487,493
492,493,501,487,493
491,492,565,489,492
492,494,621,488,493
491,494,628,489,494
491,493,613,488,492
492,495,542,488,492
491,494,449,488,492
490,492,402,489,493
493,494,376,487,491
491,494,377,489,494
491,492,387,489,493
491,492,414,489,491
490,492,467,489,492
491,492,523,488,493
492,494,598,488,491
490,492,630,489,493
492,494,623,486,494
493,495,591,488,494
493,493,500,489,493
492,493,419,488,493
491,493,387,487,492
492,492,374,489,492
490,494,381,487,492
491,494,393,488,491
491,492,436,488,493
491,493,494,487,492
490,493,555,488,494
493,494,619,489,494
492,493,630,489,493
491,493,618,487,492
493,495,557,490,493
492,494,458,489,493
492,493,404,488,493
492,494,375,486,492
492,495,378,486,492
492,493,386,486,492
490,493,407,487,493
491,493,459,488,492
491,492,517,487,493
490,493,591,488,492
490,494,628,489,491
491,492,625,488,494
492,495,600,487,494
491,492,513,488,493
492,493,427,487,492
492,494,394,488,494
493,493,377,488,492
492,494,381,489,493
491,494,391,487,492
490,492,428,488,492
491,493,484,487,491
490,494,546,487,490
490,493,615,489,493
492,494,629,489,492
490,494,621,489,495
494,493,570,489,495
494,493,470,488,494
492,493,411,489,494
491,494,376,486,492
491,493,376,488,493
491,492,385,487,492
491,494,402,486,491
492,494,452,487,492
491,493,509,488,492
490,492,580,487,493
493,494,626,487,492
491,492,626,489,493
490,493,611,489,493
490,493,526,489,493
492,493,435,488,493
492,493,395,489,494
491,493,374,487,493
493,492,380,487,493
493,493,390,487,493
493,492,420,488,492
490,492,476,487,492
491,494,536,487,492
490,493,608,490,493
491,494,628,488,492
492,495,620,487,492
491,495,578,490,495
491,493,482,488,493
493,493,416,489,492
492,492,382,487,494
493,492,377,488,492
491,492,385,488,493
492,493,397,486,492
490,493,445,487,492
492,493,502,488,492
491,493,566,487,491
491,494,624,487,492
492,494,626,489,492
490,492,615,487,494
491,494,537,488,494
491,493,444,488,494
492,492,400,488,493
491,492,377,490,493
493,492,379,488,491
492,494,388,488,494
491,495,413,487,492
492,493,467,487,492
492,493,527,487,492
492,493,602,487,493
491,494,628,486,493
491,492,623,487,493
493,495,587,490,493
492,493,494,489,494
492,494,419,489,492
492,494,388,489,494
491,495,374,486,493
491,494,382,489,493
492,492,395,487,494
492,492,438,487,493
492,493,495,487,492
492,493,557,489,493
490,493,621,488,494
493,494,627,488,492
492,494,615,487,492
493,495,551,487,493
492,493,455,489,493
492,494,403,488,492
491,494,375,488,494
491,491,377,489,493
491,492,385,489,494
491,492,410,489,492
491,493,461,488,492
491,493,517,487,492
492,492,596,489,492
491,493,628,488,494
493,492,624,488,493
492,492,599,488,492
491,494,507,489,494
492,493,423,488,492
492,493,390,490,493
490,492,374,488,492
492,494,379,487,492
492,493,393,490,494
492,494,431,489,493
492,493,489,489,492
492,493,550,489,494
491,492,616,490,493
492,493,629,487,493
493,493,617,488,493
491,493,566,487,494
491,494,464,488,493
491,493,407,487,493
492,494,375,486,492
492,494,378,487,492
490,493,384,488,494
492,492,404,487,492
491,492,456,488,493
491,492,512,488,492
490,493,583,488,492
490,493,629,488,493
492,493,623,487,493
491,493,610,487,493
493,494,520,488,493
492,493,432,488,493
492,493,396,488,492
490,495,377,489,494
491,494,380,487,493
492,492,389,488,492
490,493,423,488,492
491,493,479,487,493
491,493,541,489,492
492,494,609,489,492
491,493,631,488,494
492,492,621,489,495
492,492,576,490,495
492,493,477,489,493
492,493,412,488,493
491,493,378,489,493
494,492,376,487,492
492,494,382,487,493
492,494,398,486,492
493,493,447,488,493
491,493,504,487,494
491,494,570,487,491
492,492,627,490,493
490,493,626,490,493
491,493,612,490,493
494,493,536,489,493
492,493,440,489,494
492,493,399,488,493
492,494,375,487,494
492,492,379,488,494
493,492,387,487,491
490,491,419,489,493
491,493,470,487,492
491,492,531,489,492
489,492,603,490,492
491,493,629,487,492
492,494,621,489,493
490,492,582,488,493
493,493,490,489,494
492,493,418,488,493
492,492,385,489,495
492,492,375,490,494
492,494,382,487,492
490,492,395,487,494
493,492,440,488,492
490,493,498,488,492
491,493,559,487,492
492,495,623,489,492
491,493,628,489,495
491,494,614,488,495
492,492,549,490,494
492,493,450,489,494
492,492,401,489,493
495,493,377,489,492
491,494,377,489,494
491,494,385,487,492
492,494,411,487,493
491,493,462,487,493
491,493,520,488,493
491,494,595,488,494
491,492,629,488,493
493,493,623,489,492
490,493,592,490,492
492,494,502,490,493
492,493,423,489,493
491,494,388,488,493
491,492,374,489,494
492,492,383,489,494
491,492,393,489,495
491,492,434,488,492
492,494,490,489,493
490,493,552,488,494
493,495,616,489,493
492,494,628,489,493
493,494,618,488,493
494,493,561,490,493
493,494,461,489,494
492,493,406,489,494
492,493,379,489,495
490,492,377,490,493
490,492,384,489,493
491,493,408,488,494
492,493,456,488,493
492,492,514,488,492
492,494,587,487,492
492,492,628,487,494
492,492,624,489,492
492,495,603,490,495
492,492,514,488,494
492,493,428,489,493
491,492,393,489,492
490,493,374,488,492
492,492,382,489,494
493,494,390,487,493
490,491,425,486,493
492,493,483,488,493
492,492,544,489,494
491,491,612,488,492
493,494,630,490,492
490,493,620,490,494
491,494,570,490,492
492,494,473,490,493
492,494,411,488,493
492,494,378,487,493
491,493,375,488,494
492,492,382,486,492
492,491,404,488,494
490,492,450,488,493
491,492,507,488,493
490,493,576,488,494
490,494,625,488,494
491,492,626,487,493
493,494,611,487,493
493,494,529,489,494
493,494,437,489,493
491,494,399,488,494
491,494,374,487,493
491,492,378,489,492
490,493,388,489,491
490,493,417,488,492
492,493,474,488,493
492,493,534,489,493
490,492,606,487,493
492,493,631,488,493
492,491,622,489,494
491,492,581,489,495
492,494,485,488,493
491,493,415,489,493
492,492,382,489,492
491,493,374,488,492
492,495,382,488,493
492,494,395,490,493
491,492,444,488,493
491,493,500,488,492
492,492,566,489,494
492,493,624,489,494
491,492,626,490,493
493,493,616,488,493
491,494,541,490,495
492,493,445,489,493
492,494,400,488,493
492,494,375,487,493
492,492,375,488,492
491,491,388,489,494
490,494,411,488,493
491,492,467,488,492
491,492,525,488,492
490,492,598,489,492
491,494,627,489,493
491,492,623,487,493
492,491,590,491,494
494,493,498,488,493
492,493,421,488,493
492,492,388,489,495
491,494,374,487,493
490,493,382,488,493
492,492,391,490,492
490,493,435,488,492
491,493,494,488,492
491,493,555,489,493
491,494,619,488,493
490,493,627,489,494
492,491,618,489,494
493,492,558,490,494
491,493,457,490,494
492,494,404,489,493
491,494,376,488,494
492,494,374,487,492
492,494,384,487,492
492,495,407,487,492
492,493,459,488,492
491,492,516,488,493
491,492,592,488,492
492,494,629,489,493
491,493,624,489,492
491,493,601,491,493
490,493,512,489,494
492,494,426,489,493
491,492,393,490,493
492,495,375,488,493
493,492,383,488,493
492,491,392,488,491
491,494,427,489,493
492,492,486,488,492
491,492,546,489,492
490,493,613,489,492
491,493,628,488,492
492,492,619,490,494
493,495,568,487,493
491,493,469,488,493
491,492,409,488,494
493,492,380,488,495
491,492,377,490,493
490,492,383,488,493
493,492,403,490,492
491,492,452,489,492
491,493,509,488,492
491,494,580,488,493
493,495,627,488,492
491,494,624,489,494
492,491,607,489,492
492,492,525,490,494
492,493,435,490,493
491,493,397,490,492
490,492,376,489,494
491,494,379,488,493
490,492,390,488,492
493,494,422,488,493
492,494,477,488,492
492,493,538,489,491
491,494,610,489,494
491,494,630,488,493
490,493,619,489,492
490,493,576,490,492
491,494,482,489,493
491,493,414,488,494
491,492,382,488,492
493,493,376,489,492
491,492,383,489,494
492,492,401,488,494
491,492,447,489,493
491,492,503,488,493
491,493,568,490,495
494,493,626,489,493
492,494,625,488,492
493,494,615,488,492
493,495,538,491,494
492,493,444,489,494
493,494,400,489,492
491,491,376,489,495
491,492,378,490,493
491,492,387,489,492
493,493,415,488,492
491,493,469,488,493
492,493,527,488,493
490,494,600,487,493
493,493,630,489,494
493,493,624,489,494
492,494,583,489,492
492,493,495,489,493
492,493,417,490,493
492,492,385,490,493
491,493,374,489,491
491,494,381,489,494
491,491,392,487,492
493,492,439,489,493
492,492,496,488,493
492,493,559,488,493
492,492,622,489,493
492,493,626,488,493
491,493,615,489,493
494,493,549,490,493
492,493,451,489,494
492,493,403,488,492
492,494,377,491,494
491,492,376,489,494
491,493,385,489,494
492,491,410,489,494
491,492,461,488,493
492,492,519,489,492
490,492,592,488,494
494,492,627,488,492
492,492,625,490,493
493,494,594,488,493
495,494,507,489,494
492,494,424,489,493
491,493,389,489,495
492,492,376,487,492
491,494,380,490,493
491,492,391,490,492
491,493,431,488,492
491,493,488,489,493
492,493,549,487,492
490,492,617,490,493
492,492,629,489,494
493,491,619,489,495
492,492,567,491,493
492,493,463,490,494
492,492,406,489,493
493,493,375,491,492
491,493,374,488,492
492,494,384,487,493
493,495,405,487,493
491,492,455,489,493
492,493,512,488,492
490,494,586,489,495
492,492,627,490,493
491,493,625,489,492
490,494,607,489,495
493,494,518,489,493
493,493,432,489,493
492,493,393,488,493
493,494,375,488,493
493,492,382,488,492
491,493,388,490,495
491,491,423,488,492
492,492,480,489,493
491,492,539,489,492
491,493,609,489,492
491,492,630,490,494
493,494,619,488,493
491,492,576,488,494
492,493,476,489,494
491,493,413,488,494
492,492,381,489,495
492,492,374,488,493
492,492,382,489,492
492,493,401,488,492
491,493,447,489,493
492,492,506,489,492
493,494,572,488,493
490,493,625,489,494
493,492,625,490,492
492,491,614,491,495
492,492,533,490,494
493,492,440,488,493
491,493,399,489,494
491,493,373,489,494
492,492,379,488,493
492,493,387,488,492
493,493,416,488,493
493,493,472,488,493
491,492,531,489,494
492,495,603,488,492
491,492,630,490,493
490,493,621,489,491
491,493,582,489,492
492,494,490,490,495
493,493,418,489,493
493,494,385,491,493
490,492,376,489,494
493,491,383,489,494
492,492,397,489,494
491,494,439,488,493
492,492,498,489,493
492,493,562,489,491
490,493,620,488,492
492,494,626,488,493
493,494,615,491,493
491,492,546,489,494
494,492,449,489,493
492,493,402,490,495
491,491,376,491,495
491,492,376,490,493
493,493,386,489,492
490,492,408,488,494
492,492,464,489,493
492,493,521,488,492
492,493,596,488,493
494,494,630,489,494
493,494,622,489,492
491,491,594,491,492
494,494,502,491,494
492,492,420,491,493
492,493,386,489,492
491,493,373,489,494
490,492,379,488,493
493,492,391,490,493
493,493,434,488,493
492,492,490,488,494
492,492,552,488,494
491,494,616,488,493
490,492,627,489,494
493,492,616,488,492
491,494,558,489,493
492,493,459,489,494
492,494,407,489,493
490,493,375,488,493
491,493,375,488,494
492,492,386,490,494
491,491,408,490,494
492,492,456,488,493
492,493,514,488,493
492,492,586,489,493
492,493,629,490,494
493,494,625,488,494
493,493,603,488,494
494,494,515,489,493
492,493,430,490,494
492,492,393,488,493
492,495,377,490,493
491,492,379,490,492
490,492,387,489,492
491,493,429,488,494
491,493,483,489,492
491,492,544,490,492
493,493,613,488,494
492,492,629,489,494
492,491,619,489,492
492,495,571,491,494
491,492,469,489,493
493,492,410,489,493
491,493,375,489,492
491,493,372,488,492
492,494,381,487,493
491,492,402,491,493
492,492,448,489,493
492,493,508,488,493
491,492,576,490,495
491,491,624,490,494
491,493,626,488,493
492,493,608,490,492
493,492,527,490,494
492,494,436,490,493
492,493,394,489,493
493,494,372,489,492
491,494,376,490,494
491,491,384,488,492
492,492,418,490,492
491,492,473,489,492
491,492,531,489,492
491,493,606,489,495
492,494,629,488,494
490,492,619,488,494
494,494,579,488,494
493,493,483,490,494
492,493,412,489,494
492,492,379,488,492
492,492,373,490,492
493,492,381,488,492
491,494,394,488,491
491,493,441,489,492
492,492,500,488,493
491,492,566,488,493
492,493,623,489,492
492,492,629,490,494
491,492,616,491,494
491,492,541,491,494
492,493,445,489,493
491,492,399,489,494
493,491,376,488,492
493,494,377,488,493
492,493,386,489,494
493,493,412,489,492
491,493,468,489,493
491,493,525,488,493
491,492,603,491,494
491,494,631,490,492
491,493,622,489,492
492,494,588,489,495
492,493,500,490,494
492,493,420,490,493
492,493,387,489,493
493,492,375,490,494
491,491,381,490,494
491,494,391,487,492
490,492,436,490,493
492,492,492,489,492
491,494,555,488,491
491,494,618,488,493
492,493,629,490,492
491,493,621,489,494
494,493,554,490,493
493,493,457,489,493
492,492,407,490,493
491,492,375,491,493
493,492,377,489,492
491,493,384,490,494
491,491,406,488,492
492,493,460,488,492
491,493,517,489,493
492,491,592,489,494
493,494,628,488,492
491,492,625,491,494
493,493,600,491,493
492,494,511,490,493
491,492,428,490,493
492,493,390,490,494
491,492,376,488,492
492,492,379,490,492
492,492,392,488,494
492,491,431,490,493
491,492,486,489,494
492,493,547,488,492
490,492,615,489,495
493,492,629,488,493
493,495,619,488,492
493,495,569,489,494
493,493,468,490,494
492,494,410,490,495
491,494,375,489,495
491,492,376,489,493
491,492,384,490,492
490,492,403,490,492
491,492,452,488,493
491,493,511,489,492
491,491,582,491,493
493,494,629,490,494
492,492,627,491,494
491,491,610,491,496
492,495,523,490,494
492,493,434,489,493
492,492,394,488,493
491,492,375,488,492
491,494,378,488,493
492,493,388,490,494
491,494,423,488,493
491,492,477,489,493
492,492,539,489,495
491,492,611,491,494
491,492,630,491,494
493,493,621,489,492
491,494,579,489,495
492,494,478,489,494
493,494,412,489,493
492,494,381,488,493
492,493,375,489,494
491,494,381,488,493
492,491,401,488,492
492,494,446,489,493
491,493,503,489,492
491,493,569,490,492
490,493,625,490,494
491,494,627,488,493
490,493,613,491,494
493,494,536,489,494
493,493,443,490,494
492,492,399,490,493
492,494,373,490,493
491,493,378,489,494
493,493,384,489,492
491,494,413,488,492
490,493,469,489,493
491,492,528,490,493
493,494,604,489,493
491,494,630,491,495
492,492,624,490,494
492,493,588,491,495
491,493,493,491,495
492,492,417,488,494
493,494,383,490,492
492,491,375,490,493
493,493,381,488,493
493,493,394,488,493
493,492,438,489,493
491,492,495,488,493
491,492,558,488,492
491,491,622,490,493
491,493,627,490,492
491,493,616,489,492
491,491,552,490,494
492,494,452,489,493
491,492,403,489,494
493,493,375,488,493
493,492,378,489,494
492,492,386,488,492
491,494,410,490,493
492,493,463,488,492
491,493,519,489,492
492,493,594,488,492
491,494,629,488,493
492,493,624,488,492
491,492,596,488,494
493,493,505,490,493
492,492,422,489,493
492,492,390,490,494
490,492,375,490,492
490,492,381,488,494
492,493,390,488,494
491,491,432,489,492
491,493,488,488,492
492,493,550,488,493
494,494,616,491,492
492,494,630,490,494
492,495,618,488,492
491,491,563,491,494
492,493,463,490,493
491,492,407,489,493
493,492,376,489,492
491,494,374,490,493
490,492,383,488,493
492,494,404,488,493
493,493,455,488,493
492,493,513,489,494
492,494,582,488,492
491,493,628,490,493
491,492,626,489,492
491,494,604,490,492
492,494,519,489,494
492,493,431,490,494
491,492,393,488,493
493,492,376,490,492
492,491,380,489,494
492,492,390,490,495
491,492,426,490,493
491,493,479,489,493
491,493,540,489,493
492,493,610,489,493
492,494,629,489,494
494,494,621,489,494
494,494,574,491,493
491,493,475,488,494
492,493,411,489,494
491,492,378,490,495
491,492,375,490,493
491,493,383,490,492
492,493,400,489,495
492,491,447,489,492
491,493,508,490,493
492,493,574,488,493
493,493,626,490,494
492,492,628,490,494
491,494,611,489,495
491,493,532,489,493
492,493,439,490,493
491,493,396,489,492
491,494,374,489,492
492,493,379,491,494
490,493,387,489,494
491,493,416,489,494
492,492,472,489,494
492,492,531,489,493
491,492,606,490,493
492,493,630,490,493
491,494,623,490,494
492,494,580,489,493
493,493,486,490,494
492,493,415,488,493
492,493,384,489,494
490,493,372,489,494
492,492,383,488,493
492,493,395,491,493
491,492,440,490,493
491,493,499,490,492
491,494,563,491,495
491,494,621,488,494
491,493,627,490,495
492,492,616,489,495
493,492,546,490,494
493,493,448,490,493
492,493,400,490,493
491,493,375,488,493
492,494,374,489,492
491,494,384,488,492
492,495,410,488,492
492,492,466,490,493
492,493,522,489,492
491,494,597,490,494
491,492,630,490,494
491,493,622,490,493
491,493,592,491,492
491,493,502,490,494
492,493,420,489,493
492,492,389,491,493
492,495,373,489,495
493,492,381,489,495
493,492,393,489,491
491,494,431,490,494
492,492,492,489,492
491,492,553,490,492
490,493,616,490,493
492,494,628,488,493
493,492,619,491,495
494,494,559,490,493
492,493,460,490,494
493,493,405,490,495
492,492,377,490,494
491,492,376,488,493
492,493,383,490,492
491,492,408,488,494
491,493,457,489,493
491,493,515,489,493
492,494,587,488,492
493,493,629,489,492
491,494,623,490,494
492,492,601,489,492
493,492,514,491,494
492,492,429,490,493
492,493,392,490,492
491,492,377,490,495
492,494,378,489,493
491,493,390,488,493
493,493,428,489,493
492,492,483,489,493
492,493,545,488,492
491,494,614,491,494
492,494,630,489,494
491,494,619,490,492
490,494,569,490,493
493,493,471,490,494
492,493,412,491,494
492,493,377,492,493
491,493,377,491,494
491,491,385,491,494
491,490,403,491,494
491,492,451,489,492
491,493,507,488,493
490,493,576,489,494
492,492,627,489,493
493,493,626,488,494
493,493,611,488,494
494,494,529,490,493
491,493,435,489,494
492,493,396,488,492
491,491,377,490,493
490,493,377,490,492
491,493,387,489,492
492,492,422,490,493
491,493,474,489,493
492,492,536,489,493
492,493,608,489,495
492,492,630,490,494
491,492,621,488,493
493,492,580,492,494
494,494,483,490,493
492,493,414,490,493
491,494,380,489,492
492,494,374,488,493
493,494,384,490,492
491,493,398,489,495
492,494,443,489,492
491,492,503,490,493
490,492,566,490,493
491,493,624,489,492
492,492,629,491,493
493,494,614,491,495
492,492,541,490,494
492,493,445,491,494
493,492,400,490,494
493,492,373,489,492
491,492,378,491,494
492,493,387,489,492
490,493,413,490,492
490,493,467,489,493
491,493,524,488,493
491,492,602,488,492
493,493,630,489,493
491,492,625,490,494
491,492,590,491,495
492,492,496,490,495
492,493,419,490,493
493,493,387,489,493
490,492,372,489,494
492,492,380,489,493
492,493,392,488,493
493,493,436,489,493
493,493,495,490,493
491,491,558,490,494
492,495,619,489,493
491,493,629,491,492
490,493,616,491,493
491,493,553,490,494
492,493,457,491,494
492,493,404,491,494
491,494,375,489,493
493,492,378,490,494
492,491,385,490,494
492,494,407,489,492
491,492,461,490,493
492,493,516,489,492
491,493,592,489,492
490,494,628,489,493
493,493,624,488,494
493,494,601,492,493
491,493,511,490,494
492,493,424,490,494
491,492,392,491,494
491,491,375,491,494
491,493,379,490,494
492,492,392,490,492
490,493,431,490,494
492,493,487,489,492
491,493,547,488,492
492,493,614,488,494
493,494,628,489,492
491,492,620,491,493
493,495,566,491,494
491,494,467,490,493
492,491,408,490,493
492,493,374,489,495
492,492,375,489,493
492,491,383,491,493
494,493,405,489,494
493,492,454,489,493
491,492,510,489,493
492,491,582,490,492
493,495,628,491,493
491,493,626,490,494
493,495,607,490,492
492,494,522,490,494
492,493,433,490,493
493,493,395,491,493
493,492,376,490,492
492,494,378,490,494
491,492,390,491,494
490,491,422,491,493
491,492,477,489,493
492,493,538,489,492
491,491,610,490,494
493,494,631,489,493
493,493,621,490,494
493,492,577,489,495
492,493,478,490,493
492,492,413,490,493
493,493,378,491,493
491,494,373,490,492
492,494,381,489,492
492,494,396,488,492
492,493,447,490,493
491,493,505,489,492
491,493,569,489,493
493,493,627,491,494
490,492,628,491,494
491,493,613,489,493
494,494,536,491,493
491,493,441,490,494
492,493,398,489,493
492,494,375,489,493
493,493,378,489,494
491,493,386,490,495
493,492,418,489,492
491,493,471,489,493
491,493,530,490,492
490,492,604,491,492
491,493,631,490,494
492,494,623,489,492
491,491,586,492,493
494,494,492,489,493
492,493,418,490,493
492,492,385,491,495
493,491,374,489,493
493,494,382,491,492
490,492,393,489,494
491,494,439,490,492
491,493,499,490,492
492,494,559,489,492
491,493,622,491,494
492,493,630,490,492
492,494,618,491,495
492,492,551,491,494
492,493,452,491,494
492,493,401,490,494
493,494,374,491,492
491,492,377,491,493
492,494,385,489,492
493,494,410,489,493
492,493,462,489,493
492,493,519,489,493
492,492,596,489,492
491,492,630,490,493
491,494,624,490,491
491,493,596,492,492
492,493,505,490,493
493,493,424,490,492
492,493,389,491,494
490,492,374,489,493
493,492,382,490,494
491,492,392,490,495
491,492,431,489,492
492,492,491,490,493
492,492,550,490,491
491,493,616,490,492
492,494,629,490,493
491,493,618,489,494
491,492,563,490,494
493,493,462,490,494
492,492,407,490,494
492,492,377,492,494
491,492,376,492,492
490,492,384,490,494
491,494,404,489,494
492,492,456,489,492
492,493,512,488,492
492,494,586,489,493
494,493,629,490,494
492,492,623,489,492
492,493,608,491,495
493,494,518,490,494
493,493,430,491,493
492,494,394,490,492
491,493,374,490,495
492,492,381,488,493
493,493,390,491,493
490,493,426,489,493
492,493,482,490,493
492,492,543,491,494
491,494,610,489,493
491,492,631,491,494
493,492,622,490,492
492,494,572,489,493
492,494,476,490,493
491,494,412,491,494
492,492,380,489,493
493,493,374,490,493
492,492,384,491,494
492,491,403,492,494
491,493,450,491,493
491,492,506,491,494
493,492,575,489,492
492,494,627,491,494
490,493,627,489,494
493,493,613,490,494
494,492,532,491,495
494,493,437,490,494
493,493,398,491,493
492,493,373,490,493
491,493,376,490,492
490,493,386,490,492
491,494,416,490,494
492,492,472,489,492
492,492,533,491,492
492,492,606,489,494
492,492,631,490,494
491,492,623,491,493
492,494,580,489,494
492,494,488,489,493
492,493,415,490,493
492,493,380,489,492
491,494,375,489,493
493,494,383,489,494
492,493,394,491,492
493,492,443,489,492
491,493,500,490,493
491,492,564,490,492
490,492,624,490,492
491,493,626,491,495
492,491,615,489,492
493,493,546,492,494
492,494,448,490,494
493,493,401,490,494
493,493,377,490,495
491,493,375,489,494
491,492,386,490,493
493,493,411,491,492
491,492,465,490,493
492,493,522,490,492
491,494,600,490,495
491,494,629,488,494
490,494,623,490,494
492,492,593,490,496
493,493,500,490,494
493,493,421,490,493
491,492,388,488,493
493,494,373,490,491
491,492,383,490,494
491,493,391,488,492
492,494,434,489,492
492,493,493,489,493
491,493,552,490,494
492,493,620,489,492
491,494,629,490,493
490,492,617,490,493
491,492,560,491,493
492,493,460,490,493
492,493,405,489,492
491,492,378,492,492
492,493,376,489,494
493,492,385,490,494
492,492,409,490,492
491,493,456,490,492
491,492,515,490,492
492,492,589,492,493
491,494,626,489,492
493,494,624,488,493
493,495,602,489,493
491,493,514,490,494
493,494,428,490,493
491,493,392,490,495
492,491,376,490,494
490,493,380,490,492
490,493,391,488,494
493,493,426,489,492
492,493,485,490,492
491,493,545,488,493
493,494,612,488,493
493,493,632,490,492
491,494,618,490,494
492,492,569,489,493
492,492,470,491,494
492,492,409,491,493
492,493,377,490,492
491,491,377,490,494
492,494,382,489,493
491,492,404,488,494
493,492,451,489,493
491,493,509,489,493
492,493,580,491,495
492,492,626,489,494
493,494,625,490,492
493,492,613,490,492
492,495,524,490,494
493,493,435,490,493
492,494,396,490,493
490,491,376,489,493
493,492,378,489,491
492,492,389,490,495
491,491,421,490,493
492,492,476,489,493
491,493,535,489,493
491,493,606,490,494
491,493,632,489,493
492,494,621,489,494
493,494,579,489,494
494,493,484,491,493
491,493,413,490,494
492,494,379,488,491
491,492,375,491,493
490,492,381,490,492
491,493,395,490,491
491,494,444,490,493
491,493,503,489,492
492,493,568,490,492
490,493,625,490,494
492,492,628,491,494
492,492,616,491,495
491,495,539,490,493
493,493,444,491,493
493,493,401,490,492
491,493,372,489,492
492,494,376,487,492
493,494,387,490,492
490,492,414,489,494
492,493,468,489,492
492,492,527,490,493
491,491,602,492,494
492,494,630,490,492
493,493,624,490,492
492,494,585,491,495
493,493,495,490,493
493,493,417,490,493
493,493,385,489,493
494,493,375,489,494
492,494,380,489,492
491,492,393,491,492
493,494,437,491,493
491,492,494,491,493
492,494,555,490,492
491,495,619,491,493
490,493,628,489,494
493,494,616,490,492
493,492,555,491,494
493,492,454,490,494
493,492,404,490,493
493,494,375,489,493
491,493,374,489,495
493,492,385,489,492
491,494,407,489,493
492,493,460,490,493
492,494,520,491,492
491,492,594,491,495
492,494,629,490,493
491,492,626,492,493
490,492,599,492,494
491,493,509,490,494
493,493,425,489,494
492,492,389,489,493
492,491,376,490,493
492,493,381,489,494
492,491,390,488,494
493,492,430,490,493
491,493,485,489,493
492,492,547,488,492
493,493,616,491,491
491,493,628,490,492
492,494,617,488,492
492,495,570,491,494
492,493,465,490,494
492,492,407,490,493
493,492,377,489,494
492,491,376,491,494
491,492,383,491,493
493,495,404,492,492
491,493,453,489,493
491,493,511,489,491
491,494,581,488,492
492,494,627,489,494
493,493,627,490,494
492,494,608,491,495
493,492,522,491,493
493,493,434,491,493
491,492,395,492,492
491,492,374,491,492
493,494,382,490,493
491,493,387,488,492
491,491,423,490,492
492,493,479,489,492
492,492,539,489,493
492,492,611,490,493
494,494,630,492,492
491,492,621,490,494
495,493,575,491,493
491,494,478,491,493
492,493,413,490,493
493,492,381,491,493
493,493,375,490,492
492,493,381,490,493
491,492,401,491,494
491,491,447,491,493
492,492,503,490,492
491,493,571,489,493
493,493,624,489,492
492,492,627,491,493
493,493,614,489,493
494,493,534,490,494
493,493,441,489,492
491,493,398,491,494
491,491,372,489,494
494,493,376,491,492
491,493,386,490,492
490,493,413,489,492
492,492,472,489,492
491,493,529,489,492
490,492,604,490,494
493,493,632,491,493
491,491,623,491,494
491,491,586,489,493
494,494,492,491,494
492,493,415,489,494
492,494,382,489,492
491,493,374,489,492
492,493,381,489,493
493,493,394,488,492
491,493,438,490,494
492,492,497,490,492
492,492,563,492,493
489,492,623,491,492
491,493,627,490,491
491,492,618,491,495
492,494,547,489,494
492,492,451,489,493
492,493,402,489,494
493,492,375,489,494
492,491,376,488,492
492,494,386,491,494
490,493,409,488,493
491,492,462,490,492
491,493,520,490,493
492,494,594,490,493
492,493,631,491,493
493,492,626,491,492
491,494,596,490,495
493,493,505,490,494
492,493,423,491,494
491,492,387,492,493
491,494,375,489,494
492,493,378,489,495
491,492,392,488,492
493,493,432,489,493
491,493,488,489,493
492,492,551,489,491
491,494,620,490,493
491,493,629,489,493
490,493,618,491,493
490,492,562,491,493
491,493,462,491,493
492,493,408,491,492
491,495,374,492,494
491,492,376,490,494
493,492,385,490,494
491,491,407,490,494
490,492,454,488,492
492,493,514,489,492
492,492,587,489,492
491,494,627,489,493
492,494,625,489,493
493,493,605,489,493
494,493,518,491,494
492,493,431,490,494
492,493,391,489,493
490,492,376,491,493
490,492,379,491,493
490,493,387,490,492
493,492,426,489,492
491,493,481,490,494
491,492,542,489,493
493,494,613,489,494
492,492,632,491,494
492,492,619,489,493
492,492,577,492,494
493,494,473,490,494
492,493,410,490,492
491,493,377,490,492
491,493,373,489,494
492,491,384,489,493
493,494,401,491,492
491,492,449,489,493
492,493,508,489,493
491,491,576,491,493
491,491,626,491,493
493,493,627,490,491
492,494,611,491,495
493,491,529,490,493
492,493,439,490,492
492,493,397,490,494
493,493,373,490,492
491,492,378,490,494
492,493,385,489,494
491,492,418,491,493
492,492,473,490,493
491,492,531,489,494
492,491,607,489,492
493,495,632,491,493
490,493,624,490,494
494,493,583,490,495
493,492,488,490,494
492,493,414,490,493
492,493,383,492,492
493,492,374,490,492
491,493,379,489,491
492,494,395,489,491
492,494,441,490,492
491,493,500,490,493
492,493,566,490,493
491,493,622,490,494
491,492,630,490,493
490,492,617,492,493
491,492,544,491,494
493,493,448,490,494
492,493,401,490,495
491,494,373,489,493
493,493,378,489,493
493,492,387,490,494
493,492,409,489,492
492,492,467,490,492
491,493,523,491,493
490,492,599,491,492
490,494,630,490,492
492,494,624,492,494
491,492,590,489,493
494,493,500,491,494
492,492,419,489,493
493,492,389,490,494
493,492,375,491,494
490,491,380,491,493
493,493,392,491,492
490,493,435,489,493
491,493,492,490,492
492,494,554,488,492
492,495,619,490,494
493,493,628,490,492
493,491,620,491,492
491,494,556,491,495
492,493,459,490,493
492,493,406,492,493
490,492,374,489,494
493,491,374,490,492
491,491,386,492,493
492,493,406,489,493
492,493,459,490,493
491,493,516,491,493
491,493,588,489,494
491,492,630,488,493
492,493,624,490,492
492,494,602,490,492
492,494,514,490,493
492,493,430,490,492
492,492,392,491,494
493,494,376,489,492
491,493,378,490,495
492,492,390,491,495
491,492,428,491,493
491,491,484,490,493
492,492,545,489,491
491,493,615,491,494
492,493,629,489,493
493,494,621,489,493
493,494,571,490,494
492,493,468,491,494
492,492,410,490,493
492,494,377,492,495
491,493,373,491,492
491,494,383,489,491
490,493,404,490,494
492,493,450,490,492
492,492,510,491,492
492,493,579,489,494
493,493,627,491,493
492,492,627,492,493
490,491,611,489,492
493,494,526,491,494
492,493,435,490,494
491,493,393,490,492
492,494,373,489,493
492,494,378,489,493
490,492,386,491,493
494,493,421,490,492
490,493,475,490,493
492,492,536,491,494
492,493,609,492,493
491,493,631,491,495
492,494,621,489,492
492,492,581,492,494
493,493,481,490,494
493,494,413,490,493
493,493,382,490,492
491,492,373,490,495
491,492,382,489,492
492,492,398,492,492
491,492,444,490,493
491,493,502,491,492
491,493,567,490,492
492,491,626,491,493
493,494,629,491,492
490,493,617,489,495
494,492,540,490,494
493,493,445,490,494
492,492,398,489,493
493,492,375,492,492
493,491,378,491,492
492,493,383,489,492
491,494,411,488,492
492,493,467,490,493
491,492,525,490,494
492,492,602,490,492
491,492,631,490,494
490,492,623,491,492
491,492,589,492,493
491,493,495,490,495
493,492,417,490,494
492,492,387,490,492
492,495,373,489,493
492,493,381,489,494
492,492,394,489,494
493,492,435,490,492
491,493,495,490,493
492,493,557,489,492
491,493,620,490,492
492,494,628,490,492
492,495,618,490,495
492,491,555,490,494
493,494,455,492,494
492,492,403,491,494
493,491,376,489,495
492,492,377,490,493
491,493,384,489,493
490,492,407,491,494
492,492,461,490,493
491,493,518,489,492
492,494,592,488,492
493,493,631,490,492
490,493,625,490,495
492,495,597,490,492
492,492,509,491,494
492,492,425,491,494
491,493,390,492,492
490,492,374,491,494
492,491,380,489,492
493,494,392,492,494
490,493,430,490,494
493,493,487,490,493
493,493,550,490,494
491,495,614,490,493
491,492,631,491,493
493,493,622,491,492
490,493,565,492,493
493,493,466,492,494
492,493,408,492,494
491,492,375,490,492
493,493,375,490,492
492,492,385,490,494
491,491,406,490,494
491,492,454,490,493
491,493,511,490,493
491,492,582,489,494
493,492,627,490,493
492,493,626,489,493
493,493,608,489,493
494,494,524,490,493
493,492,434,491,493
492,492,395,491,492
492,495,374,491,494
490,492,377,491,493
491,493,387,491,492
491,493,422,490,493
491,492,477,489,493
491,493,540,491,493
492,493,611,489,494
492,492,631,491,494
491,493,623,491,494
491,495,575,490,495
492,492,478,490,493
493,493,412,491,492
491,493,377,491,492
491,493,373,489,493
493,494,384,492,493
490,493,399,489,494
491,492,446,490,493
491,492,505,490,494
491,491,572,490,494
491,492,625,491,494
491,493,627,491,495
493,492,612,491,493
492,492,536,491,495
492,494,440,490,494
493,493,397,490,494
495,494,374,489,494
491,493,377,490,495
491,491,387,489,492
492,494,416,491,493
491,492,470,490,493
491,492,528,490,492
491,493,606,490,495
490,493,630,489,493
491,493,622,491,493
493,493,586,490,495
492,492,491,491,494
492,493,417,490,492
492,494,383,492,495
491,493,373,490,494
493,492,380,490,492
491,493,392,489,492
491,493,438,489,492
492,493,499,489,492
490,492,561,491,493
493,493,624,490,492
492,494,631,492,494
490,492,617,492,495
491,492,549,492,494
492,493,451,490,494
492,492,400,490,493
492,492,377,490,492
491,494,376,489,493
492,493,385,489,493
493,493,410,490,492
491,493,463,490,494
491,492,520,489,493
492,492,599,492,493
490,493,630,491,492
491,494,623,489,492
492,492,597,491,495
492,493,503,490,494
492,492,422,490,493
493,493,389,490,494
493,492,374,491,495
491,491,380,491,494
491,492,391,489,492
492,492,431,491,493
492,493,490,490,492
491,493,551,489,492
491,495,616,489,494
494,494,630,489,493
491,493,619,490,495
493,492,560,490,493
492,493,463,490,494
491,492,406,491,494
491,492,375,492,493
491,493,377,490,494
491,494,382,489,494
490,491,407,488,493
492,493,456,490,493
491,492,512,490,494
492,492,587,490,492
491,494,629,491,494
491,493,625,489,493
490,493,606,492,492
490,493,516,491,494
492,492,430,490,493
492,493,392,490,494
491,491,377,489,493
493,492,378,491,493
491,492,390,490,494
492,491,426,491,494
492,492,480,489,493
491,493,542,489,493
490,492,611,491,494
492,492,630,489,492
492,494,620,489,493
492,494,572,489,494
493,493,473,491,493
492,493,411,491,494
492,494,375,490,492
492,493,376,491,493
490,492,383,491,492
490,492,399,491,492
493,492,450,490,492
491,492,506,490,493
491,492,576,489,493
493,494,628,490,494
492,492,628,491,495
492,491,613,491,496
493,495,530,491,494
492,493,436,491,493
493,493,397,490,492
491,492,374,490,492
491,493,376,489,492
492,494,387,490,494
490,492,418,489,493
491,492,473,489,493
492,493,534,490,494
491,492,607,491,494
491,492,630,491,493
493,493,623,490,492
491,493,579,491,495
493,492,485,490,493
492,493,414,490,492
492,493,382,490,493
493,492,373,490,492
492,492,384,491,494
492,494,393,489,494
491,493,443,491,493
492,492,501,491,493
491,493,562,491,493
491,494,622,491,494
492,492,629,490,494
493,493,615,491,493
494,494,545,490,494
492,493,448,490,494
492,492,401,491,495
493,495,375,489,493
490,493,376,490,494
493,492,385,490,492
491,493,412,489,492
491,493,465,490,493
491,493,525,491,493
491,493,600,489,493
491,493,629,490,494
492,492,626,491,493
490,492,593,492,494
491,492,500,491,492
492,492,420,491,492
491,493,387,491,495
493,494,373,489,493
492,493,381,490,493
492,493,392,490,493
493,492,435,490,493
491,493,493,490,494
491,492,555,489,492
492,494,620,491,492
490,493,628,491,492
491,494,617,490,493
491,494,560,491,494
492,493,457,490,493
491,492,405,491,493
493,493,376,490,493
492,491,377,491,494
492,491,384,491,493
493,494,406,492,493
491,492,458,490,493
491,493,515,490,493
491,493,589,491,492
491,493,628,490,494
493,492,624,491,492
493,493,603,489,493
491,493,511,490,494
493,493,427,490,494
492,492,393,492,494
490,491,376,492,493
491,493,381,490,494
492,493,389,490,492
491,491,428,490,492
492,494,485,490,492
492,493,546,489,493
492,492,613,489,492
492,494,629,491,493
491,492,619,489,493
493,492,569,492,493
491,493,469,491,493
491,492,409,490,493
492,492,378,491,495
493,495,375,490,493
490,493,382,490,494
493,492,404,490,494
492,492,451,491,494
492,492,509,489,493
493,493,579,492,492
491,493,628,491,494
492,494,624,490,492
493,495,609,490,492
493,494,526,491,494
492,493,434,491,493
492,493,396,491,495
492,491,372,489,493
492,492,378,491,493
491,493,388,491,492
490,492,419,490,492
491,492,476,489,493
491,493,536,489,493
490,491,608,489,492
493,493,632,490,494
492,491,623,491,494
493,491,580,489,493
493,494,483,491,494
491,493,413,490,494
491,492,379,491,492
491,493,374,489,492
492,494,382,489,493
492,492,399,492,493
494,494,445,491,493
492,493,502,490,494
493,493,570,492,495
492,493,625,492,494
491,493,627,492,492
491,493,616,490,495
491,495,538,491,495
494,492,444,491,494
493,494,399,490,493
493,494,375,489,494
494,492,378,490,492
492,494,388,491,494
492,494,413,490,493
492,492,469,491,493
492,493,527,491,492
491,493,601,492,492
492,492,631,491,492
493,494,624,492,493
490,492,586,490,494
494,493,495,490,493
493,493,420,490,494
492,492,383,490,492
492,492,374,492,494
493,493,382,491,493
491,493,391,492,492
492,494,437,490,493
491,493,496,491,493
492,493,557,491,493
491,493,622,490,494
493,494,628,490,493
491,492,618,492,495
492,493,555,492,494
492,494,455,492,494
493,493,403,491,493
492,494,373,491,495
491,491,375,490,493
494,493,385,490,493
493,494,409,490,494
492,492,460,491,493
492,493,519,491,494
492,494,594,490,495
491,494,630,491,493
492,494,624,491,492
