Sensor0,Sensor1,Sensor2,Sensor3,Sensor4

493,491,493,401,490
492,492,494,374,492
494,491,493,2,529
492,495,493,493,433
490,494,492,493,395
491,494,493,493,373
490,494,493,492,5
613,491,492,492,492
529,492,495,493,493
433,490,494,492,493
395,491,494,493,493
373,490,494,493,492
377,492,494,492,492
387,489,492,492,494
418,491,493,492,494
475,490,493,491,492
538,490,492,490,494
609,490,492,493,494
633,490,493,491,492
625,492,494,494,493
582,493,493,493,494
482,492,494,492,492
412,491,494,492,492
378,492,495,492,493
373,490,494,492,493
378,492,493,492,492
398,492,492,492,494
443,491,493,492,493
501,491,494,493,493
570,490,493,494,494
628,491,492,492,494
631,492,495,492,495
618,490,492,490,492
539,493,494,492,492
441,492,494,491,494
397,492,492,493,492
374,491,493,492,494
373,493,494,491,493
384,492,493,493,494
412,492,494,493,492
466,490,493,492,493
528,490,492,491,491
606,491,494,493,493
633,489,492,491,493
625,490,492,491,493
586,490,493,492,494
493,491,494,492,492
418,490,493,492,494
381,493,494,491,494
373,491,495,492,492
380,492,494,492,492
392,493,495,491,492
436,492,493,492,493
495,491,493,491,493
558,490,494,493,493
623,489,493,492,494
630,490,494,493,493
620,490,493,494,494
552,491,492,492,492
451,491,494,492,494
400,490,493,491,492
374,493,493,491,492
372,492,493,492,493
381,491,494,494,492
410,491,493,491,493
461,492,494,493,494
520,491,493,493,493
599,491,494,494,492
634,493,495,493,494
627,490,493,491,492
601,493,493,495,494
506,491,493,492,493
421,492,493,491,492
386,491,492,491,493
371,490,492,493,494
380,491,493,491,493
389,489,493,491,493
429,491,493,493,492
489,490,493,492,491
552,491,494,491,491
620,491,493,494,493
634,491,492,490,493
622,491,495,493,495
565,490,493,493,494
463,492,494,493,494
405,491,494,494,494
373,493,493,493,492
375,493,493,493,494
381,492,494,491,492
405,493,493,491,492
453,492,493,492,492
512,490,493,492,492
586,490,491,491,491
631,492,493,494,493
630,490,494,493,492
610,491,495,494,492
520,491,494,493,492
428,490,492,492,494
390,492,494,491,491
371,490,493,493,493
375,491,492,492,493
386,491,492,491,494
421,491,493,492,493
480,491,493,492,493
543,491,492,491,493
613,491,494,492,493
635,492,495,491,491
624,492,493,491,492
577,490,494,494,494
475,492,493,492,492
409,491,494,492,494
374,490,492,492,494
373,490,493,492,493
381,490,494,491,492
398,492,494,493,492
449,492,493,492,493
507,492,493,491,493
578,493,493,491,492
629,494,492,492,494
629,493,492,493,492
618,494,495,493,495
531,490,494,492,492
435,489,493,493,494
396,490,494,493,493
373,491,495,492,492
376,489,492,492,494
385,490,494,491,494
416,490,494,492,493
472,490,493,491,492
534,491,491,491,493
607,491,492,492,492
634,492,493,493,493
627,492,493,491,493
585,491,496,494,493
487,491,494,492,493
415,491,494,492,492
378,490,493,493,493
372,492,493,493,492
381,491,493,492,493
391,490,490,492,494
441,490,492,491,492
499,491,492,492,493
565,492,492,491,492
628,491,493,491,493
630,492,493,491,492
620,493,495,491,492
546,492,493,491,492
446,491,495,494,493
399,491,493,492,494
372,490,495,493,492
373,490,494,493,494
384,490,494,493,494
410,490,494,492,493
464,491,493,491,493
526,490,493,491,494
600,490,494,491,492
633,491,493,491,493
626,491,492,491,493
593,492,495,492,492
500,491,493,492,493
420,491,493,491,492
383,490,493,494,494
372,490,494,493,492
380,491,494,491,492
390,492,495,493,494
432,490,493,492,493
493,491,492,492,492
555,491,492,492,494
621,490,493,492,494
632,491,494,493,493
620,492,493,491,493
559,491,494,491,492
455,492,494,492,492
403,491,494,492,492
375,491,493,491,492
373,491,494,493,492
382,490,492,491,493
408,491,493,490,493
456,490,493,492,492
517,490,492,493,493
593,490,492,493,493
630,490,492,492,491
629,492,492,493,494
602,493,494,491,492
511,492,493,493,493
424,492,493,492,493
388,492,492,491,493
374,491,494,491,494
378,490,493,490,492
387,493,494,493,492
428,491,493,492,492
485,491,493,491,491
548,492,492,490,493
615,493,491,491,493
634,492,493,492,493
620,491,492,492,494
569,492,492,492,493
468,493,493,491,491
407,492,493,493,492
374,490,491,491,492
372,492,494,491,491
381,492,494,492,492
402,490,493,490,493
451,489,493,492,492
509,490,492,492,492
585,491,494,492,495
629,490,494,493,493
628,489,493,493,491
613,490,494,493,491
524,491,493,491,492
430,490,493,492,493
392,490,493,493,491
371,491,492,491,493
374,491,491,491,494
385,490,491,491,491
420,492,493,492,493
475,490,492,490,492
538,490,493,492,491
612,489,494,491,491
633,491,492,490,492
624,490,494,493,494
578,493,493,492,493
479,491,493,492,492
409,491,493,492,494
375,489,492,492,494
373,490,494,491,492
379,491,494,493,491
398,489,491,491,493
446,490,493,491,492
504,490,492,490,492
571,490,491,490,492
627,490,491,491,491
630,491,494,493,494
617,489,494,490,492
537,490,493,492,493
440,491,494,494,493
398,491,494,492,492
374,491,493,493,493
374,492,492,492,492
385,491,494,490,493
410,490,492,491,493
468,490,492,491,493
530,490,492,491,492
606,492,493,493,492
634,490,492,492,494
627,492,494,491,491
588,493,495,492,493
491,492,493,492,493
415,490,493,492,492
379,490,492,493,492
373,491,492,492,493
378,489,493,492,493
390,489,492,493,493
437,490,492,492,492
497,491,492,491,493
562,491,493,491,494
624,490,492,490,492
630,491,492,491,493
617,490,491,491,494
549,491,492,492,491
450,491,493,492,493
400,491,492,490,491
373,490,493,492,492
374,492,494,492,492
383,492,494,492,492
407,491,493,492,492
461,491,493,492,493
522,490,492,491,493
597,490,492,491,494
631,489,493,493,493
627,489,492,490,492
596,489,494,494,491
502,490,492,492,493
420,491,493,491,491
385,492,494,491,491
371,492,492,491,493
377,491,491,492,491
389,490,492,491,494
429,491,493,491,492
488,490,492,491,492
552,489,492,492,493
619,489,493,492,492
630,490,492,492,491
621,492,494,493,495
562,492,493,492,492
460,492,493,492,492
402,492,492,492,494
371,492,495,491,491
375,492,493,493,493
381,493,492,491,493
405,490,493,492,491
455,487,493,491,492
514,489,492,491,493
589,488,492,490,492
630,490,494,492,492
629,490,492,492,494
606,490,492,492,494
515,490,493,492,492
428,491,493,493,492
391,492,493,490,492
373,491,495,493,494
377,490,494,491,492
387,493,495,491,492
423,491,493,492,493
482,490,493,492,492
545,491,492,491,493
617,491,493,491,493
634,490,493,492,492
623,490,494,493,492
575,490,494,492,493
471,491,493,491,491
408,491,492,492,494
374,492,493,490,492
371,491,492,491,493
379,490,492,492,493
397,491,493,491,491
447,490,492,491,492
508,491,493,493,493
581,490,493,492,492
630,491,494,491,491
629,492,494,491,492
615,493,493,493,493
529,492,494,492,493
435,490,493,492,492
393,490,492,491,494
370,489,493,493,493
375,489,492,493,493
385,492,492,493,491
417,490,492,490,493
473,490,493,491,491
536,491,493,489,491
609,492,493,491,493
632,490,494,492,491
622,489,492,491,491
583,492,494,492,494
483,490,493,491,493
411,491,494,493,492
379,490,494,491,493
370,490,494,490,491
379,491,493,493,493
395,493,492,491,492
442,492,493,492,493
500,491,493,492,493
566,489,492,492,492
629,491,493,492,492
631,490,492,493,494
617,490,495,493,492
543,492,495,493,492
444,491,494,492,492
398,490,493,493,493
372,492,492,491,491
375,490,494,491,493
382,489,492,491,494
409,489,493,492,492
464,489,492,491,492
527,490,493,492,491
604,489,492,492,493
634,491,493,490,492
626,491,492,491,492
590,492,493,492,493
497,490,494,492,493
417,492,494,492,492
384,492,492,493,495
373,490,494,493,492
380,491,494,492,492
391,491,496,493,492
436,491,492,491,493
493,492,494,491,493
558,490,493,491,492
623,492,492,491,493
630,491,493,493,494
620,489,492,491,492
557,491,493,492,492
453,490,493,492,492
402,490,494,492,491
374,490,494,491,491
373,491,493,491,492
382,490,493,493,492
405,492,492,492,491
459,490,492,491,492
518,490,492,491,493
594,489,492,492,492
631,489,491,491,493
627,491,494,491,491
598,489,492,493,492
509,490,493,492,493
425,493,494,492,493
387,493,493,491,493
371,491,492,493,492
380,492,493,493,493
387,493,494,491,493
430,491,493,493,493
486,491,493,492,491
549,490,493,492,491
617,489,492,492,492
633,492,492,493,491
623,490,491,491,493
567,491,492,491,492
464,491,493,491,492
405,490,493,491,492
376,490,492,492,493
371,491,492,491,492
383,491,494,492,491
405,491,494,491,491
452,491,493,492,493
511,490,492,490,492
584,491,493,492,491
631,489,492,492,494
629,490,492,492,493
609,491,492,494,493
522,491,493,493,492
431,491,492,491,492
393,492,494,492,494
370,489,493,490,492
376,491,491,490,492
385,490,492,491,493
419,490,493,492,493
479,490,492,491,492
542,491,493,490,493
614,489,493,492,492
634,491,494,492,491
624,492,494,492,495
575,490,492,491,492
477,492,493,491,493
409,491,493,492,493
375,491,492,491,493
371,490,493,492,494
379,491,493,491,492
398,489,493,493,492
446,491,493,492,492
506,489,493,491,492
577,491,493,490,491
628,492,493,491,492
629,491,494,493,492
618,491,492,491,493
534,491,494,493,493
439,490,492,492,493
396,490,493,493,493
372,489,493,493,494
374,489,491,491,491
385,491,492,492,494
414,491,492,492,492
471,490,492,491,492
531,491,492,490,492
605,491,494,491,491
633,490,493,492,492
624,493,492,494,493
587,491,495,493,493
489,492,493,492,492
415,492,495,492,494
378,488,494,491,492
372,490,494,493,491
378,490,492,492,494
391,491,491,492,494
439,491,492,491,492
498,490,492,492,492
564,491,491,493,492
626,491,492,492,493
630,491,494,490,492
620,492,494,490,491
548,491,494,491,492
447,489,493,493,492
400,490,492,491,491
373,490,494,492,493
373,489,493,494,493
384,490,494,493,493
409,490,494,491,492
462,490,493,492,492
524,489,492,492,493
600,491,493,490,493
632,491,492,490,494
625,490,492,491,494
595,492,495,492,493
501,491,493,492,492
419,492,493,492,492
384,490,494,494,492
372,490,494,491,492
379,491,494,490,492
388,489,492,493,493
432,491,492,490,492
490,490,493,491,493
554,490,491,491,494
619,490,493,492,493
632,490,494,491,493
619,491,494,493,491
563,491,492,492,493
457,491,494,492,492
404,492,493,491,492
374,493,493,491,493
374,491,494,493,494
381,490,492,491,491
406,493,493,493,493
456,491,492,492,493
516,490,492,492,491
592,490,492,491,493
629,491,493,491,492
629,490,493,492,492
604,492,493,491,493
513,492,493,492,493
426,492,493,491,493
389,491,492,492,491
374,492,493,493,492
378,492,492,491,493
387,490,494,493,491
427,490,493,491,492
482,490,494,491,492
545,489,493,493,493
616,491,492,492,492
633,491,492,492,494
622,490,493,493,495
571,490,494,493,493
469,492,495,493,492
407,491,494,492,492
372,492,492,492,491
373,493,493,491,492
381,492,492,491,492
401,492,492,491,492
450,489,493,491,493
509,489,492,491,491
583,489,493,493,493
630,490,494,492,492
630,491,494,492,491
615,491,496,492,492
524,491,494,491,493
434,490,494,492,492
393,490,493,491,492
370,489,492,491,494
376,489,492,492,494
385,489,495,490,492
419,489,494,492,493
476,490,494,490,492
538,490,495,490,492
612,490,494,491,492
633,491,493,490,492
624,490,494,490,494
580,491,495,492,493
481,493,494,492,493
411,492,494,494,494
379,491,492,493,492
373,491,493,491,493
381,490,497,492,495
395,488,495,491,493
444,491,496,492,493
503,491,495,491,493
570,490,493,490,494
627,490,495,491,493
631,489,493,492,493
618,493,492,490,492
539,492,494,493,493
442,492,495,493,493
399,492,494,491,494
371,489,493,491,493
375,490,494,492,492
385,489,492,491,493
411,489,492,492,493
468,490,493,491,493
529,491,494,490,492
605,489,494,492,494
633,490,492,491,492
627,492,494,491,491
590,493,494,492,493
495,494,496,492,494
415,493,495,492,494
381,493,496,492,492
371,491,494,492,494
379,491,495,494,493
392,489,496,493,492
438,490,497,492,493
496,491,497,491,493
562,493,495,492,495
623,494,495,491,494
631,493,492,492,494
619,492,489,491,494
552,492,492,493,491
451,493,492,494,493
401,496,493,494,493
373,493,494,493,492
375,493,493,492,492
384,494,492,492,494
406,493,491,492,492
461,491,491,491,492
519,490,491,491,493
595,491,491,492,494
632,492,493,493,493
627,492,492,491,492
599,489,496,492,495
505,488,495,493,493
421,488,494,492,492
386,490,493,491,492
373,490,492,491,493
377,490,493,491,491
386,489,491,492,492
432,491,493,492,493
488,490,493,493,492
552,490,493,493,492
621,490,494,492,493
630,489,493,491,492
622,489,493,494,493
564,490,493,492,493
461,490,495,493,494
405,491,494,493,494
375,493,497,492,494
373,492,498,493,494
381,492,500,492,493
405,492,500,490,494
456,492,496,491,493
514,493,494,491,494
587,493,495,490,494
633,494,495,491,494
627,494,495,493,493
607,495,495,494,494
520,494,496,492,494
430,492,495,490,493
390,490,495,491,492
375,487,492,492,493
377,488,492,491,492
386,489,490,491,492
422,489,490,491,492
480,491,492,492,493
542,490,493,491,492
616,493,494,493,492
634,492,494,492,492
625,492,494,493,492
579,492,493,492,494
473,492,495,493,492
409,493,494,494,492
374,495,494,492,492
370,492,494,494,494
381,491,494,492,491
399,491,494,493,492
447,489,493,492,493
507,490,494,491,491
578,490,495,490,493
628,492,496,490,496
631,493,498,487,496
617,490,502,493,497
531,492,500,492,496
439,491,497,492,497
395,488,491,493,493
373,487,487,493,489
377,490,488,492,491
383,490,495,492,490
416,489,494,491,492
472,490,494,491,492
532,489,492,491,494
607,490,491,492,492
634,492,491,494,491
626,491,491,490,492
583,493,495,492,492
486,493,495,492,493
414,492,495,491,494
381,490,491,492,493
371,490,492,491,492
380,487,495,491,494
392,487,493,492,494
440,488,495,492,493
501,489,493,493,493
567,489,493,491,493
625,493,496,492,492
631,492,495,494,493
619,494,499,490,496
544,494,503,491,497
449,493,503,492,499
402,493,503,492,501
373,488,494,490,495
377,488,489,492,490
385,487,489,493,488
411,489,489,493,490
465,490,490,492,491
523,489,493,492,493
601,487,494,493,494
632,490,495,492,494
624,491,496,494,495
591,490,494,490,494
500,492,493,492,493
417,491,490,492,492
385,491,490,492,490
372,492,492,491,491
378,490,492,491,492
389,491,492,490,492
434,489,493,491,492
492,490,494,491,493
558,490,494,492,494
621,490,496,493,492
632,490,499,493,492
622,491,496,491,495
559,493,498,493,496
455,495,496,493,494
403,497,496,492,493
372,492,491,492,493
372,487,492,493,492
384,492,493,493,495
404,496,492,491,493
459,493,493,491,493
518,492,495,490,492
594,492,497,491,494
632,490,495,491,493
627,487,495,491,494
603,487,494,490,495
511,490,494,490,494
423,490,493,492,493
389,490,490,494,494
374,495,490,494,492
378,496,494,496,494
387,493,493,493,491
429,490,494,493,492
485,488,494,493,494
548,488,493,492,493
618,488,493,490,494
631,493,493,493,492
624,497,492,495,493
570,499,495,496,492
466,497,494,495,493
406,490,493,493,491
374,488,495,494,493
372,492,492,494,492
380,495,492,490,492
399,491,492,491,494
449,491,493,491,493
512,497,493,492,493
584,503,493,491,493
632,502,494,492,492
631,505,495,492,491
613,507,497,492,492
524,505,496,493,493
431,496,497,491,493
390,493,499,493,493
371,491,496,492,495
376,486,493,493,494
385,480,491,494,493
419,484,492,492,492
476,488,493,492,493
539,489,493,490,491
614,493,493,491,491
632,493,492,491,493
623,494,495,494,492
581,491,494,493,493
478,486,495,493,494
411,486,494,493,493
377,485,494,493,492
372,487,495,492,494
379,490,494,491,491
398,493,494,495,493
444,491,495,493,493
505,492,492,491,493
570,488,495,490,496
627,489,497,492,497
631,491,494,489,494
618,490,494,491,495
535,490,491,492,492
441,487,493,493,491
396,487,495,492,491
373,489,494,493,492
376,489,494,491,493
384,489,495,492,494
412,489,493,492,492
468,490,494,493,493
528,489,494,493,492
604,489,494,491,492
634,492,496,492,494
626,495,496,491,494
588,497,497,492,494
491,495,495,494,492
415,490,495,493,493
381,489,494,492,493
372,489,492,494,493
380,489,493,492,494
394,490,497,492,495
439,495,496,492,492
497,492,492,491,492
562,492,494,489,491
624,491,492,493,492
630,490,491,492,493
618,491,493,492,494
548,491,495,493,493
450,491,494,492,494
400,490,493,492,495
370,489,494,492,492
375,495,492,491,492
382,492,493,492,491
406,491,494,494,492
463,492,493,494,492
522,491,495,494,494
599,488,494,494,493
633,490,497,491,492
627,491,499,492,495
595,488,496,491,493
505,488,494,492,493
420,491,491,491,492
385,492,490,491,491
371,493,492,492,493
376,494,492,493,492
391,499,494,496,493
432,497,494,494,492
489,492,494,493,492
555,493,495,492,492
621,492,496,490,493
631,487,496,493,494
620,484,495,491,493
563,488,496,492,494
459,491,492,491,494
404,490,491,493,492
371,489,491,492,492
372,489,495,492,492
383,487,497,492,494
406,491,498,491,492
456,492,497,491,493
515,493,496,492,494
591,492,496,493,494
631,492,493,491,493
627,491,492,494,492
607,489,489,495,492
517,494,492,495,492
427,499,495,494,492
391,502,494,494,495
375,506,494,492,491
378,503,495,492,495
387,499,492,492,495
424,494,493,492,494
480,487,492,492,492
544,483,493,493,492
616,484,493,492,494
634,483,495,491,493
625,487,497,491,492
575,490,497,491,494
471,488,494,492,493
408,489,490,492,490
376,490,491,493,493
372,490,493,496,492
382,493,495,495,492
400,494,492,491,492
448,495,494,492,492
508,495,498,493,492
579,490,498,491,493
629,482,498,491,496
628,489,494,492,494
612,490,488,491,491
530,491,490,493,493
435,491,495,492,494
395,489,496,494,494
375,490,496,491,492
376,492,496,492,491
385,490,493,495,492
417,492,492,494,492
473,489,493,492,491
535,489,492,493,494
609,490,492,494,493
633,491,490,493,492
623,492,494,493,491
579,493,494,493,492
483,491,495,493,492
413,490,495,492,493
379,492,495,492,492
373,493,499,494,494
379,490,499,491,492
396,483,496,493,494
443,485,493,492,493
503,487,490,493,491
569,487,494,493,491
625,492,491,491,491
632,498,492,493,491
618,496,493,491,493
540,499,494,493,492
445,498,494,493,493
396,491,496,491,492
374,487,495,493,493
373,489,493,491,492
384,489,493,493,492
414,487,493,491,492
466,490,494,492,493
526,487,496,491,493
604,489,498,491,493
633,486,496,493,495
625,486,493,494,494
589,488,491,495,492
496,490,492,496,492
418,489,494,497,494
381,489,493,495,491
373,490,497,490,493
380,490,496,490,494
391,491,494,490,493
435,489,494,493,492
495,489,492,491,493
561,490,493,491,493
623,489,493,493,492
633,490,495,493,491
622,491,497,494,494
552,491,497,494,493
454,493,498,495,494
401,493,495,493,493
372,492,494,491,495
374,491,491,492,493
381,491,494,492,491
406,490,493,493,492
461,490,492,490,493
519,487,493,491,491
598,490,494,490,491
633,492,497,491,492
627,492,496,493,493
601,492,496,495,493
506,492,492,493,493
421,492,489,494,493
388,497,492,495,494
373,495,493,494,493
376,495,492,494,492
390,491,492,492,494
427,488,495,492,493
487,489,495,492,493
551,491,493,490,492
617,488,493,493,491
632,490,492,493,492
623,494,496,495,495
567,491,498,494,495
465,492,497,493,495
407,490,499,492,495
372,486,498,492,493
375,484,493,493,492
380,488,489,492,491
402,491,491,495,491
453,493,491,494,490
513,493,495,494,493
586,496,495,494,492
631,498,498,493,492
630,498,497,495,492
613,500,495,493,493
523,495,492,493,492
430,491,490,493,492
391,488,492,491,491
372,483,496,489,494
374,483,493,492,494
386,486,493,493,494
422,488,496,494,493
478,489,499,495,494
543,491,496,493,496
615,494,493,494,494
633,492,489,491,492
623,492,489,487,490
577,490,495,493,492
475,488,494,490,492
411,489,495,493,494
374,486,493,494,493
373,490,495,494,493
382,491,494,493,495
396,490,496,492,494
446,489,494,491,493
505,490,491,491,493
574,488,491,491,494
628,488,493,492,493
630,488,493,491,491
616,492,493,494,493
534,491,493,492,492
437,490,495,493,492
395,490,496,492,492
375,490,497,490,492
375,487,496,494,493
383,491,492,493,492
416,493,492,491,493
469,494,491,493,493
532,494,493,490,493
608,490,494,489,493
631,493,493,494,491
625,491,492,493,491
585,492,494,492,492
487,490,493,492,492
414,490,494,492,492
380,493,495,492,493
370,492,498,491,492
380,490,499,492,495
392,488,496,493,494
439,484,493,492,494
499,489,488,492,490
562,493,490,494,490
627,497,494,494,493
632,498,498,495,494
617,499,502,496,496
546,496,501,495,496
449,488,497,492,494
400,488,489,493,493
372,490,490,489,492
376,488,496,491,493
384,486,494,491,491
411,488,491,491,491
463,487,492,491,490
522,488,493,491,490
602,488,493,491,492
632,488,496,493,493
626,489,494,495,493
595,491,492,495,492
499,490,494,496,492
418,491,494,495,491
384,493,495,491,491
370,494,493,488,493
377,495,493,491,493
389,496,494,492,491
434,498,493,494,493
494,499,496,493,492
557,490,498,494,491
621,482,497,491,491
633,486,493,491,491
618,487,491,493,489
558,488,493,495,491
456,489,493,490,490
399,490,492,493,492
370,489,491,491,492
373,492,493,490,490
380,490,494,494,490
403,491,492,491,490
456,490,494,492,490
515,491,496,491,491
591,492,499,493,492
631,494,500,493,494
625,498,500,493,492
602,495,494,492,493
511,496,491,490,492
426,493,490,491,493
390,495,490,493,493
371,487,490,489,494
377,483,495,493,496
388,487,498,493,494
427,488,499,494,494
484,488,494,494,491
546,489,495,494,491
614,488,492,497,493
633,490,491,492,492
624,490,495,492,493
572,491,496,493,493
469,491,496,493,495
407,490,498,492,493
374,490,497,494,493
372,491,495,492,494
380,492,495,494,495
399,490,492,495,493
452,490,492,494,492
509,491,491,492,492
581,490,492,491,491
631,493,493,489,492
628,491,493,490,494
613,491,493,487,495
526,489,495,491,495
433,487,494,490,492
395,489,493,492,494
371,489,491,494,491
376,491,492,494,492
387,496,494,491,492
417,496,494,492,491
475,495,493,492,493
538,496,493,491,491
609,489,493,494,493
630,478,493,492,494
625,487,495,494,495
578,487,495,492,493
480,490,495,491,494
411,490,495,491,492
378,489,496,494,491
372,490,494,494,494
379,490,495,492,493
395,489,495,494,493
442,491,493,491,492
501,491,494,492,495
569,490,495,492,497
629,490,495,490,495
629,490,494,493,491
618,491,490,493,493
539,497,493,494,489
441,497,496,493,491
397,498,494,494,492
374,494,493,493,493
372,493,490,493,492
385,492,492,493,494
411,481,495,493,493
467,484,495,493,492
528,487,490,491,492
603,491,496,492,491
633,487,496,493,493
625,490,494,491,494
586,491,496,491,496
493,492,497,493,495
418,493,498,492,496
382,488,493,490,493
371,488,488,493,490
380,492,489,493,489
392,492,495,492,491
436,490,494,493,492
497,492,494,494,492
560,495,493,497,492
625,494,492,495,493
630,490,493,493,492
618,490,496,495,493
552,496,498,491,493
452,497,498,490,494
399,491,494,488,493
374,488,493,490,492
373,487,493,490,493
381,486,492,490,492
409,488,491,491,491
459,492,492,492,491
521,489,493,493,494
598,486,496,494,492
632,489,499,493,493
628,489,494,492,495
599,491,494,491,493
503,488,493,493,491
422,489,494,492,493
385,490,495,491,492
370,488,494,492,493
377,488,492,490,493
389,488,493,493,492
430,489,492,491,492
490,489,496,492,491
553,490,497,491,493
621,490,495,491,497
633,491,493,490,493
620,490,491,494,489
566,490,496,493,492
461,491,498,492,493
404,490,496,494,494
372,494,491,492,492
374,491,492,493,492
380,490,494,492,492
405,492,498,490,494
455,490,497,492,494
513,492,492,493,493
590,491,491,492,492
629,491,493,492,491
628,491,493,495,490
608,491,493,494,492
517,490,494,492,493
427,489,492,494,492
389,490,491,492,489
372,492,494,495,491
377,490,492,492,493
385,487,493,490,494
421,489,494,491,494
481,492,494,490,494
544,490,493,491,493
614,492,493,490,493
635,494,496,489,493
624,494,493,491,489
575,492,490,494,491
472,488,493,493,492
408,490,495,493,491
373,490,493,491,494
372,490,497,495,494
381,490,498,496,494
398,490,496,495,494
450,488,500,494,493
507,487,497,491,491
579,489,494,486,493
629,490,491,488,494
628,489,487,491,493
614,491,493,492,491
530,490,493,493,492
435,491,492,493,492
395,491,494,493,491
373,491,495,492,491
376,494,495,493,494
385,491,495,489,494
416,491,495,490,495
473,490,494,488,494
535,490,492,488,494
608,488,493,492,493
634,490,490,492,489
627,493,495,495,492
581,496,496,495,493
486,497,495,495,493
415,495,494,492,492
379,491,492,494,491
373,496,492,490,491
379,493,495,492,494
391,486,494,492,494
440,484,493,491,493
500,485,494,492,492
567,486,495,491,493
624,489,494,491,491
630,490,494,493,492
618,493,494,489,493
542,492,495,491,493
445,489,495,492,494
399,487,494,493,495
371,488,492,492,491
373,490,491,493,492
385,490,494,493,492
412,489,497,491,493
465,489,499,491,496
526,491,497,489,494
603,490,494,492,494
632,491,489,491,493
625,491,489,493,494
590,490,493,493,492
497,490,494,491,492
418,489,494,491,492
381,491,496,495,491
373,492,495,491,492
380,492,493,489,492
388,492,491,491,491
435,489,493,492,492
493,486,492,491,491
558,488,491,492,494
622,488,494,492,492
632,490,496,493,492
621,490,493,492,495
556,491,496,491,494
453,490,494,492,494
402,495,495,492,494
373,497,496,491,493
372,494,493,493,491
384,494,494,495,493
405,491,492,494,491
458,488,492,494,492
519,490,493,494,490
596,490,495,488,491
632,490,494,493,493
627,493,492,491,493
602,489,494,494,493
508,489,492,491,493
422,486,493,490,492
388,490,494,491,494
372,489,494,489,493
377,490,497,491,492
386,491,495,491,492
430,491,496,491,493
487,490,494,491,492
549,492,494,491,493
618,490,494,491,493
632,491,493,492,491
622,490,490,493,494
568,488,491,491,493
466,491,493,489,493
406,493,497,491,495
376,496,505,490,495
373,495,500,489,496
382,494,496,489,494
403,489,484,490,491
451,487,484,492,490
511,488,489,493,492
584,488,494,490,491
630,486,496,493,493
631,489,497,492,493
613,490,497,491,493
523,492,495,493,493
430,492,492,492,491
392,492,491,494,490
371,492,491,493,493
375,491,493,492,493
386,488,494,492,494
420,490,495,492,492
478,490,494,493,492
540,490,491,494,491
615,491,496,491,494
634,492,498,489,493
624,494,497,493,494
579,493,493,492,494
478,493,491,493,491
409,488,493,493,493
375,489,492,493,491
373,490,493,493,491
377,491,492,493,491
399,493,494,492,493
445,493,496,491,493
506,497,495,493,494
575,498,493,491,494
628,497,491,493,494
629,490,490,489,491
617,486,492,493,492
533,490,495,493,492
439,486,495,492,493
396,486,496,492,492
374,488,495,493,494
374,489,495,491,494
384,491,496,494,492
411,491,494,492,493
470,487,493,489,494
531,487,492,493,493
607,491,493,491,492
635,490,495,490,494
624,490,498,490,493
588,493,504,490,496
491,490,503,489,497
416,490,500,491,495
381,489,493,490,494
373,491,491,490,492
378,489,489,495,491
391,489,489,495,491
439,488,490,491,490
498,489,492,492,492
561,491,492,495,490
627,493,492,493,493
630,496,491,491,494
618,491,492,491,493
547,488,494,491,493
447,490,494,493,493
399,490,493,490,492
373,492,495,493,493
374,491,495,493,493
385,491,496,492,492
410,493,494,493,493
461,491,493,492,491
524,493,492,492,492
598,494,491,491,493
632,491,493,492,494
627,489,493,492,491
594,494,492,494,492
502,492,493,491,493
418,490,494,492,491
385,490,495,492,492
372,490,495,490,493
378,492,494,490,492
390,490,495,491,493
431,491,492,491,492
491,491,491,492,492
554,487,494,493,493
621,488,495,494,492
633,491,493,496,494
619,493,495,496,493
560,490,493,496,492
458,491,493,492,492
402,488,493,490,494
372,490,494,487,492
374,492,498,489,495
383,489,493,489,493
404,488,493,491,493
456,487,490,491,491
516,490,489,490,490
592,490,492,492,493
630,492,491,492,493
630,493,493,493,494
603,492,493,493,494
514,490,495,493,492
427,490,495,493,493
391,490,497,488,493
371,488,495,489,491
377,490,493,492,492
387,496,499,493,494
428,499,502,497,496
485,496,500,491,495
548,486,494,491,496
616,493,485,490,490
634,496,490,490,489
624,495,494,493,493
574,492,495,492,493
471,493,494,490,494
408,495,494,490,495
374,489,492,490,493
371,487,496,491,493
379,483,498,492,493
398,484,494,491,490
450,488,492,492,492
509,488,487,491,492
583,489,491,493,491
630,490,494,492,492
630,490,495,491,493
615,492,497,490,494
527,490,496,491,493
434,491,494,493,492
394,490,493,492,496
370,488,492,494,494
377,493,492,496,492
387,496,491,493,493
419,493,494,494,492
474,488,492,490,490
536,490,493,489,492
610,492,493,491,494
633,493,495,492,492
626,493,495,490,495
580,492,493,490,493
481,493,490,490,491
411,495,493,493,491
379,494,494,493,491
371,493,492,493,492
379,492,494,493,494
396,487,497,490,494
442,489,497,491,494
504,494,494,493,495
570,495,488,492,492
628,490,487,491,491
631,486,493,491,492
616,486,494,491,491
540,489,496,492,493
443,488,495,491,494
398,490,491,492,493
373,489,490,494,494
373,491,495,492,494
384,489,496,491,495
412,489,496,490,494
468,490,494,490,494
528,489,489,489,490
606,489,491,492,492
634,490,491,492,491
625,492,493,493,492
587,494,500,494,495
495,490,501,491,494
417,489,497,491,496
383,490,490,490,493
373,489,491,493,491
380,491,493,493,492
393,495,497,492,492
437,493,495,491,491
495,491,494,491,493
559,489,493,493,493
622,490,491,492,495
631,490,497,496,496
622,494,499,495,497
553,492,498,491,498
453,490,493,491,496
401,486,486,489,489
374,493,489,490,489
373,496,490,491,491
382,498,492,494,491
409,497,493,495,492
462,492,493,491,492
520,491,495,493,492
597,485,493,491,491
632,487,495,491,494
626,489,492,490,492
600,492,491,493,494
505,490,493,492,493
420,488,495,492,494
385,488,496,493,494
371,487,495,492,494
379,490,493,491,493
388,490,494,490,494
430,490,494,489,492
488,490,494,487,492
552,490,493,488,492
621,493,493,492,492
633,494,491,492,492
623,498,494,496,494
564,497,492,493,493
461,498,493,493,494
405,494,493,494,492
372,489,493,493,491
373,485,496,492,495
381,486,497,489,492
404,491,493,489,492
453,487,491,489,493
512,489,489,492,491
586,491,490,493,492
632,496,492,494,493
630,495,493,493,492
609,491,494,492,493
519,492,493,494,495
430,492,493,493,495
391,491,494,492,492
372,490,493,493,494
375,487,494,490,493
385,487,494,493,494
422,489,496,493,493
481,492,497,493,493
544,492,494,489,494
614,491,496,488,493
635,491,498,489,493
624,491,495,490,495
578,488,495,492,496
475,490,491,492,491
409,490,488,493,491
375,489,491,492,492
372,489,493,493,493
380,489,492,492,492
398,491,494,492,491
448,491,494,493,492
508,491,496,491,493
579,492,498,490,494
628,492,497,493,495
629,491,494,493,492
618,493,490,492,492
530,492,492,492,492
438,491,493,492,492
394,491,494,493,491
372,491,493,490,492
375,492,492,493,494
384,494,495,493,495
417,490,494,493,496
473,488,492,491,494
533,487,488,489,493
607,488,488,487,492
633,490,492,490,490
626,488,492,490,492
585,490,495,491,491
486,491,494,492,492
413,492,495,493,493
379,489,498,493,494
371,490,498,490,493
380,492,497,492,497
393,490,493,493,493
441,491,487,493,489
498,489,491,492,491
567,488,491,492,493
628,492,493,492,493
631,493,492,493,492
618,496,492,493,493
542,496,493,494,493
446,493,493,491,492
400,490,493,492,494
370,493,492,490,493
376,491,494,489,491
385,493,495,492,491
411,492,493,492,492
464,489,493,492,492
524,492,492,494,492
603,489,492,495,494
633,487,493,493,494
626,487,495,494,494
592,491,495,492,494
499,491,495,493,493
416,490,494,493,493
385,491,494,490,492
372,494,491,490,492
377,492,492,491,493
388,490,492,491,493
436,491,496,491,494
493,490,499,491,494
559,488,497,492,495
624,488,496,491,491
633,489,492,491,490
620,489,491,493,491
558,492,493,493,493
454,489,491,491,492
402,490,491,491,494
371,490,492,491,494
373,489,491,491,493
383,490,492,493,493
405,494,492,492,491
460,495,493,493,490
520,495,494,489,491
594,495,494,490,492
633,494,494,491,493
626,490,495,491,491
603,485,494,492,495
511,487,498,491,495
426,490,499,491,495
390,490,497,494,496
373,493,492,496,492
379,496,488,495,492
388,492,489,492,492
428,492,491,493,492
485,492,490,491,491
547,487,495,488,491
618,484,494,488,493
632,489,494,490,493
625,489,496,492,494
572,489,496,491,493
467,489,493,490,494
405,489,492,491,492
374,492,492,492,490
373,489,492,491,493
380,490,493,491,494
401,490,493,492,494
451,492,493,492,493
512,493,493,493,492
584,493,492,493,492
632,494,493,491,492
630,491,495,489,493
612,487,498,489,494
524,490,497,493,495
433,490,494,491,495
393,491,491,491,495
372,491,488,494,493
378,494,492,494,492
387,492,494,492,493
419,489,492,491,492
478,490,494,491,492
539,491,492,491,492
613,491,492,491,493
632,490,493,491,493
623,492,494,491,492
579,491,494,492,492
478,492,494,492,494
411,489,495,493,492
378,490,495,494,492
373,490,494,493,494
380,487,492,490,494
397,488,495,492,493
444,489,493,492,493
504,489,493,490,494
573,489,493,491,494
629,490,494,492,493
630,492,492,491,492
619,492,494,492,494
533,493,494,492,491
440,492,494,491,492
396,492,493,491,491
371,488,493,493,492
374,488,491,492,491
384,490,494,493,494
414,488,492,492,493
470,489,492,491,493
531,488,494,491,493
605,489,494,491,491
635,489,494,493,492
625,490,493,491,491
586,491,493,492,492
490,491,494,492,495
416,491,495,492,496
381,490,493,491,493
371,491,494,492,492
380,490,493,492,493
395,491,494,491,492
439,491,494,491,492
497,489,493,492,492
563,490,494,489,492
626,491,495,492,494
631,489,493,492,494
620,490,493,493,494
550,491,493,492,493
449,491,492,493,493
401,492,491,491,494
373,490,492,490,493
374,490,491,490,493
383,491,491,490,492
409,491,494,492,493
462,492,493,491,490
523,493,495,493,492
599,490,494,493,492
634,490,495,492,491
628,489,494,493,494
592,489,496,493,493
502,490,495,494,494
420,492,494,492,493
384,490,492,490,493
372,490,492,491,494
377,489,493,490,492
390,491,492,492,494
433,490,493,490,492
491,490,493,490,493
556,491,492,489,492
622,492,492,489,493
632,490,493,493,494
621,490,494,492,492
563,491,497,492,494
458,491,496,492,495
405,491,494,492,496
372,489,492,491,492
372,491,494,493,492
381,491,492,492,490
406,492,494,491,491
456,490,493,492,492
516,490,492,490,491
591,489,494,491,493
630,490,493,490,491
628,490,494,492,493
605,489,494,494,494
515,491,495,494,493
428,490,495,492,493
388,489,494,492,494
375,491,493,493,493
378,490,491,491,493
385,492,491,491,494
425,491,492,492,493
483,491,494,491,491
546,489,491,490,493
618,492,491,490,491
634,491,493,493,491
624,492,494,492,491
576,492,494,491,495
468,490,493,492,492
408,492,494,492,492
375,492,492,491,494
370,491,491,492,494
381,491,493,491,495
400,493,493,490,493
450,489,493,491,492
510,492,492,491,491
582,497,493,491,491
630,498,492,491,492
629,496,491,490,493
613,494,494,493,491
528,491,493,491,493
434,490,494,491,493
392,484,494,493,494
372,486,494,492,492
378,490,494,491,493
383,487,492,491,492
420,489,493,492,493
474,490,494,492,492
536,491,492,490,493
610,489,491,491,494
633,490,494,490,492
625,488,494,491,493
583,492,493,491,493
481,490,494,492,493
413,490,493,492,492
381,491,496,492,494
371,490,494,492,493
380,490,494,493,493
394,491,492,491,494
441,489,492,490,493
503,488,492,491,494
570,488,492,491,491
628,491,492,491,492
633,490,491,489,494
617,491,495,489,492
541,492,494,490,493
444,491,493,489,493
398,491,494,493,493
371,491,491,491,492
377,492,493,491,493
382,490,492,493,494
412,490,492,493,494
468,491,492,492,492
527,490,493,493,491
607,489,491,493,494
634,492,492,492,492
625,491,492,492,493
589,492,492,493,494
496,492,494,492,492
415,491,493,491,493
384,492,493,493,493
372,491,494,492,491
379,491,494,492,492
393,491,494,491,491
436,490,493,492,492
495,491,493,494,494
561,490,491,489,493
622,490,491,491,494
630,490,491,492,495
621,490,490,489,492
553,493,492,492,493
452,492,490,491,492
401,493,492,491,491
373,492,491,490,492
374,492,491,490,493
383,491,493,494,493
404,491,491,492,493
462,491,493,491,493
519,490,493,491,492
596,489,493,492,492
634,491,492,491,492
625,493,495,491,491
597,491,493,493,492
507,493,494,491,492
421,492,493,491,492
387,490,492,490,494
372,490,492,490,492
379,491,492,492,494
388,492,493,489,493
430,491,493,491,493
488,491,492,491,492
553,491,493,490,492
618,490,492,492,493
633,491,492,494,493
625,490,492,492,493
565,491,493,494,494
463,491,494,494,494
407,490,494,491,492
375,490,493,493,493
373,491,491,489,492
384,492,492,489,491
405,492,493,490,493
455,491,492,491,493
514,490,492,490,492
586,491,493,493,493
633,490,492,492,493
629,489,493,492,494
608,489,493,493,494
521,490,493,492,493
429,492,493,491,492
392,490,495,491,495
372,490,493,489,492
376,492,491,490,493
386,492,491,490,493
422,491,493,491,492
480,491,492,491,493
545,492,491,490,494
614,491,491,491,492
634,491,493,492,491
625,492,493,493,495
575,492,492,492,492
475,492,492,493,493
409,492,492,491,492
374,493,491,491,492
371,490,491,492,494
380,492,493,492,491
397,491,493,493,492
448,492,492,491,493
508,491,492,491,491
578,491,493,492,491
629,492,492,492,492
630,492,492,492,492
615,493,492,491,493
532,491,492,493,492
436,492,492,491,494
393,491,492,493,494
371,490,492,493,493
375,492,492,492,492
385,491,491,490,494
414,492,493,491,492
472,491,492,491,492
533,491,492,490,492
609,490,492,492,492
631,492,491,492,491
626,493,493,492,494
583,491,492,492,493
485,491,493,492,493
414,490,492,491,493
379,491,493,492,491
372,490,491,493,494
381,492,492,490,492
394,493,492,490,492
440,491,492,491,492
500,491,491,491,492
568,491,493,491,494
625,490,492,490,493
631,491,493,492,491
620,491,494,494,493
545,492,494,493,493
446,492,493,493,494
397,493,493,491,494
371,490,492,490,493
372,491,491,491,493
381,490,491,491,494
408,490,491,491,492
466,492,491,491,493
524,491,491,490,492
604,491,493,491,491
634,492,493,491,492
626,492,492,490,491
592,490,492,493,492
498,492,493,492,492
417,491,492,491,493
383,491,491,491,494
370,490,492,493,493
378,490,492,494,493
391,492,491,490,493
434,491,492,492,492
493,491,491,490,492
558,493,492,489,491
621,491,492,491,494
631,490,491,491,492
622,492,491,491,494
556,492,493,491,493
455,491,492,492,493
402,491,493,493,492
373,490,493,492,492
372,490,491,492,492
382,492,492,493,494
405,490,490,490,492
458,491,491,491,492
517,491,491,491,493
591,490,493,491,492
633,491,492,492,491
627,492,491,491,492
604,491,493,493,492
512,492,493,492,492
423,492,493,492,493
389,493,493,493,494
373,491,491,490,493
375,491,494,492,492
387,491,491,491,494
427,491,492,492,494
485,491,491,492,493
549,491,491,489,492
619,490,493,491,494
632,490,492,490,492
624,492,492,490,492
571,493,492,491,493
467,492,492,492,493
408,491,491,491,494
374,491,493,491,494
373,490,492,492,494
382,491,492,493,493
401,490,493,492,493
451,491,491,490,493
511,491,492,492,494
583,492,492,490,493
631,492,491,490,494
628,492,490,491,494
610,491,491,492,495
526,492,493,492,493
433,492,492,492,493
393,492,493,493,494
374,491,493,492,491
378,492,493,492,491
386,492,490,492,495
420,493,491,491,493
476,491,492,492,493
540,491,490,490,493
611,491,491,491,494
633,490,492,493,493
624,492,490,493,493
581,491,492,491,493
477,491,492,492,493
413,491,493,491,492
378,493,493,490,492
371,490,492,492,493
380,491,491,490,491
398,491,494,492,494
444,490,491,491,492
505,490,491,491,492
572,490,492,493,493
629,491,491,491,494
629,492,493,490,492
615,490,492,493,493
536,492,492,492,492
441,492,492,491,494
395,492,492,492,492
374,491,493,492,494
374,491,492,490,492
383,490,492,493,493
415,491,492,491,492
469,491,492,491,492
530,490,491,491,494
608,493,492,490,492
633,490,493,492,494
624,491,491,491,494
585,491,492,492,493
490,492,492,492,492
416,492,492,492,493
382,493,492,490,492
372,491,493,491,491
380,491,493,491,492
394,493,493,490,491
437,492,492,491,493
498,491,491,491,492
561,492,493,492,491
626,491,491,492,494
632,490,492,493,493
620,489,493,493,493
549,491,492,492,493
450,491,493,492,493
398,490,492,492,492
374,492,492,490,492
374,492,491,490,493
381,491,491,493,492
410,491,491,491,494
462,492,492,491,492
521,490,492,493,493
601,490,492,492,492
633,492,493,491,491
625,490,492,493,491
598,493,493,493,493
501,491,493,492,493
419,492,492,492,494
385,492,491,491,493
371,491,492,492,494
377,493,492,491,493
391,491,492,493,493
431,492,492,492,493
491,491,492,491,493
556,492,492,490,492
621,492,492,493,493
633,491,490,491,494
621,493,494,492,491
560,491,492,492,494
459,491,492,492,493
404,491,492,493,492
371,492,491,491,492
376,491,493,491,493
380,490,492,490,491
405,492,491,490,493
456,492,491,490,492
514,491,492,491,491
591,490,490,491,494
633,492,492,490,493
628,491,493,493,493
608,491,494,494,492
516,492,493,493,492
427,492,493,493,494
389,491,493,491,492
374,492,493,493,492
375,491,491,492,494
387,491,490,491,494
424,492,492,491,493
483,491,492,491,493
547,491,492,490,492
614,492,493,492,492
635,492,492,491,492
624,492,492,491,491
575,493,493,493,493
471,492,492,491,493
409,491,493,491,494
372,490,491,492,494
372,490,492,493,493
382,491,492,492,492
398,492,491,491,492
450,490,491,491,492
509,491,492,491,492
580,492,491,491,492
629,492,491,491,493
629,492,492,492,494
615,493,494,493,495
528,492,492,492,493
434,492,492,493,493
394,491,493,494,492
373,492,494,492,492
376,492,492,492,493
384,492,493,490,492
418,491,493,492,492
473,490,492,491,493
536,490,491,491,494
608,490,491,492,492
633,492,492,493,493
627,492,491,490,493
580,492,494,493,493
482,492,493,493,493
414,494,493,491,492
379,492,492,493,493
371,493,492,492,492
381,493,493,492,494
393,490,491,493,494
442,490,492,491,493
502,490,492,492,493
570,490,491,491,493
626,492,493,491,492
631,491,493,493,493
618,493,493,491,493
540,492,492,491,493
445,491,493,491,492
397,492,494,492,495
371,490,493,490,492
375,490,493,493,493
384,491,493,493,492
414,491,493,491,492
467,491,492,492,493
527,491,492,491,493
605,491,493,492,494
632,491,492,492,494
625,490,492,492,495
589,491,492,491,492
495,493,493,492,493
417,493,493,491,494
383,491,495,493,492
372,492,493,492,492
380,492,493,490,493
391,494,492,490,492
436,491,493,492,493
495,491,493,491,492
561,490,492,492,494
623,490,493,492,493
633,491,493,492,492
622,491,492,490,494
555,492,494,492,494
452,492,492,492,492
401,492,493,491,493
372,493,492,491,493
373,491,491,492,491
383,491,492,492,495
406,492,492,491,492
459,490,492,492,493
519,490,493,492,492
598,491,493,492,492
631,490,493,492,493
627,493,492,493,494
600,491,492,491,493
506,492,493,492,494
423,493,493,493,494
388,491,492,491,495
373,493,493,491,493
379,490,493,493,493
388,491,491,492,492
430,492,493,492,493
488,491,493,491,493
552,492,491,492,493
618,490,491,491,494
632,491,493,490,492
621,489,492,493,495
565,490,492,493,494
464,491,493,492,494
406,492,492,491,492
375,490,494,491,494
373,490,493,490,492
381,492,492,490,492
403,493,491,491,493
453,492,492,491,492
513,491,491,491,494
589,492,493,491,494
630,490,493,493,492
629,490,494,493,492
610,490,494,494,493
521,492,493,492,493
429,491,494,491,493
391,491,492,493,494
372,492,492,492,493
374,491,491,492,494
386,490,491,491,494
424,492,493,492,493
478,491,492,491,493
543,492,493,492,492
614,490,493,491,492
633,492,493,491,492
624,492,493,493,494
575,493,493,491,493
474,491,492,492,492
409,492,493,492,494
373,491,492,492,494
372,490,493,492,492
381,492,492,492,493
399,490,491,491,494
447,491,493,491,493
506,491,493,490,492
576,492,493,491,492
628,492,491,490,493
631,491,494,492,494
614,491,491,492,492
533,492,493,492,493
436,491,493,493,493
395,491,493,493,493
373,491,492,491,493
374,492,494,491,492
384,491,491,492,491
415,492,492,491,492
471,490,492,491,493
532,489,491,491,491
610,491,493,493,494
632,490,493,491,493
625,491,494,494,493
584,491,495,493,492
486,492,493,492,493
415,493,493,492,494
379,493,494,491,493
371,492,493,491,493
378,492,492,492,494
390,489,491,492,495
439,489,492,492,493
501,489,492,490,492
565,489,493,493,492
626,490,491,492,492
632,492,493,490,492
619,492,494,491,492
547,492,493,491,493
447,491,493,491,492
398,491,494,492,492
375,490,492,492,493
374,490,492,493,493
384,490,493,493,493
411,492,491,491,492
464,490,492,492,493
525,490,491,489,492
604,492,493,490,492
633,491,492,491,494
625,491,491,491,492
595,492,492,492,494
498,491,494,492,493
418,491,492,492,493
384,491,494,493,492
372,491,494,492,492
379,491,493,491,493
389,490,492,490,492
433,491,492,492,493
493,491,492,490,493
555,490,491,491,494
620,490,492,492,494
633,492,492,490,493
621,491,493,494,493
557,491,492,492,493
457,491,493,492,492
403,493,494,492,492
375,492,494,492,493
374,491,492,491,493
380,491,494,493,492
404,490,492,491,494
457,490,493,491,493
516,490,492,492,493
594,492,492,490,492
632,491,494,492,494
627,490,493,490,492
605,494,494,491,492
511,493,493,492,493
424,492,493,492,493
388,492,494,492,491
371,489,492,493,493
378,491,492,492,493
387,489,493,493,492
427,489,493,492,493
484,490,492,491,493
547,490,494,491,492
618,489,493,493,493
632,491,491,491,494
621,490,492,491,494
569,491,493,492,494
470,492,493,492,493
407,491,494,492,493
374,493,493,493,492
375,492,494,491,492
382,492,494,491,491
403,493,492,493,493
452,492,493,491,493
510,490,493,492,494
583,490,491,491,494
630,490,493,492,493
628,490,493,493,493
613,490,493,491,493
523,492,494,493,493
432,491,492,492,493
394,492,494,490,491
374,492,493,491,493
375,491,492,492,494
388,491,494,492,494
418,490,492,491,492
478,490,492,492,493
540,490,493,492,493
612,490,494,493,492
634,491,491,492,494
623,492,493,491,491
578,490,493,493,493
479,492,492,491,493
411,493,493,492,494
375,491,492,491,493
374,493,492,493,494
381,490,492,491,493
396,489,494,492,493
446,491,493,492,493
504,491,493,491,492
572,492,493,491,492
629,490,493,492,493
628,491,491,492,492
618,491,491,492,495
535,492,493,492,494
439,491,493,492,493
396,490,492,491,492
373,491,493,492,491
372,490,491,494,492
385,492,494,490,491
414,493,492,491,492
468,491,492,491,493
531,491,493,490,493
604,490,494,491,492
633,489,493,493,494
627,490,494,492,494
587,490,494,493,493
491,491,493,492,493
416,491,493,491,493
379,490,492,491,493
372,492,492,492,493
378,491,491,491,493
390,490,491,492,494
437,491,493,492,493
499,491,492,492,493
563,491,491,491,493
627,491,493,491,492
632,492,494,491,492
620,492,494,491,495
550,491,493,492,492
450,491,493,493,492
400,491,493,492,495
372,491,493,492,494
374,490,493,493,493
383,491,492,491,493
410,491,494,492,493
462,491,493,492,493
523,491,492,491,491
601,492,493,490,493
632,491,492,493,492
629,492,491,492,494
595,492,495,492,492
502,491,492,492,493
420,490,493,492,492
386,490,494,494,493
372,490,494,492,494
377,490,492,490,492
389,492,492,493,493
431,491,492,491,492
490,490,493,491,493
552,490,491,492,494
618,491,493,491,493
633,490,494,493,494
620,491,492,495,493
565,492,494,492,493
460,492,493,492,492
405,493,494,494,495
372,491,493,491,493
373,493,494,493,492
381,491,492,492,495
404,490,492,492,494
456,491,493,492,493
516,491,492,491,493
592,490,493,491,494
630,491,493,491,492
630,492,492,491,493
609,493,493,491,493
517,492,493,492,492
427,490,493,492,492
390,491,492,491,491
375,492,494,493,493
378,490,493,493,492
389,491,494,493,492
424,491,493,491,493
482,491,492,491,492
546,490,492,493,494
616,493,492,491,494
632,491,492,492,494
622,491,492,492,495
576,493,494,493,494
472,492,493,492,492
408,492,493,493,492
376,491,494,493,492
375,493,494,491,492
381,493,493,493,495
399,493,492,490,493
449,491,493,492,493
507,491,492,492,494
579,490,491,491,494
629,490,493,492,492
630,491,493,492,494
613,492,494,493,492
530,492,493,492,493
435,491,493,493,493
395,493,493,491,492
374,493,492,491,493
377,492,494,492,494
384,491,491,492,492
419,493,493,493,494
474,491,492,492,493
537,491,493,492,492
610,490,492,492,494
632,492,493,490,492
625,490,494,493,493
581,493,492,492,493
483,492,493,492,492
413,491,492,492,492
379,492,495,492,494
372,490,492,490,492
379,490,494,492,491
396,490,494,492,492
443,491,493,491,491
501,491,493,491,492
567,490,493,493,492
628,492,492,492,492
631,493,492,493,495
617,491,492,493,495
541,492,493,493,494
444,492,493,493,493
398,491,494,493,493
371,491,492,492,492
376,493,494,491,493
385,493,492,490,492
412,494,492,491,492
467,491,492,491,493
527,490,492,491,491
606,489,492,493,494
634,490,493,492,493
628,491,493,492,493
591,492,492,492,494
496,492,494,492,493
416,492,493,491,492
383,494,493,491,492
371,491,491,491,493
378,489,492,491,493
388,489,495,492,492
437,489,492,492,493
496,490,493,491,493
560,490,493,492,492
625,491,494,492,492
632,492,494,490,494
619,489,492,491,492
555,492,494,493,493
452,491,493,491,494
401,491,493,493,495
372,491,492,492,494
374,492,492,491,493
384,491,494,494,493
406,491,492,492,492
461,491,493,492,493
521,492,493,490,492
597,492,493,493,492
633,491,492,492,494
627,492,493,490,492
598,490,492,494,494
508,491,493,492,493
423,491,493,492,492
389,491,494,493,493
371,490,493,491,492
379,492,493,492,493
388,493,493,491,493
429,491,492,491,493
487,491,492,491,493
549,491,494,491,492
618,490,493,493,493
632,492,492,493,492
624,491,494,494,493
569,491,493,492,492
465,491,493,492,493
404,490,493,491,493
374,489,492,492,492
371,490,492,492,494
380,490,492,492,495
403,489,492,492,493
454,492,493,492,493
513,490,493,492,493
586,490,494,492,492
631,491,493,491,492
629,491,493,490,493
612,493,493,491,493
520,491,493,493,493
431,491,492,492,493
393,492,495,492,495
372,490,493,494,493
379,490,493,492,493
388,491,494,491,494
421,490,493,492,493
480,491,492,491,493
542,491,492,491,492
614,491,492,491,494
632,490,491,492,494
625,492,494,492,495
576,489,493,492,493
476,492,493,492,493
410,490,493,493,492
378,490,494,493,492
375,492,493,492,494
379,491,493,491,492
399,489,493,492,492
446,491,492,492,492
506,490,492,491,494
575,489,491,491,494
629,490,493,491,493
629,491,494,493,493
619,492,492,491,494
534,491,494,493,493
439,491,493,492,493
397,493,493,491,493
372,490,494,494,494
374,490,492,492,491
387,492,492,492,494
414,490,493,494,494
472,490,493,492,493
534,490,492,490,493
606,490,494,492,492
634,490,492,492,492
625,492,493,491,492
585,492,493,492,493
489,493,494,492,493
414,492,494,492,494
379,490,495,491,492
374,491,494,492,493
380,491,494,493,492
394,490,494,492,492
440,490,493,491,492
498,489,492,492,492
566,491,492,493,494
625,491,492,491,494
629,489,492,492,494
617,489,491,492,495
546,490,494,492,492
447,490,493,493,493
399,491,492,491,491
373,490,495,492,492
375,491,494,491,493
384,491,492,490,493
409,490,493,491,492
464,491,492,491,492
525,490,492,491,493
599,490,492,491,494
632,489,493,493,493
628,492,492,490,492
593,489,494,493,494
500,491,493,492,492
418,490,493,492,492
385,492,495,493,492
373,492,493,490,492
379,492,493,492,492
389,492,492,491,493
434,491,493,492,493
491,491,492,491,493
555,490,491,491,495
621,490,492,492,492
631,492,492,493,492
622,489,492,491,494
557,491,494,492,492
456,490,493,492,492
404,491,493,491,492
374,489,492,492,492
372,490,492,491,492
383,492,493,491,494
403,490,492,491,493
457,490,492,491,494
517,490,492,491,492
593,493,493,494,492
633,491,492,492,494
629,492,494,491,491
606,492,495,492,493
512,491,494,492,493
425,491,493,491,492
388,491,495,491,493
371,491,494,492,492
378,490,493,492,493
385,489,492,493,494
426,490,493,493,494
483,491,494,492,493
548,490,493,493,493
617,491,492,492,491
634,491,493,491,491
623,492,493,492,492
573,493,493,492,493
467,491,493,492,492
407,490,493,492,492
372,492,492,491,493
371,490,492,492,494
380,489,493,492,495
402,492,492,490,493
450,490,492,492,492
510,491,493,491,491
584,491,494,492,491
629,491,493,491,492
628,492,492,490,493
613,490,494,494,493
523,492,493,492,493
431,491,494,492,493
391,491,493,493,495
371,489,493,493,494
377,489,493,491,493
385,490,494,493,492
421,490,492,491,493
478,491,493,492,492
540,491,493,490,492
613,492,493,491,493
635,491,493,492,493
622,491,492,493,492
582,491,492,491,493
478,490,493,492,493
410,490,493,492,494
377,489,494,490,492
372,491,494,493,492
378,490,492,492,492
399,491,494,491,492
444,490,493,492,492
503,490,492,491,493
572,491,492,493,493
628,491,492,492,494
629,491,493,490,492
617,489,493,493,494
536,490,493,493,494
440,490,492,492,493
396,491,492,491,491
373,490,494,492,494
374,489,494,490,492
384,491,493,490,492
412,491,492,492,493
469,491,493,492,493
530,490,492,492,493
608,491,494,491,494
633,490,493,492,492
626,490,494,493,493
587,490,494,493,494
490,492,493,492,492
415,491,493,492,494
379,492,494,491,492
371,493,492,491,492
377,491,492,491,493
389,491,491,491,494
438,492,493,491,493
495,490,492,491,492
563,492,492,492,493
624,490,494,493,492
631,491,494,493,492
621,491,492,492,494
548,492,494,492,492
448,491,492,492,492
400,491,493,491,492
371,492,492,491,493
372,490,491,492,491
384,491,494,492,494
405,489,492,491,492
463,490,492,491,493
521,490,493,492,492
599,490,494,493,492
633,490,492,492,494
627,493,493,490,494
596,491,493,492,493
504,493,493,492,493
419,493,494,493,494
385,491,492,491,494
372,489,493,491,492
379,489,493,493,493
388,491,491,491,493
433,491,493,493,493
488,490,493,492,492
554,491,493,491,494
619,490,493,491,492
632,491,494,492,493
624,491,492,491,493
562,491,492,492,493
460,491,493,492,493
405,491,493,491,492
372,489,492,492,492
373,491,491,493,493
384,491,494,492,492
406,491,494,492,492
455,490,492,492,493
515,490,493,491,492
590,489,493,493,492
631,491,491,491,493
628,490,492,492,494
606,489,492,493,494
518,490,493,492,493
428,492,493,491,493
391,490,492,491,493
372,491,494,491,492
378,492,494,491,492
386,492,494,491,492
425,489,493,491,493
480,490,492,491,492
546,490,493,491,494
614,490,492,492,493
633,489,493,493,494
625,490,493,490,493
574,492,494,493,492
471,491,493,492,493
410,491,494,491,492
376,492,495,492,492
372,492,493,491,493
381,490,493,492,493
398,491,492,493,492
450,490,493,492,493
509,490,492,492,494
579,489,492,493,494
630,490,494,493,493
631,491,491,492,494
617,491,495,492,495
528,491,493,492,493
435,492,493,492,492
394,493,493,491,493
372,492,492,493,492
378,491,492,492,494
384,491,494,491,492
418,490,493,492,493
473,491,493,492,493
535,489,493,493,493
610,491,492,492,492
635,492,494,493,494
625,490,492,490,493
583,492,493,491,493
483,491,494,492,493
412,490,494,492,492
381,490,493,493,494
371,491,492,492,493
381,490,494,492,491
397,491,495,491,492
442,491,495,492,493
502,490,493,492,493
569,490,492,490,492
626,491,494,492,492
631,489,492,492,494
618,490,493,493,494
541,490,494,493,493
444,491,493,491,492
398,491,495,492,494
370,489,494,491,493
375,492,493,491,492
383,492,492,490,492
409,491,494,492,492
468,491,493,491,493
528,491,493,490,494
604,490,492,493,493
635,491,494,492,491
627,491,495,492,495
588,490,492,492,492
497,492,493,492,492
415,492,493,493,494
383,492,492,491,493
371,491,493,492,494
377,490,493,493,494
393,493,493,490,494
436,491,493,491,493
495,491,493,492,492
562,491,494,491,492
625,492,493,491,492
631,491,494,493,493
623,491,492,490,493
556,491,494,493,493
453,491,493,491,494
402,490,493,493,494
372,490,493,494,493
373,492,491,492,492
384,493,492,491,494
405,493,493,491,492
462,493,492,491,492
520,492,492,490,492
595,489,494,492,492
632,488,492,492,492
628,491,493,494,494
600,489,493,494,493
509,491,493,492,493
424,490,494,492,492
388,491,492,491,495
372,492,493,490,492
376,489,494,493,494
387,491,491,491,495
428,491,492,491,493
486,490,493,492,493
551,491,492,492,494
619,490,492,491,493
631,491,494,492,492
625,493,495,491,491
570,493,493,492,492
464,492,493,493,494
406,493,493,492,492
372,491,494,492,494
371,489,492,493,494
381,489,493,493,494
401,489,494,492,493
453,491,493,492,493
513,491,492,492,493
588,491,494,491,492
632,492,492,490,493
628,492,492,491,493
610,492,493,491,492
523,491,493,491,493
430,490,494,492,492
392,489,494,494,494
373,490,494,492,492
378,491,495,492,491
386,489,492,492,495
422,491,493,491,493
478,490,493,491,493
542,490,491,491,494
613,491,492,492,494
633,490,493,491,492
624,492,494,494,495
579,493,493,492,493
475,491,493,492,493
411,491,494,492,492
378,493,495,491,492
371,490,494,494,493
380,492,492,492,491
399,491,492,492,494
446,491,492,492,493
506,491,493,492,493
575,490,493,493,493
630,490,492,492,494
633,492,494,491,494
615,490,493,491,492
534,491,493,492,493
438,491,493,491,493
395,491,493,494,492
374,490,492,492,494
375,492,494,490,492
384,490,493,494,493
416,490,493,492,493
470,491,493,492,492
532,489,492,492,492
610,492,493,492,493
634,491,493,492,494
625,491,493,492,495
584,490,493,493,493
488,491,494,492,493
415,490,493,493,493
379,492,492,491,492
372,491,495,492,492
381,492,493,491,492
394,493,494,491,492
439,491,493,493,493
498,490,492,492,493
564,491,494,493,491
624,489,493,492,494
632,490,494,493,492
620,490,494,494,492
543,491,493,492,493
448,492,494,491,494
398,491,494,492,493
373,494,492,491,493
374,492,492,492,494
382,492,494,493,492
412,490,492,492,494
466,491,493,492,493
524,489,493,493,493
603,489,494,492,492
635,491,494,491,493
626,489,493,491,492
595,492,494,493,493
499,492,493,492,492
417,490,492,492,494
384,490,492,491,495
371,490,494,493,492
378,491,492,491,492
391,490,494,491,493
431,490,493,493,493
493,490,493,491,493
557,491,492,491,492
622,491,494,493,493
634,490,492,492,495
622,493,495,492,495
559,490,493,493,494
457,491,493,492,493
404,491,494,493,494
371,491,492,492,492
375,493,493,493,493
382,492,493,491,492
405,493,492,491,493
459,493,492,492,493
517,492,494,491,491
592,490,491,492,493
633,491,492,493,492
630,490,494,493,492
606,490,494,493,492
514,490,494,492,493
424,490,492,493,493
388,491,493,491,492
372,490,494,492,494
375,490,492,493,494
387,489,492,492,494
426,490,493,492,492
484,490,492,493,493
549,490,491,491,494
615,491,493,492,492
634,491,492,491,493
623,492,492,490,492
571,491,494,493,493
467,491,493,492,492
408,491,494,493,495
372,490,493,494,494
373,490,494,493,493
382,491,494,491,493
398,490,494,492,493
452,491,493,492,493
511,492,493,491,492
583,491,492,491,493
630,491,492,492,494
630,490,492,493,492
615,492,495,494,495
526,490,494,492,492
432,490,493,493,492
393,491,494,493,492
375,491,494,491,492
376,489,493,493,493
385,492,492,491,492
421,491,494,491,492
475,491,493,492,493
538,490,492,492,494
611,490,492,490,493
632,491,494,493,492
627,490,492,491,495
582,492,495,492,493
480,491,493,492,493
413,491,493,491,493
378,490,494,494,492
370,489,492,491,492
381,492,493,493,493
395,490,493,494,493
445,490,493,492,493
505,491,493,491,492
573,490,492,492,494
628,491,493,490,493
632,491,494,491,494
616,491,492,492,495
536,491,493,492,494
442,491,492,491,493
397,493,494,493,494
372,493,492,490,494
376,492,494,492,492
384,492,495,492,492
414,493,493,492,492
468,492,493,493,492
529,491,491,492,492
608,490,492,492,494
633,489,495,493,493
626,490,494,494,494
589,489,493,491,493
490,490,494,493,493
415,490,492,492,492
382,492,494,491,492
370,491,492,492,494
378,491,492,492,493
390,490,491,491,492
438,491,492,493,493
498,491,493,491,492
563,490,494,493,492
625,491,494,492,492
633,492,493,490,492
619,490,493,494,493
550,492,493,493,494
450,490,493,491,493
398,490,493,493,494
371,489,493,493,495
375,490,493,491,493
382,490,494,494,492
407,490,492,492,492
463,491,493,492,492
522,491,493,491,492
599,492,492,491,492
634,491,494,492,494
625,490,494,491,491
600,491,493,493,493
503,492,493,493,493
419,491,493,493,492
388,491,494,494,492
371,492,492,492,491
379,492,493,493,494
389,488,493,489,492
429,490,493,492,492
489,489,492,492,493
553,489,494,491,491
621,489,493,494,493
633,491,491,490,492
623,492,495,494,491
564,492,495,493,493
461,491,493,492,493
404,491,493,491,492
372,492,494,493,492
374,490,492,492,494
379,490,493,493,494
402,488,493,493,494
455,491,493,491,492
514,490,493,493,494
589,489,492,492,492
633,491,493,490,492
628,492,493,491,493
609,492,492,491,493
518,491,494,493,492
428,491,493,492,494
392,493,495,491,494
372,491,494,493,492
378,490,494,493,492
388,491,494,493,494
423,490,493,493,492
481,491,492,492,493
546,492,492,490,492
615,492,492,492,493
632,491,492,493,494
624,493,493,491,492
574,490,494,493,493
472,491,493,492,492
409,490,494,492,491
375,490,495,492,492
373,491,493,493,493
381,490,493,491,492
397,489,494,493,493
448,490,492,491,493
507,490,493,492,494
578,489,492,494,495
630,490,494,493,494
629,491,492,493,491
616,491,492,493,495
529,492,494,492,492
434,491,493,492,493
393,491,493,492,493
371,491,494,492,492
374,490,493,493,493
385,492,493,493,494
418,490,494,494,493
472,490,493,493,493
536,490,493,492,494
608,490,494,491,492
634,490,494,493,493
625,491,491,490,493
581,491,492,492,493
484,491,493,493,493
415,492,493,491,493
379,491,493,491,493
370,491,493,492,492
381,491,494,491,491
396,491,495,491,492
441,491,493,492,493
502,490,493,492,492
567,492,492,491,492
629,492,493,492,493
631,490,494,493,493
619,490,494,495,494
543,489,494,492,493
444,490,494,493,493
396,490,493,493,496
374,493,493,491,493
372,491,492,492,493
382,490,492,492,494
414,490,494,492,494
465,490,493,493,493
527,490,492,492,493
605,489,493,492,492
634,491,494,492,491
627,491,492,493,495
589,492,494,492,493
494,490,493,493,493
418,491,492,491,493
381,491,492,492,493
370,490,493,493,494
378,489,493,491,492
391,493,493,494,492
435,490,492,491,493
496,491,493,492,491
560,491,494,491,491
624,492,493,491,493
633,491,494,493,493
619,491,492,494,492
557,492,493,493,493
452,492,493,492,493
400,490,493,493,493
372,490,493,491,493
373,492,494,491,491
380,490,492,492,492
408,493,493,491,493
460,492,493,492,492
518,491,492,491,493
598,490,494,490,493
631,490,493,491,492
627,490,493,493,493
601,490,494,494,492
508,491,494,493,492
421,490,494,492,492
386,491,493,492,492
372,492,493,494,493
378,490,492,491,493
386,491,492,491,494
427,490,493,493,494
486,490,493,492,493
551,490,493,493,493
619,491,492,492,492
635,491,493,491,492
623,492,495,492,491
569,492,494,492,493
463,491,493,492,492
405,491,494,492,491
373,490,492,492,494
372,490,493,493,493
381,490,494,494,493
402,491,491,491,493
454,490,493,492,493
511,490,493,491,492
588,491,493,490,492
631,492,492,491,493
627,490,492,492,495
610,491,495,493,492
524,491,493,492,493
431,492,493,492,493
393,492,495,494,492
373,492,495,492,491
377,493,494,491,494
386,492,492,491,491
421,494,493,493,493
478,490,493,492,493
542,489,491,491,494
611,489,493,493,494
634,489,493,491,494
627,490,495,494,494
575,490,493,493,493
477,490,494,492,492
411,490,494,491,492
376,491,494,494,493
373,490,492,491,494
379,491,494,491,491
396,489,492,493,493
446,490,492,492,492
506,490,494,492,492
575,490,494,493,494
628,489,492,491,492
631,492,494,493,493
617,491,492,491,493
533,491,493,491,492
439,490,493,492,493
394,491,494,491,492
372,490,493,493,493
373,491,492,493,492
386,490,495,492,491
417,491,494,491,492
470,490,493,492,494
533,489,492,490,492
608,490,494,492,492
633,489,492,493,494
626,489,493,493,494
585,490,494,494,493
487,491,493,492,492
415,491,494,492,493
377,490,495,492,492
372,491,492,491,493
379,491,492,491,492
391,491,492,492,494
438,490,494,492,493
499,490,492,492,492
566,491,492,493,494
627,490,493,492,492
633,491,494,491,491
620,491,495,492,494
545,490,493,492,492
446,490,492,492,493
398,491,492,491,492
373,492,492,491,493
372,490,492,492,493
383,491,494,491,495
408,490,492,491,491
464,490,493,492,493
524,490,493,493,492
603,490,494,493,491
634,491,493,492,494
626,491,493,490,491
593,489,493,493,492
499,491,494,492,492
418,491,493,491,493
384,491,493,491,493
370,490,492,491,492
379,491,493,493,493
390,492,493,490,493
434,490,493,493,493
492,490,494,491,492
557,491,494,491,491
620,489,493,492,492
633,491,492,492,492
622,490,492,491,494
558,490,492,492,493
457,491,493,491,492
402,490,493,491,492
374,489,492,492,493
372,491,492,491,492
382,490,493,493,491
407,491,494,491,492
457,491,493,491,493
515,491,492,491,492
594,493,492,492,492
633,493,492,492,494
627,492,492,492,495
603,491,492,492,494
513,489,493,492,493
425,490,494,492,494
390,490,495,492,493
371,488,495,492,492
378,490,494,491,492
388,492,494,490,492
425,489,493,492,494
482,489,493,491,492
549,489,495,492,494
615,489,492,492,494
633,489,493,493,493
624,489,493,493,492
571,492,493,493,493
469,490,494,491,492
406,490,494,492,492
375,490,494,491,492
373,492,493,490,492
379,490,493,493,493
399,491,492,491,492
451,490,493,491,492
509,490,492,492,494
583,489,492,492,494
631,490,493,493,492
630,490,492,492,494
612,490,495,492,492
523,490,493,492,492
432,491,494,492,492
394,492,493,490,491
373,492,492,491,491
376,490,494,491,494
384,489,494,491,491
419,489,492,493,494
476,490,493,492,494
540,490,493,492,492
612,491,492,492,494
636,491,494,491,494
625,489,493,491,492
581,492,494,492,493
481,491,493,492,492
412,491,493,493,492
378,490,492,491,494
370,492,493,491,491
378,490,493,493,493
395,489,493,493,493
444,490,493,492,493
502,490,493,492,493
569,489,492,492,492
630,492,493,492,493
631,491,492,491,493
617,492,492,491,493
538,491,493,491,492
439,490,493,493,492
397,489,492,492,491
374,492,493,493,492
374,490,493,493,492
385,490,494,492,491
413,490,494,491,492
466,490,493,492,492
531,490,492,492,493
605,492,493,491,493
633,490,492,491,493
625,490,492,492,494
590,493,495,492,494
492,491,493,491,492
416,491,493,493,493
381,490,494,494,493
372,491,494,492,492
379,491,494,491,491
391,490,492,493,494
437,492,493,491,493
495,491,493,492,493
561,491,491,491,493
624,491,491,492,494
632,490,492,491,491
620,491,492,493,494
552,491,493,491,492
449,490,493,493,492
400,490,494,492,492
374,490,494,491,491
371,489,493,493,492
382,491,493,493,492
408,490,493,491,492
461,491,492,491,492
521,490,492,491,493
598,490,494,490,492
633,490,493,493,493
628,492,492,491,492
598,492,495,493,493
505,492,494,493,493
421,492,493,491,492
386,493,494,492,494
370,488,492,491,493
376,490,494,492,491
384,489,492,492,494
430,489,493,491,493
488,490,492,491,494
553,492,492,490,494
621,490,493,490,493
631,491,494,492,491
623,492,495,492,491
567,492,494,492,492
462,490,493,492,493
403,490,493,492,494
373,490,494,492,493
370,490,493,492,493
380,489,493,493,495
403,489,492,492,492
455,491,493,492,493
515,490,492,491,493
589,490,494,492,491
633,491,493,491,492
629,491,493,490,493
610,493,493,490,493
517,490,493,493,493
427,490,492,491,492
391,491,492,492,494
370,489,492,492,494
377,489,493,493,492
387,489,492,490,493
421,490,493,492,493
481,490,492,491,492
545,491,494,491,492
617,492,493,491,493
634,491,492,491,492
624,491,495,491,495
574,491,495,492,493
472,491,493,491,493
407,491,494,494,495
375,491,493,494,493
373,492,493,492,493
380,492,494,492,495
398,490,492,491,492
448,491,494,492,493
509,490,493,491,493
579,490,492,491,494
630,490,494,491,492
632,489,494,493,494
617,493,493,491,492
530,490,494,494,493
436,491,494,493,492
395,492,494,492,494
370,490,493,491,493
374,492,493,492,492
386,490,492,491,494
415,489,493,492,493
473,490,492,491,494
536,492,493,490,492
611,490,493,492,493
634,491,492,491,491
627,492,494,492,492
585,492,494,492,493
486,491,494,492,493
411,490,493,492,494
376,491,495,494,493
370,490,494,493,495
377,490,494,493,495
394,489,493,493,493
442,491,493,493,493
500,491,493,492,492
571,491,492,492,494
627,491,493,491,494
631,491,492,492,494
619,491,492,491,494
543,492,494,493,492
443,490,492,492,492
398,492,493,493,494
371,490,493,494,492
375,490,494,492,492
384,491,494,492,494
408,490,493,491,492
467,490,493,492,493
527,491,492,491,492
603,491,492,492,494
633,491,493,493,494
628,493,493,490,494
591,491,494,492,493
496,492,493,492,492
416,490,494,492,492
383,490,495,492,492
371,491,493,490,493
377,490,494,492,492
386,491,492,492,493
436,491,494,491,493
494,490,493,492,493
559,489,493,493,494
625,491,494,491,493
631,490,495,492,491
623,490,492,493,495
557,492,494,492,492
453,491,494,492,493
401,491,493,491,494
373,491,495,493,494
371,489,493,491,492
383,492,493,492,494
405,490,493,492,493
459,490,493,492,493
520,491,492,491,493
595,491,494,492,491
633,490,493,492,493
629,492,492,491,493
601,492,493,492,493
509,491,493,492,493
424,491,493,491,492
388,491,493,493,495
372,491,493,491,493
377,490,494,492,491
388,490,495,492,492
429,491,493,492,492
486,490,493,492,492
550,491,492,493,493
620,490,492,492,493
633,490,494,493,494
623,489,492,493,495
568,490,494,492,492
465,491,494,493,493
404,490,492,493,492
374,492,496,491,492
372,493,494,491,493
379,492,493,491,493
403,490,494,491,493
451,491,493,492,493
513,490,492,492,494
586,488,493,492,494
631,489,494,493,493
632,490,494,492,492
610,491,492,491,492
522,491,494,492,493
430,490,494,490,492
390,492,493,491,492
371,491,492,492,494
374,490,494,491,491
386,489,492,492,494
422,491,493,491,493
479,491,493,492,492
543,490,494,492,492
616,490,494,491,494
635,490,493,490,492
625,491,494,494,493
579,492,493,492,493
476,492,494,492,492
409,489,493,492,494
374,492,494,491,492
371,490,494,493,493
378,491,492,492,492
400,491,495,491,492
446,491,494,492,493
505,491,492,491,493
576,492,493,493,493
631,491,493,492,494
633,492,493,491,494
617,490,492,493,494
533,491,494,493,494
438,492,493,493,493
395,494,492,493,492
372,492,492,493,494
374,493,493,490,492
383,492,493,491,492
412,492,492,492,493
470,490,493,492,493
531,488,492,492,491
610,490,494,493,493
636,489,494,492,492
628,491,495,493,492
588,490,495,492,494
487,491,494,492,492
413,490,493,493,493
378,492,493,490,493
369,490,492,492,493
376,489,492,493,494
390,489,492,492,492
440,491,493,492,492
499,489,493,491,493
566,490,494,493,492
629,492,494,491,492
633,492,494,491,493
621,489,493,494,493
546,492,493,492,493
447,491,494,491,493
398,491,493,492,494
370,490,493,493,494
373,491,494,492,494
382,491,494,493,492
410,490,493,492,494
466,491,493,492,492
526,491,493,490,492
602,491,492,491,494
637,491,494,492,494
628,490,493,491,491
597,492,492,493,494
501,490,493,492,493
418,490,493,493,492
384,490,494,493,492
372,490,492,492,494
377,492,494,491,493
388,490,493,490,493
432,491,492,491,492
491,491,493,492,494
554,488,491,491,492
625,491,493,493,492
634,490,492,492,494
625,491,495,493,492
562,492,494,493,493
457,492,493,493,493
402,491,493,493,493
371,493,493,493,492
373,492,492,492,494
379,491,492,492,494
402,490,493,493,493
455,490,493,492,493
518,491,493,492,492
592,490,492,492,492
635,491,493,491,493
631,491,493,491,493
606,491,493,492,493
513,490,493,493,493
426,490,493,492,493
386,491,494,491,492
371,489,493,493,492
377,490,494,493,492
386,490,494,493,492
424,489,492,491,492
484,490,494,492,493
548,489,491,490,493
619,491,492,491,493
634,490,493,493,494
624,489,494,491,492
576,490,494,493,493
468,491,494,492,493
407,490,494,492,492
375,490,495,491,492
371,492,494,491,494
380,489,493,490,492
399,492,495,492,492
450,491,493,492,493
511,490,492,492,494
583,489,493,492,494
632,489,494,493,493
631,490,492,493,491
617,491,495,493,495
525,490,494,492,493
432,491,493,491,493
392,492,494,492,493
370,491,494,492,493
377,490,493,492,494
384,492,494,491,494
419,490,493,493,493
476,491,493,493,493
539,490,494,492,495
612,490,492,491,492
636,491,494,493,493
627,490,492,491,494
582,491,493,492,494
481,491,494,492,493
410,490,494,492,492
377,489,493,493,493
370,491,492,493,492
381,491,494,491,491
399,492,495,491,492
443,491,494,492,492
503,491,493,493,493
574,491,492,490,493
630,492,494,492,494
633,490,493,493,494
620,491,494,494,494
539,491,494,493,493
441,491,493,492,493
396,491,494,493,495
369,491,494,491,493
373,491,493,491,494
382,492,493,491,494
410,491,495,492,493
468,491,493,492,492
531,491,493,493,494
608,489,493,492,493
637,491,494,492,492
629,492,495,493,495
587,489,494,491,493
494,491,493,492,492
414,491,493,492,493
379,491,492,490,493
370,490,493,492,494
376,490,493,493,492
393,492,493,493,493
437,490,493,491,492
496,489,493,491,492
566,490,493,491,492
628,492,494,491,492
634,490,494,493,493
622,491,493,491,492
553,492,494,492,493
450,492,493,491,493
400,492,492,491,494
369,491,493,491,493
373,492,493,492,492
383,490,492,491,493
408,488,494,492,493
463,489,493,492,492
523,491,493,491,491
600,488,492,493,493
636,491,491,492,492
631,492,492,492,494
598,490,492,492,494
505,491,493,492,493
419,490,493,493,493
385,492,494,492,493
372,490,494,492,494
375,489,493,492,493
389,491,494,490,492
431,491,493,491,492
489,490,493,492,492
555,490,491,491,494
621,491,494,491,492
635,489,494,493,493
625,490,493,493,493
567,491,494,492,493
459,491,493,492,492
403,491,493,492,494
369,490,494,491,492
370,491,491,491,493
379,489,492,491,494
400,490,494,491,492
455,490,492,492,493
517,491,492,490,493
592,490,494,494,492
635,492,494,492,492
632,493,494,491,492
612,493,495,494,494
519,491,494,492,493
427,491,493,492,492
386,491,493,492,495
370,490,492,492,494
375,491,493,493,493
384,492,493,491,492
425,491,493,491,493
481,491,494,492,493
546,491,493,490,492
618,493,492,490,492
635,491,494,493,492
628,490,492,491,495
579,493,494,492,493
471,491,493,492,493
407,489,493,493,493
375,489,494,493,493
369,489,493,492,492
380,491,493,492,494
398,492,493,491,492
447,491,493,492,493
508,491,492,491,493
579,490,492,491,494
632,491,494,491,493
634,490,494,490,493
616,492,495,493,492
531,491,493,493,493
437,491,494,492,493
393,493,494,494,495
370,492,492,491,493
375,491,495,492,494
381,490,492,492,495
415,490,493,492,494
472,492,493,492,492
536,492,492,493,493
614,491,491,491,494
635,493,494,491,492
629,492,493,491,492
586,492,493,491,493
486,489,494,492,493
411,489,492,492,492
378,490,495,491,494
368,489,493,493,493
377,489,493,493,493
393,489,495,492,492
440,490,494,491,493
501,490,493,491,492
569,489,493,492,492
629,491,492,491,494
633,490,492,492,494
621,490,492,491,492
545,491,494,492,494
445,490,493,491,492
396,490,494,493,492
370,489,494,492,492
373,491,494,491,492
381,490,493,493,494
408,491,492,492,493
466,491,494,492,493
526,490,493,492,494
604,489,492,493,494
637,490,494,490,493
628,491,494,493,493
595,491,492,492,494
497,491,494,492,492
416,491,494,493,493
382,493,494,491,492
369,492,492,491,492
377,491,495,492,494
386,490,495,491,492
435,491,493,492,493
494,490,493,493,493
561,490,493,493,492
627,491,492,492,493
636,493,493,491,493
624,490,492,490,492
556,490,493,492,493
454,490,493,491,493
400,490,493,491,491
371,490,492,492,494
371,491,492,490,492
380,491,493,493,491
405,491,494,492,492
459,491,493,491,492
518,489,493,492,492
597,492,493,493,493
637,491,492,492,494
629,490,493,493,495
601,490,493,494,494
511,490,493,492,493
424,492,493,492,493
386,490,495,494,494
369,490,492,491,492
375,492,493,492,493
385,492,493,491,493
427,491,493,492,493
486,491,493,492,494
551,491,494,491,492
620,489,493,493,492
636,490,494,493,492
627,491,495,492,493
568,491,493,492,492
465,490,494,492,494
404,490,493,491,492
369,492,493,492,493
369,490,492,492,494
378,490,494,491,491
402,489,493,493,493
453,491,493,492,493
513,491,494,492,491
589,490,495,493,492
634,491,494,491,493
633,491,493,493,493
613,490,493,492,494
522,491,494,493,493
430,491,493,492,493
388,490,493,492,495
370,490,493,493,493
373,492,493,492,492
385,492,494,491,494
419,491,494,491,492
478,490,493,492,492
542,490,493,491,492
616,491,494,492,492
637,490,492,493,494
628,492,494,492,494
579,491,494,493,493
475,491,493,493,492
410,491,494,493,494
373,491,492,493,492
371,491,493,494,494
379,491,492,491,492
395,492,492,491,493
444,490,493,492,493
505,491,493,492,494
578,491,494,491,494
632,489,493,491,494
633,491,494,492,492
620,491,495,493,492
536,492,494,493,493
437,491,492,492,493
392,492,493,491,492
370,490,494,492,494
370,490,492,491,493
380,490,492,492,495
412,490,493,492,492
471,491,493,492,493
533,492,492,491,494
609,492,495,492,491
636,491,494,491,493
627,491,492,491,493
588,490,495,493,493
487,491,494,492,493
413,491,494,493,495
377,490,493,492,494
369,489,494,493,493
377,490,494,493,493
393,490,492,491,494
435,491,494,492,493
500,490,492,491,492
566,491,492,490,493
627,490,492,493,494
634,489,493,493,492
623,493,494,493,494
548,490,493,492,493
448,491,493,492,492
397,491,494,492,492
371,491,494,491,493
372,490,493,493,493
379,491,492,491,492
409,490,494,491,494
462,491,493,490,493
523,490,493,492,494
602,489,492,490,493
635,491,494,492,492
631,490,492,493,495
599,492,494,491,492
501,492,494,492,492
417,491,494,492,494
382,492,493,491,493
371,492,495,492,494
374,490,494,491,493
388,490,493,493,493
432,491,493,493,493
491,491,494,492,493
558,490,491,491,494
625,492,493,490,493
636,491,494,491,493
623,491,492,491,494
560,491,493,492,493
457,491,493,491,492
403,491,494,493,494
369,491,493,491,494
373,490,494,492,491
380,491,494,492,491
404,491,493,492,492
456,490,493,492,492
517,491,492,492,492
596,489,491,491,494
634,490,493,492,493
630,490,493,493,493
607,489,493,494,493
515,492,493,491,492
424,491,494,492,493
386,491,492,491,491
371,492,493,490,493
373,490,492,492,494
384,490,491,492,492
426,491,492,492,494
483,490,493,492,493
550,490,493,492,493
620,490,494,492,492
636,491,494,492,493
626,489,492,492,492
574,493,493,493,493
467,491,493,491,492
405,491,492,492,494
370,491,492,492,494
369,489,493,491,492
379,491,494,493,492
397,492,492,491,492
451,492,493,491,493
512,492,493,491,492
584,493,493,490,492
632,493,492,492,492
634,492,492,492,494
613,491,495,492,492
526,491,493,491,492
431,491,493,492,492
391,490,494,493,493
369,490,492,491,491
374,492,494,492,494
382,489,493,490,492
417,492,493,491,492
474,491,493,491,493
537,490,494,491,492
615,490,492,492,493
636,491,493,491,493
629,491,494,494,493
584,491,495,493,493
480,491,494,492,493
409,490,492,491,493
375,493,493,494,493
370,490,492,491,494
376,490,492,491,494
392,490,492,492,494
442,490,492,492,493
504,492,493,491,492
574,490,494,491,494
630,489,494,491,492
635,492,493,490,492
620,493,494,491,493
539,491,493,493,493
441,491,493,490,493
