Sensor0,Sensor1,Sensor2,Sensor3,Sensor4

4,492,493,491,494
522,491,494,493,493
432,490,492,491,491
396,491,494,493,494
3,626,491,492,490
493,608,492,493,491
494,522,491,494,493
493,432,490,492,491
491,396,491,494,493
494,374,490,493,493
493,380,490,493,492
491,389,490,494,491
494,421,490,494,492
492,478,490,493,491
493,540,490,493,491
492,611,492,493,491
492,630,491,492,491
493,619,491,492,491
493,579,490,495,492
493,478,491,493,492
492,412,490,492,492
494,379,490,492,491
494,374,489,493,493
493,383,491,492,491
493,401,490,494,493
494,445,490,493,492
493,505,490,493,491
492,572,492,494,491
492,625,491,493,493
493,628,490,492,491
494,612,491,495,493
491,532,489,493,492
493,440,490,493,492
492,398,490,493,493
493,376,492,493,491
492,379,491,494,491
493,385,490,494,491
491,417,491,493,491
494,472,491,493,491
492,530,490,493,490
492,603,489,493,493
492,629,490,492,492
492,623,491,494,494
495,583,489,492,493
494,491,491,493,491
493,416,490,493,492
493,383,491,494,493
492,376,490,492,493
494,382,490,493,491
492,396,492,493,490
492,440,492,494,491
492,496,490,493,492
493,561,490,492,492
491,624,491,492,492
493,628,489,493,492
493,617,491,494,494
493,548,490,494,492
493,450,491,493,492
493,401,490,493,492
492,376,491,494,491
492,377,491,493,490
492,385,491,492,490
492,409,490,492,493
493,464,490,493,491
493,521,491,493,491
492,597,489,492,493
493,631,490,493,492
492,624,491,495,492
492,591,491,492,491
493,503,491,495,492
493,420,490,494,491
492,388,492,493,490
492,375,491,492,491
493,379,490,494,492
491,393,490,491,491
495,434,492,494,492
494,489,490,493,492
493,553,490,493,493
493,618,489,494,492
493,627,490,492,492
493,620,492,492,492
494,559,492,494,492
493,461,491,493,492
492,407,491,492,490
492,375,492,492,491
493,376,491,493,492
494,384,489,493,490
491,407,492,493,494
494,457,491,492,492
493,515,490,494,493
493,588,490,492,492
494,627,491,493,491
492,625,489,493,493
493,602,492,492,492
494,516,492,494,492
493,428,491,493,492
492,393,491,495,492
494,374,490,494,490
492,379,490,493,493
493,391,489,494,494
493,429,491,494,492
493,482,491,493,492
493,546,491,494,491
494,613,489,493,491
493,629,491,492,492
494,619,490,492,491
495,571,491,493,493
493,472,490,494,493
492,412,490,493,493
493,377,492,492,491
492,376,491,494,491
492,384,492,494,491
491,404,492,494,491
494,449,491,494,493
494,509,492,494,493
491,579,490,492,493
495,626,490,493,493
493,627,490,494,493
492,612,493,493,492
495,529,491,494,493
493,436,491,493,492
492,396,492,494,491
492,376,492,492,491
493,377,491,492,493
491,388,491,492,491
495,419,492,494,492
493,474,491,493,493
494,535,490,493,493
493,608,490,493,492
492,630,491,494,491
494,620,489,493,492
492,582,493,493,493
493,482,492,494,492
493,414,491,493,492
494,381,491,492,491
493,374,492,494,491
492,383,490,494,492
493,398,492,492,492
492,445,491,494,493
493,502,491,494,491
493,568,492,494,493
494,623,490,493,491
493,626,491,494,491
492,613,491,493,493
495,540,490,494,492
494,446,491,493,492
492,400,491,493,492
493,376,490,495,492
494,376,490,494,491
492,386,491,494,491
493,414,492,493,492
494,469,491,493,492
493,525,491,494,492
492,600,490,492,492
492,632,491,493,493
493,623,490,494,493
494,589,489,494,493
493,497,490,494,492
493,417,491,494,491
492,387,490,492,492
494,373,492,493,492
493,380,491,492,492
493,392,490,491,491
494,437,492,494,492
493,495,490,493,491
493,558,492,494,493
492,621,491,494,492
492,630,491,494,491
493,618,493,493,493
494,553,492,494,493
493,455,490,493,492
492,402,490,493,491
494,373,490,492,492
494,377,489,493,492
493,387,490,494,490
492,408,491,495,492
493,462,490,493,491
493,520,491,494,491
492,594,491,493,490
494,629,491,492,491
493,626,491,495,492
495,596,490,493,491
493,510,492,494,492
493,423,490,493,493
493,392,490,495,493
493,377,491,493,491
493,378,491,494,491
493,391,489,493,493
493,430,492,494,491
493,487,490,493,491
494,549,489,492,492
492,618,492,494,493
493,630,490,492,491
494,619,491,495,493
492,567,492,495,493
493,466,491,494,492
492,409,492,493,490
492,375,489,493,493
493,374,490,492,491
492,385,491,493,492
494,402,489,493,493
494,454,490,492,492
493,512,490,492,491
493,582,490,495,492
492,628,490,493,492
492,626,492,493,490
494,608,492,494,491
494,522,491,493,491
492,432,490,494,492
493,394,490,494,491
492,377,490,494,492
492,380,490,494,493
492,390,491,495,493
491,425,491,493,492
494,479,491,493,492
494,540,490,493,490
493,610,491,493,491
493,628,490,493,493
494,620,489,493,493
495,576,490,494,491
493,477,491,494,493
493,413,491,493,491
491,380,490,495,492
492,375,491,493,490
492,384,491,493,490
492,400,490,494,491
493,447,491,494,492
493,506,491,493,492
494,571,490,493,493
494,626,490,493,492
493,628,491,492,492
494,613,491,495,493
495,532,491,494,491
493,438,491,494,491
492,397,490,493,491
492,374,491,492,492
491,379,492,493,492
493,386,491,494,491
492,418,491,494,493
493,471,491,493,493
493,531,490,494,492
492,606,491,494,491
493,629,490,494,491
494,621,491,495,493
493,585,491,493,492
493,488,491,494,492
493,415,490,493,492
494,384,492,494,490
492,375,490,494,492
494,380,490,492,491
491,397,491,494,490
492,440,491,494,492
493,499,491,493,491
492,563,490,492,491
494,620,491,493,491
492,628,490,493,492
493,616,490,495,494
494,546,491,494,493
493,449,491,493,491
492,401,491,494,493
495,373,489,493,490
493,376,491,492,491
493,384,490,492,491
494,410,491,493,492
495,464,491,493,492
492,522,490,493,493
493,599,492,492,492
492,631,491,494,492
492,624,491,495,492
492,594,493,494,494
494,502,491,494,493
493,420,489,493,492
492,386,490,492,491
494,373,490,493,493
493,380,491,493,493
493,391,492,492,490
492,435,491,495,492
494,491,491,494,491
492,555,492,494,491
492,619,491,493,491
493,628,490,494,492
493,620,490,492,492
495,561,492,494,492
494,458,491,493,492
493,406,490,494,493
492,375,490,494,493
492,377,491,494,491
493,384,490,494,491
492,407,490,494,494
494,459,492,493,492
492,515,491,492,492
494,587,490,491,492
494,630,492,493,490
493,625,490,494,491
494,602,492,494,494
493,516,492,494,493
493,427,491,494,491
492,393,492,493,492
494,375,492,493,491
493,380,490,494,492
494,389,490,492,491
494,426,491,494,494
494,484,491,493,493
493,545,492,492,492
492,615,491,492,492
494,630,492,494,491
492,621,493,494,490
492,571,492,493,492
493,471,491,493,492
492,411,491,494,491
494,376,491,492,491
492,376,492,493,494
493,385,491,494,492
492,403,490,495,493
493,451,491,493,491
493,509,491,494,491
492,578,489,493,493
493,627,491,492,491
494,625,490,492,492
495,610,490,493,493
493,529,492,494,492
493,435,490,493,491
492,396,490,494,493
492,377,491,494,491
492,379,491,494,491
492,388,489,491,493
494,421,492,493,492
494,475,491,493,492
494,537,490,492,491
494,607,490,493,493
494,630,490,494,493
493,623,490,491,490
494,578,491,495,492
492,481,490,493,492
492,415,491,493,491
492,381,492,494,491
493,374,491,492,491
492,384,491,494,492
494,396,489,495,492
493,446,490,493,492
493,503,490,493,492
492,568,490,494,493
492,624,490,492,492
494,628,492,493,490
493,615,490,494,491
494,538,491,493,492
493,444,491,493,491
493,398,490,493,491
492,377,492,493,493
493,378,491,492,491
493,387,491,494,492
492,416,491,495,492
493,468,490,494,492
492,526,491,493,491
494,602,490,493,491
493,628,490,494,492
492,624,490,493,493
495,586,491,493,493
494,494,491,493,493
493,418,491,492,491
493,386,491,495,492
494,372,489,493,491
493,383,492,493,491
493,393,492,493,490
493,437,492,493,492
493,496,491,493,491
494,558,492,494,491
492,621,490,493,492
493,629,491,494,492
491,618,492,495,493
492,550,490,493,492
493,454,491,493,492
493,402,490,493,491
493,375,492,492,491
493,375,490,492,491
493,384,489,493,492
495,408,492,493,492
493,463,490,494,491
493,518,490,492,491
492,597,491,494,491
492,630,491,493,490
493,623,492,492,493
493,598,490,493,491
493,506,491,495,492
492,422,490,492,492
493,390,490,493,492
494,374,490,494,493
492,379,491,492,492
491,393,491,495,492
494,429,490,494,492
493,489,491,493,491
493,549,492,491,490
493,614,491,493,492
492,631,489,493,492
494,618,492,494,491
494,565,490,494,493
493,464,490,493,492
492,408,491,494,492
491,376,491,495,492
494,376,489,492,490
492,382,491,494,493
491,403,490,492,492
494,454,491,492,491
493,512,490,493,493
493,585,492,492,490
493,629,491,494,492
493,624,489,494,490
492,609,493,494,491
492,520,492,494,492
492,430,492,493,493
492,395,491,492,490
493,376,491,494,490
494,379,490,493,492
493,390,490,493,493
492,425,490,494,493
493,479,491,493,492
493,542,492,492,492
494,610,492,493,491
493,629,490,492,491
494,619,490,493,491
494,573,491,493,492
494,477,491,493,491
493,412,490,493,492
492,377,492,494,493
491,377,491,494,491
491,384,492,493,490
491,401,492,493,494
494,448,492,492,491
492,505,490,493,492
494,572,489,492,492
494,626,489,493,492
492,627,491,494,493
493,611,492,492,493
492,533,491,493,491
493,438,491,493,492
492,398,491,493,490
492,375,492,492,490
493,376,491,494,492
492,386,490,491,491
491,418,492,493,493
493,472,491,493,492
494,533,490,493,492
492,607,491,495,491
491,629,491,493,492
494,622,492,493,491
492,582,490,495,494
494,486,491,493,492
493,416,491,493,491
493,382,490,492,492
492,374,491,492,493
492,383,491,492,491
493,393,490,494,492
493,442,491,493,492
493,500,491,493,491
492,562,489,494,493
493,622,490,492,491
491,628,492,494,492
494,615,489,493,494
494,545,490,493,492
493,447,491,493,491
492,400,490,494,492
491,377,490,493,492
493,375,491,493,491
493,385,490,491,490
493,410,490,492,491
493,465,491,493,492
493,524,491,493,492
494,599,490,493,490
493,630,490,494,492
492,625,491,494,492
492,593,492,495,491
492,501,491,494,493
493,421,491,492,491
492,387,490,494,491
492,372,489,492,492
494,380,490,493,492
493,392,489,493,491
493,434,491,494,492
493,493,491,493,491
493,555,491,494,491
492,620,491,493,491
493,628,491,492,490
493,618,492,495,494
495,556,490,493,492
492,458,491,493,491
493,404,489,493,493
493,375,489,493,492
492,377,491,494,492
491,384,490,493,492
494,409,492,493,491
494,457,490,494,492
492,516,490,492,491
494,589,491,492,491
494,627,490,493,491
492,625,491,494,494
493,602,493,493,490
493,512,490,494,493
493,427,490,494,491
492,393,492,494,491
491,374,490,494,493
494,379,491,492,492
491,391,491,492,492
495,427,490,493,492
495,485,490,492,492
494,546,490,493,491
493,613,490,494,491
492,629,490,493,493
492,620,491,494,491
493,570,492,493,492
493,470,491,493,491
492,410,491,493,492
492,378,490,492,492
494,375,491,493,490
492,383,490,494,494
493,404,489,494,492
493,453,491,494,491
492,507,490,493,492
493,580,491,493,493
493,628,490,492,491
493,624,490,491,492
494,609,490,493,493
495,526,490,494,492
492,435,490,493,493
493,396,491,492,491
492,376,490,494,491
492,379,491,494,491
493,388,492,493,490
493,421,490,494,493
493,477,490,493,492
492,538,490,492,492
494,607,489,492,493
493,631,490,493,492
492,622,491,495,494
492,576,491,493,492
493,481,491,494,492
493,413,491,493,491
493,379,492,493,490
493,373,490,491,492
493,383,489,494,491
491,400,489,492,493
494,446,492,494,492
493,504,490,494,492
492,570,491,494,492
492,625,492,493,490
493,627,489,494,491
494,612,492,494,493
493,539,491,493,491
493,442,490,493,492
493,399,490,493,493
494,375,493,493,490
493,377,491,494,492
494,386,489,492,491
491,416,492,495,492
493,469,490,493,491
493,528,490,492,490
493,601,491,494,491
491,631,490,493,492
494,623,492,492,490
493,585,490,494,493
492,493,490,493,492
492,418,490,493,491
493,383,490,492,492
491,374,491,493,492
492,382,492,493,492
493,392,490,492,492
494,438,491,494,492
493,497,492,494,491
492,559,490,493,493
493,622,491,492,491
491,628,492,494,491
492,617,492,495,491
492,551,493,494,493
493,452,492,494,492
492,402,491,494,492
492,373,491,493,492
493,377,490,493,492
493,386,490,493,493
492,411,491,494,491
493,461,492,494,492
493,520,492,492,492
493,595,493,494,491
493,628,491,492,491
494,622,490,493,493
494,595,493,496,491
492,504,491,493,492
493,424,492,493,492
491,389,491,495,493
492,374,491,494,491
491,381,492,494,492
494,390,489,493,491
492,431,491,494,493
493,489,491,493,491
493,548,490,492,492
494,615,489,493,492
493,629,491,492,490
492,619,492,495,492
494,562,491,495,492
492,462,491,494,492
492,407,491,493,492
492,376,493,493,491
493,376,491,494,492
491,383,489,492,492
491,408,492,494,491
493,455,491,494,492
493,512,490,494,492
493,586,490,494,491
493,627,490,494,492
492,625,489,493,493
494,605,493,493,491
493,517,491,494,491
493,430,491,493,492
493,395,492,494,491
494,373,489,494,491
493,379,491,494,492
492,390,491,495,492
491,425,491,495,493
493,481,491,493,491
493,542,491,492,490
493,613,489,493,492
494,629,490,493,492
493,619,490,494,493
495,573,489,494,493
494,475,491,494,492
492,411,491,494,492
491,380,490,492,491
494,376,492,493,491
492,382,491,493,491
492,401,491,492,490
494,450,491,494,492
493,506,490,493,492
492,577,492,492,493
494,626,490,494,492
491,627,490,495,492
492,614,492,493,492
495,529,492,495,492
493,436,490,493,493
493,395,491,492,490
493,372,490,492,491
494,376,489,492,492
492,388,491,493,493
493,418,490,493,492
493,473,490,493,492
492,534,491,494,491
491,607,491,494,491
492,630,491,492,491
493,624,491,495,493
494,579,491,493,492
492,487,492,493,491
493,414,490,493,492
493,382,489,493,494
492,376,490,492,490
494,380,491,494,491
491,395,488,492,492
492,443,492,494,491
493,499,491,493,491
493,563,490,492,491
493,627,492,494,492
493,627,490,492,490
493,614,490,495,494
493,543,491,495,492
492,446,491,494,492
492,401,490,493,492
495,375,493,493,490
492,377,490,494,491
493,384,490,492,490
494,410,490,493,492
494,465,490,493,492
494,525,490,492,490
493,599,490,494,492
492,629,489,492,492
492,624,492,493,490
491,590,493,494,492
494,498,491,493,492
493,421,490,494,491
493,385,490,495,491
492,375,489,493,493
492,382,490,494,492
492,393,490,495,493
492,436,491,493,491
493,493,491,494,491
494,555,489,493,490
493,620,491,492,491
493,627,490,492,492
494,616,489,492,491
492,559,492,493,491
493,455,490,494,492
492,405,490,494,492
492,377,490,495,491
491,376,491,494,491
492,385,491,493,490
494,407,490,494,491
493,458,491,493,492
493,518,490,493,491
494,590,490,493,492
492,629,490,494,493
493,626,490,491,490
494,601,491,495,493
494,510,490,493,492
493,426,491,492,490
492,391,492,493,491
491,375,490,492,492
492,382,491,492,491
493,389,491,494,491
492,429,490,494,492
494,485,491,493,492
492,546,490,494,492
492,612,490,492,492
492,630,491,493,492
493,619,490,493,490
493,567,493,493,492
493,468,491,494,491
493,408,490,493,492
495,376,491,494,490
492,376,490,494,493
493,383,491,492,492
492,406,491,495,492
493,453,491,494,492
493,510,491,493,493
494,581,490,492,490
492,625,490,494,492
492,625,490,493,492
494,608,490,493,493
494,523,491,493,493
493,434,491,493,491
492,396,491,495,491
493,373,489,493,491
492,380,491,493,490
492,388,491,492,490
492,421,491,494,493
494,478,490,493,491
493,539,491,494,490
494,610,489,493,492
493,631,491,494,492
492,622,492,495,493
492,579,491,495,492
494,479,491,493,491
492,413,490,494,493
493,378,491,492,490
492,373,490,492,491
494,381,489,493,492
494,400,492,494,492
493,447,491,493,491
493,503,491,493,492
493,572,491,494,491
491,625,491,493,490
492,625,491,493,493
493,615,492,492,491
493,536,490,495,493
494,440,490,492,491
493,399,490,493,493
494,373,489,493,493
493,376,490,492,492
491,388,491,492,491
494,413,492,494,492
493,471,491,493,491
493,529,491,492,490
493,602,491,493,492
494,631,491,494,491
494,622,490,494,490
492,585,492,494,494
493,492,490,494,492
492,417,490,494,492
491,385,491,492,491
494,373,491,493,490
492,381,490,494,493
493,393,491,492,491
494,438,491,493,491
493,497,490,493,492
492,561,492,493,492
493,622,490,492,491
493,627,491,494,492
491,617,492,495,491
492,550,492,494,491
492,450,490,493,492
493,402,491,492,491
491,376,490,494,492
494,375,489,493,492
493,386,489,493,492
493,410,489,494,493
493,462,490,493,492
493,520,491,494,491
492,594,489,493,492
493,629,491,492,491
493,623,490,492,491
494,592,491,493,492
492,506,491,495,491
493,421,490,494,491
492,388,489,494,494
492,376,490,494,491
491,382,491,494,491
491,392,488,492,494
494,433,492,493,491
493,488,491,493,491
493,551,489,492,491
494,616,490,493,492
493,629,490,494,492
494,618,491,494,494
493,563,492,493,492
492,461,491,494,492
492,408,491,493,491
492,377,492,494,491
492,375,491,493,491
492,385,491,494,491
493,404,490,494,492
492,457,491,493,492
493,514,490,493,492
492,588,490,494,493
491,628,490,492,492
494,627,492,494,490
493,603,490,493,491
493,516,491,494,492
493,431,491,493,491
493,393,490,493,492
492,377,491,493,493
493,381,492,492,491
492,389,489,494,493
492,428,490,494,492
493,482,491,494,491
492,542,490,493,494
492,613,492,492,492
492,630,491,492,492
494,618,489,492,492
495,572,490,493,492
493,473,491,493,492
493,411,491,493,491
493,380,490,494,493
493,373,490,493,491
491,385,491,493,491
491,403,492,493,491
493,450,492,493,492
492,507,490,493,491
494,575,491,494,491
491,626,489,493,493
493,627,490,494,493
492,614,491,495,493
491,526,490,494,491
492,437,490,493,491
493,396,490,493,490
491,374,491,492,491
493,377,490,492,491
493,387,490,495,491
491,419,489,493,492
494,476,491,493,490
493,534,490,494,492
492,608,490,494,491
492,631,491,493,490
492,621,492,493,494
493,580,490,493,491
493,485,491,494,492
492,413,490,493,492
494,381,489,492,491
493,375,490,494,492
492,380,491,492,491
491,399,491,495,492
494,442,491,495,492
493,501,491,493,491
492,566,492,492,490
492,623,491,494,492
491,628,489,493,493
494,616,492,494,490
494,540,490,493,493
493,445,491,493,492
493,401,490,494,492
492,372,491,492,492
492,378,491,492,492
493,386,491,492,490
492,411,491,492,492
494,467,490,493,492
493,525,490,493,492
494,602,491,495,491
493,631,490,493,490
493,621,490,495,493
492,590,490,495,492
492,498,491,494,491
492,419,491,493,492
493,385,492,493,491
492,374,490,494,491
493,378,489,493,492
493,391,488,492,493
494,437,491,494,492
492,492,491,493,492
493,558,490,492,491
494,619,491,494,490
492,627,491,492,491
493,616,491,493,490
493,554,491,495,493
493,455,491,493,491
493,405,491,493,492
494,373,489,493,493
493,377,489,494,492
492,386,491,493,492
492,409,491,492,492
494,459,491,494,492
493,517,491,493,493
493,592,491,493,491
494,628,490,492,492
494,624,489,492,492
492,600,493,495,494
494,511,490,494,491
492,424,490,493,492
491,391,491,495,492
492,376,491,494,490
492,381,490,494,492
492,389,492,492,490
493,430,491,494,491
493,486,491,493,491
494,547,489,492,492
494,615,490,493,490
493,628,490,494,493
492,620,489,492,491
494,568,492,494,491
492,466,491,493,492
492,409,491,493,491
493,376,492,493,491
491,376,491,494,492
494,383,489,493,490
491,405,489,493,492
493,453,490,493,492
494,512,490,493,492
492,583,490,492,491
494,628,491,492,490
493,626,490,494,491
494,607,492,493,492
494,522,491,493,491
493,433,491,492,491
491,395,492,493,493
494,375,491,492,490
493,380,490,494,492
492,389,490,495,493
492,424,492,494,493
493,477,490,493,492
492,538,491,492,493
493,611,490,492,491
493,628,490,492,492
494,619,489,493,493
496,576,490,493,493
493,479,492,494,491
492,412,490,493,492
494,378,490,492,491
492,375,491,493,491
492,383,491,493,491
493,400,492,492,492
492,447,491,493,492
493,504,491,493,491
492,572,489,493,492
494,626,490,494,493
492,628,491,495,493
492,611,491,492,492
492,535,491,494,493
494,440,491,494,491
492,397,491,493,491
493,373,491,492,492
494,377,489,494,491
492,387,489,492,493
493,417,491,493,491
493,472,490,493,493
493,531,490,494,492
491,606,490,494,490
492,630,491,493,492
492,622,490,492,492
493,583,490,495,492
492,488,491,494,492
493,416,489,493,492
493,383,489,492,492
494,374,491,492,490
491,382,490,494,491
492,393,489,495,490
492,441,491,495,493
493,497,491,494,491
493,561,491,494,493
492,622,490,492,492
493,629,491,493,490
493,616,490,494,493
494,547,490,494,494
493,450,491,494,493
492,401,490,492,492
491,376,491,493,492
493,377,492,492,490
492,384,490,492,490
493,408,491,493,492
494,464,491,493,491
494,522,491,494,490
494,597,489,493,491
493,630,491,494,492
492,625,492,495,491
492,594,491,495,492
493,504,491,493,491
493,420,491,493,491
492,389,490,494,493
493,373,490,492,492
493,379,489,493,493
493,391,489,492,493
493,433,492,493,493
493,490,490,493,491
494,552,491,494,490
492,619,491,493,491
493,628,491,492,491
494,617,492,494,493
492,558,490,493,492
493,460,490,493,491
493,406,490,493,493
493,374,489,493,493
492,376,490,494,493
492,386,491,492,492
494,404,492,494,493
493,457,490,492,492
492,516,491,492,491
493,586,491,492,491
494,627,490,492,491
492,626,491,493,493
493,603,490,494,492
493,515,491,493,493
493,428,490,494,492
492,393,491,494,492
491,377,490,493,492
493,378,491,492,491
492,390,489,494,491
494,426,491,493,491
494,481,491,493,492
493,542,490,492,491
492,613,492,494,492
492,630,490,492,492
494,621,492,494,491
492,573,493,495,491
492,471,491,493,492
492,410,491,492,490
492,379,489,494,491
493,373,489,493,491
492,383,490,493,492
494,402,490,494,494
493,450,490,494,492
493,508,491,492,491
494,578,491,494,491
495,626,489,493,491
493,625,491,492,491
493,609,491,492,491
494,526,491,493,493
493,437,491,493,491
493,396,492,493,491
492,376,490,493,492
492,380,491,494,492
491,388,491,494,491
491,419,490,493,492
493,476,491,493,493
493,535,490,492,491
494,607,491,492,492
494,629,490,493,493
494,621,490,494,494
495,580,493,493,491
493,482,491,493,492
493,414,491,492,491
491,383,492,494,491
491,374,492,492,490
493,382,491,492,492
492,399,490,492,491
494,442,492,494,492
493,503,490,493,492
493,567,490,493,492
493,624,490,494,492
492,626,490,492,492
491,615,492,495,493
495,539,491,494,492
493,444,491,493,491
492,400,491,493,491
492,373,492,494,492
492,379,490,492,492
493,386,491,493,491
494,414,490,494,493
494,468,491,493,491
493,526,491,494,492
492,602,491,494,492
493,630,490,492,490
493,621,490,495,493
494,586,491,493,492
493,495,492,494,492
492,417,491,493,492
493,387,492,494,490
494,374,490,494,491
493,380,490,494,491
492,396,491,494,490
492,437,492,494,492
493,494,491,493,492
493,558,491,491,490
493,621,491,494,492
494,628,489,493,492
493,617,490,493,493
493,552,491,494,492
492,454,490,493,492
492,403,492,493,492
494,373,491,494,491
492,376,492,492,491
492,384,491,492,490
492,407,491,492,492
494,462,491,492,492
493,518,490,492,491
492,594,492,493,492
492,630,491,494,491
491,625,492,494,492
492,599,492,492,493
494,508,492,494,492
492,422,490,493,493
493,388,491,492,491
493,374,490,492,492
493,379,489,493,492
493,392,492,492,493
492,431,491,493,492
493,486,491,493,493
492,550,491,494,491
491,617,492,493,491
492,628,490,494,493
492,618,491,492,491
491,567,492,495,493
493,463,491,493,491
493,408,490,493,492
493,375,489,493,493
492,376,490,492,491
493,383,491,494,491
491,402,489,493,494
493,456,492,494,491
492,512,492,492,491
492,581,491,492,491
492,629,491,493,492
493,625,490,492,490
492,607,489,493,494
493,521,490,494,494
493,431,491,495,492
492,395,490,493,492
495,377,492,494,490
492,380,490,494,491
493,387,489,492,490
494,423,490,493,492
494,478,490,494,492
492,540,491,493,492
494,611,492,493,491
493,631,490,496,491
492,621,492,495,491
493,577,494,496,492
493,476,491,494,492
494,412,490,493,491
493,378,492,494,493
492,375,489,492,492
493,383,489,493,492
493,399,489,496,493
493,447,491,495,492
493,506,490,495,490
494,571,489,494,491
492,626,491,494,491
493,626,491,494,491
494,611,491,495,493
492,536,491,495,491
493,440,491,495,491
491,398,490,495,493
493,376,490,496,492
492,379,492,496,491
492,386,490,493,492
492,418,491,494,492
494,471,491,492,492
492,531,490,488,490
492,604,491,489,493
493,630,490,493,493
493,622,492,492,491
492,584,491,495,493
493,488,491,494,493
493,417,491,494,491
492,385,493,496,491
492,375,492,496,493
493,383,491,497,492
494,394,491,502,492
494,441,490,502,492
496,501,490,501,492
496,564,490,502,493
496,623,490,499,493
495,631,491,498,492
496,617,489,497,492
495,547,492,496,492
494,451,491,495,490
493,402,491,498,492
495,378,490,500,492
497,380,492,504,491
497,388,489,504,493
498,415,489,502,491
499,468,491,498,490
496,525,491,495,489
496,599,489,489,487
492,631,489,483,491
488,623,491,481,494
489,590,492,482,494
490,500,493,488,494
490,421,493,490,493
492,388,493,491,491
491,372,494,492,492
491,382,492,492,491
491,392,490,493,489
492,434,493,492,493
493,490,493,492,491
493,554,491,494,492
493,616,489,492,494
494,628,489,493,495
493,618,490,493,496
493,557,492,494,495
493,458,491,494,492
493,404,492,495,488
492,376,496,495,489
493,376,498,493,490
493,384,496,493,493
493,408,494,495,494
495,458,492,498,489
494,516,492,499,492
495,590,486,499,492
495,631,488,500,491
494,626,491,498,492
497,602,492,497,490
495,515,490,491,493
492,427,490,490,491
492,391,490,491,487
493,374,489,491,487
491,380,490,493,489
493,390,489,491,488
493,427,494,492,496
492,484,496,493,495
491,546,494,493,490
492,615,489,494,491
493,629,491,494,489
493,621,489,496,486
495,568,488,495,489
495,470,490,494,490
494,410,490,493,494
492,378,489,494,493
493,373,490,495,492
492,384,490,495,492
492,403,492,494,491
494,451,491,496,492
494,510,490,496,491
493,580,490,498,490
496,627,489,497,490
494,626,490,499,492
494,611,490,498,493
495,529,491,494,494
494,435,490,492,492
493,396,491,490,491
492,374,490,490,491
492,376,491,492,492
493,387,491,492,491
495,421,493,494,491
492,476,492,494,493
494,537,491,494,490
494,610,489,494,491
492,630,489,492,491
491,621,490,493,491
492,580,492,494,491
494,481,490,498,492
495,415,490,500,491
495,382,490,497,491
496,375,489,497,492
496,384,489,495,492
494,399,491,489,491
492,445,491,489,492
491,502,491,490,491
490,568,492,492,491
492,624,491,491,491
493,626,490,491,491
491,616,492,493,492
495,538,491,499,492
494,442,490,501,493
495,400,490,502,493
496,377,490,500,491
495,377,490,496,491
495,386,492,489,493
492,414,491,486,492
490,468,491,493,492
493,526,489,496,492
495,601,489,496,492
496,630,491,497,491
495,625,490,495,493
495,587,492,491,492
491,494,492,490,492
490,419,491,491,492
491,386,492,493,493
493,373,490,491,492
493,379,490,493,491
491,390,489,492,492
493,437,490,493,493
493,495,489,493,492
493,557,492,493,491
492,622,491,496,492
494,628,489,497,490
493,616,493,497,491
493,552,495,497,492
494,455,498,497,493
493,404,499,494,493
494,378,500,493,490
493,376,496,493,492
492,385,491,491,493
492,409,485,493,492
492,461,484,494,492
493,516,486,494,491
493,594,487,494,493
493,628,489,492,492
493,622,489,491,493
496,596,490,489,494
494,507,491,494,493
492,422,490,491,492
492,389,491,498,494
491,375,491,497,492
491,381,493,494,491
492,392,493,494,493
493,431,493,496,493
493,488,492,495,492
495,550,491,496,491
496,615,490,496,492
495,631,488,496,493
495,618,489,494,494
493,566,490,492,494
493,464,492,492,492
490,407,493,493,493
491,376,493,494,492
493,375,490,493,492
493,385,490,495,492
494,403,488,492,491
493,456,491,493,492
492,512,490,492,493
491,584,490,494,493
492,629,491,493,492
493,624,495,496,491
493,606,494,494,494
493,518,495,494,492
493,430,494,494,492
493,393,492,492,491
491,377,489,494,493
493,379,487,492,491
493,389,490,493,493
491,425,491,494,494
492,479,494,494,493
493,542,498,493,494
494,612,501,493,492
492,631,497,493,492
493,619,499,493,492
494,572,497,493,493
493,474,490,493,491
493,411,485,494,490
492,377,485,495,494
492,373,485,494,492
492,383,488,494,491
492,401,490,495,490
493,449,490,495,491
493,505,489,495,492
494,572,488,495,491
492,627,489,494,492
492,627,490,494,493
491,613,490,494,493
492,533,494,495,490
492,438,494,496,492
494,397,493,496,491
493,375,499,494,491
494,376,496,491,492
494,386,492,489,491
492,419,493,490,495
493,471,490,491,488
492,532,486,494,491
491,606,485,496,492
491,629,488,494,493
492,621,490,493,494
494,582,490,493,494
492,486,491,493,493
492,416,490,493,491
493,380,489,493,492
493,373,488,494,493
493,383,490,493,491
493,396,490,497,493
494,440,490,493,492
493,500,491,494,491
492,563,492,493,491
492,622,490,492,492
491,628,491,493,492
494,614,493,495,491
493,543,493,493,492
492,447,494,495,493
492,401,493,499,494
493,374,491,499,492
494,378,491,500,494
497,387,490,497,492
495,412,493,490,491
492,464,493,486,492
489,521,490,489,493
493,597,492,494,491
491,629,490,495,493
493,622,495,493,492
492,592,494,496,492
491,500,494,493,494
492,420,495,489,493
492,386,494,493,492
491,372,494,494,493
491,378,491,492,492
492,390,489,492,493
493,433,491,493,494
493,491,488,493,491
492,554,485,494,489
494,617,487,494,491
493,630,491,495,491
492,617,490,494,491
492,557,491,496,494
492,459,491,495,492
492,404,490,495,492
493,374,489,494,492
493,377,490,496,493
492,385,490,495,493
492,408,491,495,493
492,457,491,494,492
491,515,490,493,492
492,590,492,493,491
492,626,491,491,492
493,622,492,491,494
494,603,494,495,492
494,512,492,493,493
492,426,490,492,493
492,392,490,494,492
491,375,490,496,492
491,379,491,493,493
493,389,493,494,491
491,427,491,494,493
492,484,490,493,491
493,544,490,492,491
493,611,489,495,492
493,630,491,497,493
494,622,491,496,493
495,568,491,496,491
493,470,491,492,492
491,410,492,490,492
489,377,492,491,492
490,375,491,492,494
491,381,491,490,493
491,404,494,493,493
493,451,495,493,492
491,507,493,493,493
493,578,492,490,492
492,625,491,492,491
491,623,489,492,493
492,610,491,494,491
492,524,491,495,491
492,433,491,494,492
492,396,491,496,492
494,372,490,495,491
492,378,491,493,493
492,390,492,492,492
490,421,495,493,493
491,476,500,492,492
492,537,499,493,491
493,607,492,494,492
493,629,488,493,492
493,619,486,495,493
495,576,487,495,494
494,480,489,493,492
492,415,489,495,492
493,379,489,497,491
493,376,489,497,490
491,383,491,495,491
492,399,493,492,492
492,444,491,488,492
489,501,490,490,492
489,569,489,491,491
494,624,490,492,492
492,627,490,495,493
492,615,492,494,491
494,538,492,496,492
494,441,492,493,492
493,399,497,492,491
491,375,503,488,491
491,375,504,491,493
490,388,503,492,490
493,412,500,494,487
492,467,488,496,491
494,528,482,496,493
492,602,485,497,494
492,629,488,496,492
494,622,487,493,491
492,586,491,494,494
492,492,490,492,493
492,417,491,492,492
493,383,490,493,492
494,373,492,493,491
491,382,492,493,492
491,392,493,492,493
491,440,498,493,493
491,496,501,494,492
491,559,500,494,494
493,620,496,491,492
492,626,490,492,492
490,614,486,493,492
495,548,487,497,493
495,452,490,498,492
495,402,488,497,491
493,377,486,495,491
493,375,487,493,492
490,385,492,489,491
488,410,493,490,492
491,462,494,492,492
492,518,488,493,491
491,594,487,490,491
491,629,491,494,492
492,625,490,495,493
492,596,490,497,493
492,505,491,496,493
493,422,490,494,491
491,389,490,492,493
493,372,491,491,491
493,379,491,492,491
492,389,490,492,492
492,432,491,494,493
493,489,491,493,491
491,549,491,494,492
492,618,490,495,491
492,630,491,495,490
493,619,492,496,494
495,564,493,494,491
493,462,491,494,493
492,406,491,492,493
492,374,492,489,493
491,375,492,494,493
492,384,490,495,491
492,404,492,496,492
492,457,494,494,492
493,514,494,492,491
492,586,496,492,490
493,627,498,491,491
493,626,494,492,494
493,605,492,489,491
490,518,491,493,493
491,430,488,493,493
492,394,489,495,493
492,375,490,495,492
494,377,490,496,490
492,389,488,496,492
494,424,490,496,492
495,482,491,494,491
493,541,490,493,492
491,613,494,495,494
492,631,491,490,490
492,618,491,494,494
492,575,490,495,492
492,475,491,495,490
491,411,491,493,492
491,377,489,491,494
491,372,490,490,492
489,382,492,490,492
493,399,491,495,492
494,448,493,495,492
493,505,491,493,491
493,573,492,494,492
492,625,491,492,493
491,627,493,491,491
492,612,493,492,491
492,530,491,493,492
491,437,489,494,491
493,396,490,496,490
491,376,488,498,493
494,379,489,498,493
494,389,490,496,491
493,419,490,495,491
495,474,492,491,491
492,533,493,490,491
489,605,494,492,492
492,629,493,491,492
493,622,495,493,494
492,581,497,493,494
492,487,500,491,495
491,415,498,492,494
490,382,498,495,493
492,374,492,492,488
491,380,491,493,490
492,394,487,493,493
494,441,486,493,491
492,498,484,492,492
493,563,486,491,493
493,623,487,493,492
491,627,486,493,492
494,617,489,495,494
495,541,490,493,493
491,445,492,494,492
492,400,491,495,491
493,374,492,496,492
491,377,490,496,493
495,385,490,495,490
492,411,490,493,494
492,465,491,488,492
491,524,493,491,491
489,599,492,492,492
492,627,489,493,491
492,623,490,494,494
492,589,489,494,493
493,497,489,495,491
493,419,490,494,491
493,385,491,496,491
492,373,489,493,493
492,380,492,490,492
490,392,490,494,495
491,435,491,492,492
492,491,492,493,492
491,553,488,491,490
491,618,490,493,492
490,626,489,493,492
494,616,488,493,492
495,556,490,494,492
494,456,491,496,492
494,404,491,495,491
493,374,494,494,492
491,375,496,491,492
491,384,496,491,492
490,407,497,491,493
491,458,496,493,493
492,516,494,491,491
491,592,493,494,492
493,628,484,493,492
493,625,485,497,492
493,601,489,498,492
495,510,488,495,493
493,425,489,491,492
491,389,492,493,492
491,373,490,493,491
494,378,489,493,492
494,390,491,493,491
493,428,490,493,491
492,484,491,492,492
491,546,490,494,493
490,614,491,493,492
492,629,491,493,494
493,618,492,492,493
494,570,494,497,494
492,466,495,495,493
493,406,493,493,492
494,375,491,491,493
491,375,490,491,491
491,380,486,492,492
491,405,487,492,493
493,452,490,495,492
493,509,490,495,492
493,580,490,493,490
494,627,490,494,491
494,625,489,491,491
491,610,493,491,495
492,523,491,493,495
492,433,490,493,493
491,395,490,492,492
494,372,490,495,491
493,379,490,495,492
493,387,492,494,490
494,420,492,493,493
494,477,494,493,494
492,539,494,494,493
493,609,490,491,491
492,629,490,490,492
489,621,490,492,493
490,578,490,493,492
492,480,491,492,492
491,411,490,493,493
492,377,493,491,493
491,375,494,492,493
493,382,491,494,495
492,398,490,495,493
493,446,490,495,492
493,501,488,494,492
493,570,487,490,492
491,625,491,491,491
492,625,490,491,492
493,613,491,492,492
491,538,492,494,493
493,440,491,492,493
491,399,490,493,493
491,374,490,494,493
490,377,490,494,492
491,387,489,491,492
493,414,493,492,492
493,469,494,493,491
492,527,494,492,492
493,600,493,491,493
493,630,492,493,492
493,622,490,491,490
493,584,488,497,495
494,491,490,495,492
493,416,489,493,492
491,383,492,492,491
491,373,495,490,492
490,382,493,493,492
492,390,490,494,491
492,439,489,494,492
492,496,487,493,493
492,559,488,494,494
493,622,490,492,492
493,628,493,492,491
492,616,493,492,492
491,547,496,493,492
492,450,491,493,491
492,401,491,492,492
491,377,492,492,492
493,374,489,491,490
492,386,488,492,492
490,410,489,494,492
492,462,492,493,494
492,521,494,493,491
493,595,494,493,490
493,627,495,493,491
492,625,495,493,493
494,592,492,493,494
493,504,489,493,493
492,422,491,493,491
492,388,489,495,494
493,373,485,492,491
491,380,489,492,491
492,390,491,492,491
492,431,491,493,493
492,488,490,493,492
493,549,492,493,491
491,617,491,493,492
492,629,492,494,493
491,619,491,495,494
492,560,490,493,492
492,461,490,493,492
493,406,489,492,491
492,374,492,492,491
492,373,490,492,491
493,382,489,492,492
494,405,492,493,491
492,455,491,494,492
493,513,491,493,491
492,588,491,496,492
492,628,491,495,490
493,625,491,493,492
492,605,491,491,491
492,515,491,493,493
492,428,492,490,491
492,391,490,492,492
493,372,490,492,493
492,378,492,491,491
491,389,491,494,491
494,424,490,493,492
492,481,491,492,491
492,541,492,491,490
492,611,490,493,492
491,630,491,492,492
493,620,492,493,492
494,573,490,493,493
492,472,491,495,492
492,410,490,495,492
492,379,489,497,491
494,373,489,494,490
492,382,489,492,493
491,400,492,489,491
491,447,492,491,492
493,505,492,493,493
494,577,493,493,491
493,626,492,493,492
493,625,491,494,491
491,613,491,494,491
490,529,490,493,492
491,436,490,492,493
492,396,491,492,492
491,374,491,494,492
494,376,490,494,492
493,387,490,495,493
494,418,491,497,494
495,474,491,494,492
494,534,490,489,492
492,604,490,489,491
489,629,491,490,491
492,619,491,490,492
492,579,491,492,492
493,487,495,493,492
492,413,495,493,492
492,382,495,492,493
492,375,492,494,491
491,381,490,493,492
491,397,487,490,492
493,440,490,493,492
492,499,490,493,493
492,564,491,492,491
494,622,492,492,492
493,627,492,493,494
493,615,494,491,494
492,542,491,492,493
492,446,489,493,492
492,400,489,493,490
491,375,492,495,491
493,375,490,495,494
493,384,490,492,492
492,413,490,494,492
495,466,490,493,491
493,524,491,492,492
491,599,490,491,492
490,630,491,491,493
493,622,492,493,491
491,587,490,493,494
493,497,492,493,492
492,418,490,493,492
492,384,490,492,491
491,375,492,492,492
492,380,489,493,491
492,391,489,493,493
491,436,492,494,492
492,491,491,493,492
492,555,490,491,493
494,619,492,492,490
492,628,490,494,492
494,616,489,492,492
495,554,490,493,492
493,455,490,493,493
492,404,491,493,493
492,375,492,491,492
493,376,491,493,492
491,385,491,492,491
491,407,493,492,492
492,459,492,492,492
492,517,491,492,491
493,589,490,494,492
492,629,491,493,492
492,625,493,494,492
491,599,489,495,493
491,510,489,493,492
492,425,491,494,491
493,389,491,494,491
493,374,492,493,491
493,379,490,493,491
494,388,489,491,490
491,430,491,492,493
492,486,491,492,492
492,548,490,491,491
491,616,491,492,490
491,629,491,492,491
492,619,491,492,495
493,566,492,492,493
492,466,491,492,492
493,407,491,492,493
493,375,490,492,492
492,375,490,493,493
491,384,490,491,491
493,405,492,494,491
494,451,491,492,492
493,511,493,493,490
492,580,492,491,490
492,625,491,492,492
492,626,492,492,494
493,607,493,492,491
492,523,490,493,493
492,433,491,493,492
492,395,493,494,491
491,373,491,492,492
493,378,493,492,493
491,389,491,491,491
493,421,491,492,492
493,477,491,492,491
492,537,490,492,491
492,609,490,493,492
492,629,490,491,492
492,622,491,493,491
491,579,491,493,491
491,479,491,493,492
491,412,491,493,493
491,381,490,491,491
492,373,491,493,490
490,382,490,492,492
491,399,489,493,492
491,445,491,493,492
491,501,491,492,491
490,571,492,494,493
492,624,490,491,492
492,625,491,491,491
492,612,493,492,491
493,534,492,494,493
492,441,492,491,491
493,397,493,493,491
492,374,490,493,493
491,379,492,493,491
491,387,495,492,491
495,413,493,491,491
494,471,493,491,492
493,529,490,492,491
494,602,487,492,492
495,630,487,493,492
493,623,489,493,493
494,584,492,493,493
493,492,491,492,493
492,415,490,495,490
493,384,492,494,490
492,374,491,491,491
493,380,490,494,492
491,396,490,492,492
494,440,492,494,492
493,498,490,492,492
493,562,490,491,493
491,623,491,494,491
493,626,490,492,491
492,617,492,493,493
493,548,492,493,491
492,450,491,492,491
493,402,490,492,491
493,372,491,493,491
491,376,490,492,493
492,384,492,492,493
491,411,491,493,492
493,465,491,494,491
492,521,491,493,490
491,596,492,493,493
492,630,490,492,490
494,624,491,492,491
495,592,490,491,493
494,504,491,492,492
492,421,491,492,492
492,387,491,490,493
491,375,492,492,492
492,379,492,492,491
492,391,493,491,490
492,432,493,491,492
491,489,492,492,493
491,551,490,490,492
491,618,492,491,493
492,630,490,493,492
491,619,490,493,493
492,563,492,493,493
493,459,491,494,492
492,406,490,493,493
492,372,492,491,492
493,373,491,491,492
493,384,492,492,492
494,405,492,491,493
492,456,494,492,492
493,515,492,492,491
492,585,491,494,491
492,629,490,492,491
493,625,491,492,491
493,603,490,494,494
492,516,490,493,492
492,429,490,494,492
493,391,489,492,493
493,375,489,492,492
491,380,491,493,492
492,387,491,494,492
490,427,492,492,493
493,482,492,493,492
492,542,490,491,490
493,612,491,492,492
493,630,492,493,490
493,621,492,494,491
492,572,495,494,493
492,471,493,493,492
492,411,494,493,492
492,379,493,494,491
491,374,490,493,493
492,381,489,491,491
491,402,487,494,491
494,448,489,492,491
493,506,489,492,492
493,576,489,492,490
492,624,490,493,492
491,628,489,491,492
493,612,492,494,491
492,528,492,492,492
493,437,491,493,491
492,396,490,494,493
494,372,489,492,491
491,378,492,493,492
492,387,489,492,493
492,420,489,492,492
493,475,491,493,491
493,532,491,493,491
492,608,490,492,493
493,629,491,492,492
493,620,490,491,492
494,580,491,491,492
494,485,492,493,492
491,416,491,492,492
493,382,492,491,490
493,375,491,493,492
491,383,491,492,491
492,398,493,492,490
492,442,490,492,492
493,501,490,491,491
491,567,491,491,492
494,622,489,492,493
493,628,490,491,493
492,616,491,492,491
493,538,491,493,493
493,444,491,491,492
491,398,492,492,491
492,373,491,491,491
493,375,490,490,491
491,386,491,493,492
494,411,489,493,491
493,468,491,493,492
493,525,490,493,493
492,601,490,493,491
492,631,492,494,490
492,622,490,494,494
492,588,493,492,493
492,497,491,493,492
492,417,490,492,493
494,384,489,491,493
494,374,489,491,491
492,379,490,492,493
492,392,490,491,491
492,437,492,495,492
493,494,491,492,491
493,556,491,490,490
493,621,491,493,492
493,628,489,493,491
492,617,490,491,493
494,554,490,492,493
493,455,490,493,491
493,405,491,492,490
494,375,491,494,492
494,376,490,492,490
493,383,491,490,490
492,406,490,489,491
494,460,491,491,491
493,518,491,492,489
491,593,490,494,493
493,629,491,492,491
491,626,491,494,491
492,600,492,494,491
493,511,491,492,491
493,425,491,492,492
493,389,491,494,493
491,376,490,492,493
493,380,490,493,493
493,390,489,492,492
493,431,492,493,490
493,486,489,494,491
493,548,489,492,490
491,617,492,492,490
493,627,490,491,491
493,618,490,491,494
491,569,492,494,493
493,465,491,493,492
492,408,491,493,492
492,375,490,494,491
491,375,491,493,492
490,385,492,492,494
493,402,490,491,492
491,453,492,491,492
492,511,492,490,492
494,581,491,490,493
494,627,490,491,494
493,626,493,491,492
494,609,491,493,490
495,521,492,492,489
493,432,492,494,491
493,395,492,494,492
492,376,492,493,493
492,380,491,492,492
493,387,491,493,491
492,423,491,492,491
494,478,491,491,491
493,539,490,490,492
493,610,491,489,490
491,631,491,491,491
493,621,490,490,490
492,577,493,492,492
492,478,492,492,494
492,412,491,493,491
494,379,491,494,492
492,374,489,492,493
493,383,491,492,492
491,401,490,494,493
491,447,491,494,493
495,505,491,493,491
493,571,490,492,490
493,624,491,493,492
492,627,489,492,492
495,612,490,492,493
496,534,490,493,493
494,441,491,493,492
492,398,490,495,491
494,373,491,494,493
492,378,492,493,490
493,387,491,492,490
493,416,492,493,494
494,472,491,494,493
493,532,491,499,495
494,605,490,494,495
492,631,491,493,493
491,623,491,493,494
492,586,491,494,491
495,489,492,494,491
495,416,491,493,493
495,383,492,488,490
493,372,490,491,495
493,380,489,496,493
494,397,491,496,489
493,439,490,492,491
494,498,491,491,490
492,564,491,494,491
492,623,492,495,491
492,628,491,494,493
493,617,492,490,491
493,547,491,490,492
494,450,491,489,492
493,400,490,489,495
494,374,490,492,498
494,376,490,488,491
492,386,491,490,491
495,410,492,494,492
494,465,493,494,494
493,521,491,492,490
494,596,491,489,490
494,631,492,490,491
493,624,490,498,493
493,594,492,497,492
492,503,490,492,490
493,421,489,494,491
492,389,490,487,490
494,374,493,490,492
493,381,491,493,494
494,390,490,492,490
494,433,490,495,492
494,490,490,495,493
494,554,491,493,496
494,619,491,494,495
495,629,492,492,494
494,620,493,492,494
492,561,493,490,492
493,461,491,489,490
493,406,491,492,485
492,376,491,495,491
494,376,490,493,491
493,385,490,492,492
493,406,490,494,493
494,458,490,492,490
493,514,491,493,490
492,588,489,492,491
494,628,491,489,490
493,623,490,493,491
494,603,491,494,493
493,518,492,494,492
493,429,490,492,493
493,393,490,492,493
493,377,491,492,492
491,380,492,492,491
492,389,488,491,491
494,427,491,493,492
494,484,492,493,491
494,544,490,491,490
495,613,490,492,493
493,631,489,493,490
494,620,490,493,494
494,575,491,493,492
494,473,490,493,492
493,412,493,492,491
492,378,492,492,490
493,374,490,491,491
492,386,491,492,491
494,401,490,492,491
494,452,491,491,493
494,510,490,493,492
492,579,490,494,492
493,628,489,491,490
494,628,492,492,490
493,611,490,495,490
494,528,492,494,491
495,437,492,494,491
494,396,490,493,492
492,379,492,493,493
494,380,491,492,491
494,390,491,491,491
492,422,492,490,490
493,475,491,491,492
493,536,490,491,494
493,608,492,491,493
493,631,490,489,494
495,622,489,491,493
495,579,491,493,495
494,484,491,492,494
494,415,490,492,491
494,383,491,494,489
494,373,490,492,491
493,384,491,491,490
493,398,492,491,490
494,443,492,491,492
493,503,491,491,491
494,567,493,492,492
492,626,490,491,492
493,629,492,492,492
492,616,492,494,493
492,539,491,492,492
493,446,491,492,491
493,399,490,492,490
493,374,491,490,489
494,377,490,491,490
494,386,490,491,490
492,415,490,492,493
494,468,492,492,490
493,527,491,492,494
493,604,492,493,493
493,630,492,492,491
493,622,491,490,491
493,590,491,491,491
494,494,492,493,494
493,418,491,489,495
493,386,490,493,492
494,374,491,494,493
493,380,490,491,491
492,395,492,490,492
494,436,490,494,491
494,496,492,493,490
493,557,491,491,490
494,619,490,491,491
493,629,489,491,492
493,616,493,492,490
494,554,491,493,492
494,455,491,492,492
493,405,491,493,491
495,374,489,491,489
493,376,491,493,492
493,387,490,491,490
495,408,490,490,492
495,462,491,491,491
494,518,490,492,492
494,594,491,491,490
493,632,491,492,492
495,624,490,492,491
493,600,493,493,490
493,509,492,492,492
493,423,491,492,493
492,392,490,492,491
494,376,491,492,491
493,380,490,492,493
493,393,490,492,491
492,431,490,493,491
494,487,491,491,491
493,550,492,491,492
494,615,492,491,491
494,629,490,490,491
495,618,489,491,491
495,566,492,493,492
493,466,491,493,492
493,408,491,491,492
492,378,490,493,492
492,377,491,491,491
492,385,492,492,490
492,404,492,492,493
494,455,492,492,492
493,513,491,492,492
495,583,489,489,495
495,629,490,493,490
492,628,490,494,491
495,606,492,491,492
493,523,491,493,492
493,432,491,493,491
494,395,491,491,490
493,376,491,491,491
494,379,491,493,491
492,390,489,491,492
492,425,491,492,492
494,480,490,492,493
493,542,490,492,491
492,613,491,492,492
495,630,490,491,491
493,622,490,493,492
494,574,491,492,492
494,477,491,492,492
494,413,490,492,491
494,380,490,492,492
493,375,491,492,492
493,386,490,492,492
494,399,491,494,491
493,450,491,493,489
494,506,491,492,490
493,572,490,493,494
493,626,490,492,491
492,628,492,493,493
495,614,489,493,494
495,535,491,493,492
494,441,491,493,491
494,397,489,494,491
492,378,489,492,492
493,377,491,491,492
493,387,490,491,490
494,416,490,491,491
494,473,491,493,491
495,532,489,491,490
493,606,492,493,492
493,632,491,493,491
492,623,492,493,491
492,586,492,494,490
493,489,490,493,491
494,417,491,492,491
492,384,490,494,491
494,373,490,492,493
494,383,490,493,492
494,395,490,493,491
494,439,491,493,493
493,500,491,492,491
494,564,492,493,490
493,624,491,492,491
493,628,491,491,491
494,617,492,495,493
495,545,489,493,491
493,449,490,493,492
494,401,490,492,493
493,376,489,493,492
492,378,491,492,492
494,385,491,493,491
492,412,489,492,492
493,464,491,493,492
493,522,490,492,491
495,597,490,491,491
494,630,490,492,490
494,623,491,493,493
494,594,492,492,492
494,502,491,494,493
493,422,490,493,491
493,389,492,493,490
492,374,490,494,492
494,380,490,491,491
492,394,491,492,492
494,434,491,493,492
494,491,490,492,491
493,554,490,491,490
494,617,491,493,491
493,630,489,493,492
493,618,492,494,490
493,559,491,493,492
494,461,491,492,491
493,406,491,494,492
495,375,489,494,491
493,377,490,493,492
492,385,490,493,492
493,409,490,493,491
493,459,491,493,491
493,514,490,492,492
493,589,492,492,493
493,629,491,492,492
493,623,489,492,492
495,602,490,492,493
495,516,491,494,492
493,429,490,493,492
493,392,490,492,491
492,377,491,494,491
492,381,491,493,491
493,391,492,492,490
492,428,491,494,492
494,484,491,493,492
493,546,490,492,492
495,613,489,493,492
493,631,491,493,492
493,622,490,492,492
495,573,492,494,492
494,470,491,493,492
492,410,491,493,491
493,376,492,492,491
494,375,489,492,491
494,384,489,493,491
492,404,489,493,492
493,453,492,493,492
493,509,490,494,492
492,581,491,494,492
492,628,492,493,490
493,626,490,494,491
494,610,492,494,493
492,528,491,494,492
493,435,491,493,492
495,398,489,493,493
495,376,492,492,490
494,380,491,494,492
494,388,489,491,490
492,422,493,494,492
493,477,491,493,491
493,536,491,491,492
493,609,490,491,493
494,629,491,492,490
493,622,490,494,494
494,579,490,494,493
493,483,490,493,492
493,416,491,493,491
494,379,490,492,491
493,376,492,493,492
493,384,491,492,491
494,396,490,491,491
494,444,490,493,491
494,503,492,493,490
493,568,490,492,493
493,625,491,492,491
492,628,491,494,491
493,615,492,494,491
493,541,491,493,492
494,444,490,493,492
493,399,491,494,493
492,373,490,492,492
494,376,489,493,492
493,387,490,493,494
494,413,491,492,491
494,469,490,493,491
494,527,490,493,490
492,603,492,493,490
493,628,490,491,491
495,622,490,492,491
495,586,492,495,492
493,495,491,492,492
493,420,491,493,492
493,386,490,493,494
493,375,490,494,491
493,383,491,493,491
494,391,489,493,491
493,437,490,493,492
494,495,492,492,491
494,556,490,491,491
495,620,490,492,492
494,629,491,492,490
493,618,490,494,491
495,551,492,494,492
493,454,491,494,492
493,404,491,493,491
493,377,492,492,493
493,377,491,492,491
494,386,491,493,492
495,408,491,493,492
494,461,491,493,491
494,518,490,492,493
493,596,490,493,490
494,627,490,493,491
492,625,489,493,493
494,597,493,493,491
494,506,491,493,492
493,424,491,492,491
494,391,491,494,491
495,374,489,492,491
493,381,491,493,491
492,392,490,494,492
492,432,491,494,493
494,488,491,492,491
493,548,493,492,490
493,617,490,493,492
494,628,491,492,492
494,617,490,492,493
495,565,490,493,493
494,465,492,493,493
493,408,491,492,491
494,374,491,494,490
492,376,492,493,490
492,384,491,493,490
492,405,492,491,491
493,456,491,494,492
493,512,490,492,491
493,586,492,492,492
494,628,490,493,492
492,626,490,494,492
492,609,491,492,492
495,520,492,495,492
493,431,490,492,492
492,394,492,493,490
492,374,491,492,492
494,378,489,492,492
492,391,492,494,492
494,424,490,493,491
493,480,491,492,492
493,542,491,494,492
492,612,491,493,491
492,630,490,493,492
493,619,491,492,490
493,576,491,495,492
494,476,492,493,491
493,410,490,493,492
494,379,489,492,493
494,376,491,492,491
493,382,491,494,491
492,399,489,491,492
492,449,491,494,492
493,506,492,492,491
493,573,491,491,491
493,627,491,494,492
494,625,489,493,490
493,614,490,493,494
494,533,490,494,493
493,439,490,494,492
492,399,490,492,491
494,377,491,494,491
493,378,490,494,491
493,386,491,492,491
493,415,490,493,492
494,471,491,493,492
493,532,492,493,492
493,606,492,493,492
494,632,492,493,491
491,623,493,493,490
492,584,493,494,491
493,489,493,493,492
493,416,491,493,491
493,381,492,494,492
492,376,491,493,492
493,382,491,493,492
493,396,490,494,493
493,441,492,493,491
494,498,491,494,491
494,562,490,492,490
492,623,492,493,490
493,626,491,492,492
495,615,491,492,492
492,548,493,493,492
493,448,491,493,492
493,402,490,493,492
493,376,490,494,492
491,378,492,494,492
492,385,490,492,492
492,413,492,494,493
494,465,490,493,491
493,523,491,492,491
494,597,490,492,491
494,628,489,493,492
494,624,492,492,489
492,592,490,495,493
494,501,491,493,492
493,422,491,493,491
492,389,492,495,491
493,374,492,492,493
493,383,490,492,491
494,390,491,494,492
492,434,490,493,492
494,492,491,493,492
493,553,489,493,493
494,618,490,492,491
492,630,491,494,492
494,617,490,494,491
493,559,492,493,492
493,459,491,494,492
492,405,491,494,492
493,377,491,491,492
494,376,491,493,491
493,385,490,493,493
493,408,490,494,493
493,458,491,493,492
493,515,491,494,492
495,588,490,494,491
493,627,490,493,493
493,624,490,492,493
495,601,491,492,492
494,514,491,493,492
494,428,492,493,491
493,393,490,494,490
493,374,490,494,491
492,382,492,493,490
492,390,492,494,490
492,427,491,493,492
495,485,492,493,491
493,545,490,494,492
495,613,490,493,492
493,630,490,493,493
493,620,490,494,494
495,569,491,493,492
491,471,491,494,491
493,408,491,494,491
492,378,492,493,491
493,375,491,492,491
493,382,490,492,492
494,406,491,494,491
494,451,491,494,491
493,509,492,493,492
493,581,490,494,493
492,627,491,494,491
492,626,492,493,492
494,610,493,493,490
493,525,491,494,493
494,435,491,493,491
493,395,490,492,491
494,373,489,493,493
493,379,491,493,492
493,390,490,492,490
494,419,490,494,493
494,478,491,493,492
493,537,492,493,491
492,608,489,493,492
493,630,490,492,491
492,622,492,494,492
495,578,489,493,492
494,482,490,493,491
493,414,490,494,492
492,382,490,492,490
493,374,491,494,491
491,382,489,493,493
492,399,492,493,492
493,445,491,493,491
493,501,491,492,491
492,569,490,494,491
494,624,490,494,490
492,626,490,494,493
493,616,490,494,493
494,539,491,494,492
493,442,491,493,491
493,401,491,495,492
494,373,490,493,491
492,378,491,493,491
492,388,491,493,490
492,414,492,494,494
494,469,490,493,491
493,527,491,494,492
492,601,490,491,492
494,630,489,493,492
493,623,490,494,493
494,586,490,495,494
494,495,492,494,492
493,419,491,493,492
494,384,492,494,491
492,375,492,492,491
493,381,491,493,491
493,392,490,495,493
494,438,491,493,492
493,497,491,494,493
493,560,490,493,492
493,622,491,494,492
492,629,491,494,494
495,616,489,494,491
493,552,491,494,492
493,453,491,494,492
493,403,491,492,491
494,375,491,492,492
494,377,492,493,491
494,386,490,492,490
492,409,491,494,494
494,462,489,493,492
493,521,491,494,491
492,596,491,493,490
492,629,490,493,493
493,623,491,492,490
492,597,491,496,492
495,506,491,493,491
493,424,491,493,492
493,390,490,493,491
492,375,491,493,492
492,383,490,492,491
493,393,491,494,492
493,433,492,494,491
493,488,491,493,491
493,549,490,493,493
494,615,490,492,491
492,629,492,493,493
494,619,490,493,494
494,565,491,494,493
493,464,492,494,491
493,406,490,494,491
493,374,490,492,492
492,375,491,492,490
493,384,491,492,490
493,405,491,492,490
494,455,492,494,492
493,513,491,493,492
495,585,492,493,490
493,629,490,494,492
492,627,492,493,491
492,609,493,495,491
493,518,491,494,493
493,431,492,493,492
492,394,491,492,491
494,372,489,493,492
494,379,489,493,491
493,389,490,493,490
492,423,490,493,493
494,481,491,494,491
493,541,491,494,491
493,613,491,493,490
493,629,491,492,491
492,621,491,495,491
494,574,491,495,492
494,476,491,494,492
494,411,490,493,492
494,380,490,493,493
493,376,491,494,491
491,382,489,493,491
491,403,492,494,492
494,447,491,494,492
493,506,491,493,491
494,573,491,492,491
494,625,490,494,491
492,627,489,493,493
494,612,493,493,490
494,533,491,494,493
494,439,490,493,492
492,399,491,495,491
494,374,490,493,490
493,378,491,494,492
492,389,491,492,491
494,416,490,492,491
494,473,492,494,491
494,532,491,493,491
493,607,490,494,492
494,631,490,492,491
491,623,491,494,491
493,585,492,495,492
493,489,492,494,491
492,416,492,494,492
492,384,490,492,491
494,376,492,494,490
494,381,490,493,492
494,396,489,494,493
493,441,491,494,493
494,499,492,493,491
493,565,492,492,492
495,622,491,493,490
493,626,490,492,491
494,614,492,493,491
495,544,492,495,492
493,449,491,493,491
492,401,492,493,493
493,374,489,494,493
492,378,491,494,492
492,387,492,494,491
494,410,490,493,491
493,466,491,495,492
493,523,491,493,491
494,597,490,492,491
495,629,490,493,492
494,624,490,494,493
492,591,493,493,493
493,501,491,494,492
493,420,490,494,491
492,388,492,494,491
492,375,492,493,490
493,380,490,494,492
492,391,490,492,491
492,437,492,494,492
494,492,491,493,493
494,554,489,493,493
493,620,491,494,491
493,627,490,493,491
492,618,490,493,494
495,558,492,494,491
493,458,491,493,492
493,405,490,492,491
494,377,491,495,491
494,375,489,493,490
493,384,491,494,493
492,408,490,494,491
492,459,491,494,492
493,516,491,493,490
492,590,490,493,493
493,628,491,493,491
492,626,492,495,492
494,599,490,493,493
495,513,491,493,492
493,428,491,493,491
492,391,491,494,494
493,376,490,492,492
494,380,492,494,490
492,390,492,493,490
493,428,492,493,492
493,484,491,494,492
493,544,491,492,491
492,616,492,493,492
493,630,490,494,493
493,620,491,494,493
493,571,491,493,491
493,468,490,494,492
492,408,490,493,492
492,377,493,494,491
492,374,491,492,491
493,383,490,492,491
493,402,490,492,491
492,452,491,493,493
494,509,491,493,491
493,581,490,494,493
493,627,491,494,492
492,627,491,494,491
492,608,490,493,493
492,525,492,495,493
493,435,490,493,491
493,394,490,493,492
494,374,490,493,493
494,380,489,493,490
493,388,490,494,494
492,422,491,493,491
494,477,491,494,492
493,537,491,494,491
493,609,492,493,491
493,631,491,494,492
494,619,490,494,493
492,582,491,494,493
494,480,491,494,493
494,413,490,493,493
493,382,490,493,494
492,374,490,492,492
492,383,491,494,492
494,399,489,493,491
492,445,492,495,493
493,503,492,493,492
494,568,491,494,492
492,625,489,493,493
493,628,492,492,490
493,617,490,494,494
493,538,491,494,493
493,444,491,494,492
493,399,490,493,491
491,376,492,493,494
493,379,491,492,491
493,384,490,492,491
494,412,490,493,493
494,469,491,493,491
492,528,490,493,493
493,603,491,492,491
492,632,491,494,491
491,623,492,495,491
492,588,492,494,491
493,494,491,493,492
493,418,491,493,492
494,387,491,494,492
494,373,489,493,493
494,380,489,494,493
493,394,489,493,493
493,438,492,494,493
493,496,490,493,492
494,559,492,493,490
491,621,491,493,490
493,627,491,492,491
494,616,491,495,492
492,549,491,494,492
493,453,491,493,492
493,403,490,493,493
492,375,490,494,493
492,377,491,494,492
494,385,490,494,490
491,410,490,494,494
494,463,492,493,491
493,519,491,492,491
494,593,490,492,491
494,629,490,493,492
493,625,492,493,493
494,596,490,493,491
493,506,491,494,492
493,422,491,494,490
492,390,491,495,492
492,376,490,493,492
492,378,492,492,491
492,392,490,495,491
494,430,491,493,492
494,487,491,493,492
493,549,489,493,490
493,617,492,494,492
491,630,489,493,492
494,620,492,495,491
492,564,493,494,492
493,463,491,494,492
492,408,490,493,492
494,373,491,492,491
492,376,491,493,492
493,385,490,494,492
493,406,490,495,493
493,455,491,493,492
493,513,491,493,492
494,586,492,494,490
494,628,490,493,491
494,624,491,493,492
494,604,491,493,492
495,519,491,493,492
493,431,491,493,492
493,393,491,492,491
493,377,491,494,491
491,380,491,494,491
492,389,492,494,491
492,425,490,494,492
493,480,491,493,493
493,543,490,492,491
494,611,490,493,492
494,630,490,493,493
493,621,490,492,490
493,574,492,495,493
492,473,491,494,492
493,413,491,494,491
492,379,493,495,491
492,374,491,492,491
493,382,490,492,492
492,403,491,492,492
493,447,491,494,492
494,505,490,493,492
493,574,490,494,494
493,626,491,494,492
492,626,489,493,492
492,612,492,495,494
494,531,490,493,492
492,437,491,493,491
493,397,490,492,491
494,373,490,494,491
492,380,490,493,492
492,386,491,492,490
492,419,490,494,493
493,473,491,493,492
492,531,491,494,492
495,605,489,492,491
493,629,491,494,492
491,622,490,492,492
495,581,491,493,493
494,486,491,494,492
492,415,489,493,494
493,383,492,492,490
492,375,491,495,493
494,382,489,494,491
491,398,493,494,491
492,441,492,494,493
493,500,491,493,492
493,565,490,492,491
494,625,491,494,491
493,628,490,494,493
493,616,491,495,494
492,545,490,494,493
493,447,490,492,492
492,401,491,493,493
493,374,492,492,490
493,375,490,492,491
493,385,490,492,491
494,410,491,494,492
493,465,491,493,492
492,524,491,493,493
493,601,490,494,492
492,630,491,494,491
492,623,492,494,491
492,591,493,493,494
494,500,492,494,491
492,419,489,493,492
494,386,489,492,491
494,374,489,494,493
493,381,489,494,493
493,392,491,492,492
492,436,491,493,492
494,492,491,494,492
493,556,492,493,490
492,619,491,493,492
493,628,491,494,492
492,617,489,492,492
492,558,492,494,493
494,457,491,493,492
493,405,491,494,493
492,376,490,494,493
494,375,489,494,490
492,385,490,493,493
493,407,491,492,492
493,460,492,493,492
493,516,491,493,492
494,588,490,492,492
493,629,491,492,492
492,626,491,492,492
494,599,491,495,492
493,514,491,494,492
493,427,491,494,492
493,392,489,493,493
494,375,491,492,491
491,381,490,494,492
494,389,489,492,492
494,429,490,493,493
494,485,491,493,492
494,546,490,494,492
492,617,490,493,492
494,630,491,493,490
493,620,491,492,490
493,570,493,493,492
493,470,491,493,492
493,410,490,492,491
492,378,492,493,493
493,377,490,494,492
493,386,490,494,492
491,405,491,495,492
493,453,491,493,492
493,511,492,493,490
493,580,490,494,491
493,626,490,492,491
494,625,489,493,492
494,608,489,493,491
494,525,492,494,493
493,434,491,493,492
493,396,491,494,491
492,378,491,494,490
492,379,492,494,490
492,389,490,494,493
494,421,490,492,492
492,478,491,494,492
494,537,490,492,493
494,609,490,494,493
493,631,491,492,492
493,619,492,493,491
491,576,489,493,493
492,480,491,493,492
492,414,491,492,491
493,380,491,492,490
493,373,490,492,491
492,384,492,494,492
493,399,492,493,491
493,446,491,494,493
494,504,491,494,491
492,570,492,495,491
492,624,489,493,493
493,627,491,492,492
492,615,491,492,491
495,536,490,493,492
493,442,491,493,492
493,399,490,493,491
492,375,489,494,492
492,376,490,492,492
491,387,491,494,491
491,416,492,493,491
493,470,492,494,491
493,527,490,494,491
494,602,491,494,491
492,630,490,493,493
493,623,489,494,494
494,586,490,494,493
493,493,491,494,492
493,416,490,493,491
492,386,492,495,492
494,374,489,493,491
494,381,491,491,491
493,393,490,492,492
494,438,491,495,493
493,497,490,493,492
494,560,491,493,491
493,622,491,494,492
492,629,491,494,491
492,617,492,495,491
495,549,490,494,492
492,453,491,494,492
492,402,490,493,491
494,374,490,493,492
494,378,490,493,492
493,386,491,493,490
493,412,490,494,492
493,464,491,494,492
493,520,491,494,491
492,597,492,494,491
493,629,491,492,491
493,623,490,495,492
492,597,490,492,491
495,506,491,494,492
493,422,490,493,493
493,391,490,494,493
493,376,490,494,492
494,379,489,493,491
492,393,492,492,492
494,432,492,494,493
493,489,491,493,491
494,550,490,492,491
494,615,491,494,491
492,630,490,494,493
494,619,492,493,494
492,564,491,495,493
493,463,491,493,492
492,408,491,494,492
494,374,489,495,490
493,375,490,494,492
492,383,490,492,492
494,404,490,492,491
494,457,491,493,491
493,514,491,493,492
493,585,492,493,493
492,631,491,492,491
493,624,492,494,491
493,608,493,494,491
493,520,492,494,491
493,431,491,494,493
492,393,490,492,491
491,378,491,494,493
493,379,489,493,493
493,390,490,494,493
492,426,491,494,492
493,480,490,494,492
492,543,489,493,492
494,612,492,492,491
493,629,490,492,491
494,619,489,492,491
495,575,493,495,492
494,474,491,494,492
492,412,491,494,492
492,379,490,494,493
492,376,491,494,491
492,384,492,493,490
491,402,489,493,493
493,449,492,494,492
493,506,491,494,491
494,573,490,493,492
495,626,489,493,492
493,628,490,494,491
494,611,492,495,493
493,532,491,493,491
493,438,491,494,492
492,397,492,493,491
492,376,492,493,491
493,379,491,495,492
494,387,490,492,491
492,420,492,493,492
494,472,491,494,493
494,534,491,494,493
493,608,492,493,492
494,629,492,493,491
493,623,490,494,493
493,581,493,493,490
494,485,492,494,492
493,416,491,493,492
495,382,491,492,491
492,375,492,494,493
494,384,492,493,491
495,398,491,496,492
492,444,491,495,493
494,500,492,494,491
493,565,490,494,494
494,624,491,492,492
493,629,492,493,493
494,615,490,493,494
495,543,491,494,493
494,448,492,494,491
493,400,491,495,494
493,374,492,493,492
492,379,493,495,491
493,386,492,493,491
494,413,492,493,491
494,467,492,495,492
494,523,491,494,491
493,602,490,493,492
493,630,491,494,493
492,624,491,495,493
493,592,491,495,491
493,497,492,494,493
493,420,491,494,492
494,387,491,494,491
492,373,491,493,492
494,380,490,492,493
494,392,490,495,490
492,436,491,494,493
494,494,492,493,491
493,557,491,494,493
493,621,491,494,491
493,630,491,493,491
494,618,491,494,492
493,556,492,495,494
493,457,492,494,492
493,404,490,493,493
494,374,490,492,493
495,378,491,492,491
493,386,490,495,493
494,406,490,492,490
493,461,492,494,492
493,518,491,494,491
493,591,492,492,491
494,629,491,494,491
493,625,490,494,494
495,603,493,494,491
493,512,491,494,493
493,426,491,494,492
493,394,491,495,492
495,375,490,493,491
493,380,492,493,493
493,392,492,492,491
494,428,491,494,492
494,485,491,493,492
494,547,492,494,490
492,615,490,495,493
494,630,490,492,492
492,621,492,495,493
492,570,492,495,493
493,470,491,494,492
494,409,491,493,492
493,376,490,494,492
492,374,490,493,492
494,383,490,493,492
494,402,489,493,493
494,453,491,494,493
494,511,492,493,493
492,582,491,492,492
496,628,493,493,491
493,625,492,493,491
494,608,492,493,492
495,525,492,495,493
493,434,491,493,492
493,396,492,493,493
494,376,492,494,493
492,380,492,495,492
492,389,492,495,492
495,421,491,494,492
493,477,492,494,493
494,537,492,492,491
494,609,492,492,492
494,629,491,493,493
494,623,493,493,490
494,579,492,495,492
494,479,493,494,492
493,415,492,494,491
492,380,493,495,491
492,374,492,493,491
493,382,491,494,492
491,396,492,492,491
492,446,491,495,492
494,503,491,493,492
493,569,490,493,494
495,626,491,494,492
494,626,491,495,491
492,615,490,493,493
495,536,493,494,492
493,442,492,494,492
493,398,491,493,491
494,377,491,494,491
494,377,490,493,491
493,386,491,494,493
493,417,491,495,492
493,469,492,494,492
493,527,491,493,492
495,603,493,494,490
493,630,490,494,492
494,621,490,492,493
495,584,491,493,495
494,491,491,494,492
493,418,490,493,491
493,385,492,494,493
493,375,491,492,492
494,384,492,493,490
493,396,493,493,491
492,438,492,494,493
494,498,491,493,492
494,559,490,492,492
492,624,491,493,493
494,630,490,494,492
492,617,491,495,494
493,551,491,494,492
494,452,491,494,492
492,401,490,493,493
493,377,492,493,491
494,376,491,492,492
493,385,490,492,491
492,413,492,494,493
495,463,491,494,492
493,521,490,493,492
493,598,490,495,493
492,631,492,494,491
492,624,492,494,492
493,595,490,494,494
494,505,492,494,493
493,422,490,493,491
494,389,490,493,492
495,374,490,494,494
493,381,490,492,492
493,391,491,495,491
491,431,490,493,492
494,490,491,494,491
493,552,492,493,490
493,616,492,493,492
492,631,491,494,492
494,618,490,495,492
492,563,490,494,493
494,463,491,494,493
493,407,490,494,492
492,377,490,492,492
494,377,492,493,490
493,384,490,494,491
493,406,491,492,492
494,456,492,493,491
493,513,490,493,492
495,585,489,494,491
493,628,491,494,492
492,624,489,492,492
492,608,492,496,492
492,519,492,495,492
492,430,491,494,491
493,394,489,493,490
493,375,491,495,491
491,381,489,492,493
494,389,489,492,493
494,425,490,494,493
494,480,491,493,492
494,544,491,494,492
494,611,490,494,491
493,630,491,492,490
494,621,491,493,491
494,573,491,493,492
493,475,490,493,491
493,411,491,493,491
493,377,490,493,494
492,377,491,494,492
492,384,491,494,492
491,402,492,495,491
495,449,491,493,492
493,507,492,494,492
493,575,491,492,491
495,626,490,492,492
494,626,490,494,493
493,612,493,493,491
493,530,491,494,492
492,437,491,493,492
492,398,491,494,491
492,376,492,494,490
492,378,491,494,493
493,388,490,492,491
493,417,491,494,492
493,473,491,493,492
494,533,490,493,492
494,607,490,493,492
492,629,490,492,492
492,623,492,494,492
495,580,490,494,492
493,485,492,494,492
493,416,491,493,492
493,381,491,492,491
493,373,492,493,490
492,383,489,493,492
492,396,492,493,493
493,443,491,494,493
493,501,491,494,491
493,565,491,494,493
495,622,490,493,491
493,627,491,494,492
491,613,491,492,493
495,543,491,494,492
494,448,492,493,492
493,401,492,493,492
494,377,489,494,491
494,376,490,494,491
492,387,491,494,491
491,416,492,493,491
493,467,492,494,492
494,524,490,492,490
494,602,491,495,491
494,628,490,493,493
493,623,490,494,493
494,590,490,494,493
493,500,491,494,492
493,419,491,494,491
492,388,490,492,492
494,373,492,492,491
493,380,491,492,491
493,392,491,491,490
494,436,491,494,492
494,494,490,492,491
493,556,492,493,493
493,620,491,493,492
492,630,491,493,490
491,618,492,492,492
494,555,491,492,491
492,456,490,493,492
492,403,490,492,491
493,374,490,491,492
494,377,489,493,492
492,384,491,493,493
492,410,490,491,491
494,459,491,494,492
492,518,491,493,491
492,592,492,493,490
493,628,491,492,491
493,625,491,494,492
494,599,490,492,491
492,511,492,493,493
493,426,490,492,492
493,393,490,494,493
492,376,491,492,491
493,378,491,494,490
492,389,489,492,493
492,429,491,492,491
493,485,491,493,490
494,546,490,491,491
491,616,491,493,492
493,630,490,492,490
493,618,492,495,494
492,569,491,495,492
493,468,490,493,491
492,410,490,493,492
493,376,492,493,491
492,376,491,494,491
493,381,490,493,492
495,402,489,492,492
494,453,491,493,492
493,510,490,493,491
493,580,490,494,493
492,627,490,492,493
492,625,491,493,490
494,610,492,493,490
493,524,492,493,492
494,433,490,494,491
493,395,490,494,491
491,377,490,494,493
493,379,489,493,492
492,390,490,493,492
491,422,490,492,491
494,478,491,494,492
493,539,490,493,490
493,608,492,492,491
494,629,490,492,492
495,621,490,493,491
492,579,493,493,493
494,480,492,493,492
492,412,491,494,492
491,381,490,495,492
492,375,491,493,490
492,383,491,493,490
492,398,489,494,491
494,445,491,494,492
493,503,491,493,492
494,569,489,492,493
495,626,490,493,492
492,627,491,492,491
494,615,491,495,493
495,535,491,494,492
492,441,491,494,491
492,398,491,492,491
493,375,492,492,492
491,378,491,492,492
493,386,491,493,490
492,416,490,493,492
493,469,491,494,493
493,529,490,494,492
492,602,490,492,493
492,630,491,493,492
493,624,490,492,491
494,583,491,493,492
493,491,491,494,492
493,417,490,493,491
493,384,492,494,490
491,374,489,493,492
493,380,490,492,491
491,396,490,495,491
492,439,491,494,492
493,496,491,493,492
492,559,489,492,491
493,620,491,493,491
492,626,490,493,492
494,615,489,493,493
495,549,490,493,492
494,452,491,494,491
492,402,490,494,490
493,374,492,494,492
491,377,491,495,491
491,385,491,494,491
491,411,492,492,493
493,462,491,494,492
493,520,490,493,493
493,595,491,492,490
493,627,489,492,492
494,623,488,492,493
495,595,490,493,490
492,504,491,493,493
493,422,491,493,491
492,389,491,495,493
492,374,490,494,491
492,381,491,493,490
492,391,489,493,493
492,431,491,493,493
493,489,490,493,491
493,549,490,492,492
494,615,489,492,492
493,629,489,492,489
493,617,490,494,494
493,561,491,493,492
493,461,491,494,492
492,407,491,494,491
492,377,491,494,491
494,375,490,493,490
492,383,490,493,492
493,407,490,492,490
493,455,492,494,492
493,513,490,493,492
495,584,489,492,492
494,628,492,493,490
492,625,490,494,491
495,604,491,495,492
492,518,490,494,493
493,429,490,494,491
492,394,492,492,491
494,374,491,493,491
493,381,490,493,491
493,388,490,491,491
494,424,490,493,492
494,481,490,492,492
492,543,492,493,492
493,612,489,492,491
494,630,491,494,491
491,621,492,494,491
492,575,492,494,492
493,475,490,494,492
493,410,491,493,491
492,378,490,493,490
493,373,490,492,491
493,382,489,493,492
494,401,489,492,492
493,449,491,494,491
492,507,490,494,493
492,576,491,491,490
492,627,492,493,490
492,627,491,493,490
493,613,492,493,490
493,530,491,494,492
493,436,491,493,493
492,398,490,492,491
494,373,490,493,492
493,378,489,493,492
493,388,491,492,490
493,420,491,494,493
493,473,491,493,491
493,535,491,494,490
492,608,492,494,491
492,630,491,492,492
493,623,491,492,490
494,579,491,495,492
493,484,491,493,491
493,414,491,493,492
493,381,489,492,492
493,376,489,494,492
493,381,490,492,491
491,397,490,491,491
494,443,492,494,492
493,500,491,494,491
493,564,491,493,490
493,623,491,494,491
491,625,489,492,492
492,616,492,494,492
494,541,490,493,492
493,444,490,493,492
492,401,490,493,490
492,374,492,494,491
491,377,489,492,492
494,387,491,493,489
491,413,492,492,490
492,466,491,494,492
493,525,490,494,492
493,598,491,492,491
492,631,491,493,492
493,623,490,494,492
494,589,490,494,492
493,497,490,493,492
493,420,491,492,491
493,387,492,496,492
495,373,489,493,490
493,381,492,492,490
493,391,491,492,490
493,434,491,493,492
493,494,491,493,491
494,555,491,493,490
492,620,490,494,492
492,630,491,494,492
492,617,491,494,493
492,555,491,493,491
492,457,491,494,492
494,404,490,493,491
493,377,493,494,490
493,375,491,492,491
493,384,490,493,491
491,411,490,492,492
494,461,492,494,492
495,518,491,493,492
493,593,490,494,493
492,630,491,494,492
492,625,492,494,492
495,598,490,494,491
493,511,491,493,493
493,427,492,493,491
493,390,491,492,491
494,375,490,493,492
494,381,492,493,490
492,391,489,493,490
494,429,490,495,492
494,487,491,494,491
492,548,491,494,490
492,615,492,493,492
493,631,491,492,491
494,620,491,494,493
495,566,490,493,491
494,467,491,493,491
493,408,490,494,493
493,377,492,492,492
491,377,491,493,491
494,382,491,493,490
492,406,493,493,490
492,453,492,494,492
494,510,492,492,491
494,583,491,494,492
494,626,491,492,491
493,625,491,493,493
492,609,490,494,493
492,523,492,495,493
493,433,490,492,491
494,395,492,495,491
491,373,490,493,493
493,378,491,492,490
493,388,490,492,490
494,421,490,493,492
493,480,491,493,491
493,538,490,493,490
493,610,490,494,492
492,632,491,494,490
492,621,492,494,491
492,578,489,494,492
494,480,492,494,491
492,412,490,494,492
494,379,490,492,491
494,375,490,493,492
493,383,491,494,493
492,399,489,492,490
494,446,491,495,492
493,503,491,493,491
493,573,492,493,491
492,625,492,493,491
493,625,490,492,492
492,616,491,495,492
494,535,490,494,492
493,441,491,492,492
493,400,491,494,493
493,375,490,494,492
492,378,489,492,492
494,388,492,494,490
494,414,490,494,492
494,472,491,493,491
493,529,491,492,490
493,601,491,492,491
493,631,491,493,493
493,623,492,493,491
493,586,491,495,493
493,492,491,494,492
492,417,491,493,491
491,385,492,494,491
494,374,490,493,491
493,379,491,494,492
492,396,490,491,491
494,439,490,493,491
494,497,491,494,492
494,560,492,492,490
493,623,492,494,491
493,627,489,493,491
492,618,493,494,491
492,550,493,493,491
492,451,491,494,492
493,403,491,492,491
494,374,491,495,491
492,377,490,493,492
494,386,490,493,493
493,411,490,494,493
493,462,492,493,492
493,522,491,493,492
494,595,490,494,491
493,629,491,492,491
493,623,491,491,491
494,592,491,492,491
494,504,491,494,492
493,422,491,493,491
493,388,493,493,493
494,377,491,493,491
492,382,492,494,490
492,392,492,494,492
494,433,490,493,491
493,489,491,494,492
492,551,490,492,491
494,618,490,492,492
494,629,490,494,493
493,618,492,494,490
494,563,491,494,492
493,460,491,494,492
493,408,491,493,490
492,377,492,494,490
492,375,491,494,493
492,385,490,492,491
494,407,491,494,491
494,456,490,493,492
494,514,490,493,492
493,587,490,494,493
492,628,490,494,491
494,623,489,494,491
492,606,490,493,494
495,516,492,494,492
493,429,492,493,492
494,392,491,493,491
493,377,491,494,491
494,380,489,493,490
492,388,492,493,493
492,427,490,493,492
493,482,492,494,491
492,542,491,492,492
494,612,492,493,490
493,630,491,494,492
494,618,489,492,491
495,572,491,493,492
494,473,491,493,491
492,412,491,493,493
493,379,489,493,491
493,373,491,494,492
492,384,491,493,491
492,404,492,493,490
493,449,492,494,492
493,507,490,493,492
494,575,491,491,492
491,627,491,493,492
493,627,490,493,492
493,612,491,494,493
493,529,491,493,492
493,437,491,494,492
492,396,490,493,493
492,376,492,493,491
494,378,491,492,491
493,387,491,492,490
491,420,490,493,491
494,474,491,494,491
492,534,490,494,493
494,607,489,493,492
493,632,491,494,492
492,622,489,493,493
495,582,493,493,491
493,484,491,494,492
492,414,491,493,492
493,380,490,491,490
493,374,490,493,492
494,382,490,493,491
493,397,489,493,491
493,442,491,493,492
493,501,491,494,492
492,567,492,493,490
492,624,492,492,491
492,628,491,494,492
494,614,491,495,491
492,543,490,493,492
494,447,491,492,492
493,401,491,493,493
492,376,492,493,492
494,378,491,494,491
494,386,490,493,490
492,413,491,492,491
493,467,492,493,491
493,524,491,492,492
492,602,491,493,493
494,629,492,493,491
493,624,491,495,493
493,589,490,495,492
493,498,491,494,491
492,420,491,494,491
493,384,489,492,491
492,374,492,494,493
492,382,491,492,491
494,390,490,491,491
494,436,492,494,491
493,493,492,494,491
492,557,491,493,493
493,619,491,492,492
491,629,493,493,491
492,618,493,494,491
493,557,494,493,492
493,455,491,493,491
492,404,492,494,491
491,373,490,492,492
494,376,490,493,493
493,387,491,493,493
493,406,491,492,491
493,461,491,494,492
494,517,491,494,491
492,592,493,493,491
494,629,491,492,491
494,623,490,492,492
494,598,492,495,492
492,511,491,493,491
493,425,491,493,492
492,392,490,494,493
492,376,491,494,491
492,381,492,494,492
493,389,488,493,489
493,430,491,494,492
494,485,491,493,491
493,546,490,492,492
494,614,490,493,492
493,629,491,492,490
492,620,492,495,491
494,567,491,495,493
492,467,491,494,492
492,409,491,493,491
492,378,493,493,492
492,375,492,492,491
493,386,491,494,491
494,402,489,492,493
493,452,491,493,493
493,511,491,493,492
492,582,490,494,491
493,626,490,494,491
492,627,490,493,493
494,608,492,493,491
493,522,491,493,491
492,434,491,493,491
493,395,492,495,492
495,374,490,493,491
493,379,492,494,492
492,388,490,494,493
492,424,491,494,492
493,478,491,493,491
493,538,492,493,490
492,610,490,493,492
493,628,490,492,492
494,619,490,493,493
496,576,490,493,492
492,480,492,494,492
493,413,490,493,491
