Sensor0,Sensor1,Sensor2,Sensor3,Sensor4

493,517,491,493,493
492,592,491,494,493
491,629,492,493,492
493,426,491,494,491
493,391,7,491,492
492,494,623,490,492
492,494,599,492,493
492,492,512,492,493
492,493,426,491,494
491,493,391,490,494
493,493,376,490,495
492,492,382,492,494
491,492,389,491,494
494,494,430,492,494
493,494,486,492,494
491,494,547,490,492
492,494,614,490,493
493,494,631,491,493
494,493,620,492,493
490,493,569,490,495
493,493,467,492,494
492,492,409,491,495
491,492,378,492,495
491,493,377,492,494
493,494,383,490,493
491,493,403,490,494
492,492,453,491,494
491,493,510,491,492
491,494,580,490,492
491,494,627,492,494
491,493,625,491,494
491,493,608,492,495
492,492,522,491,494
493,492,432,491,494
492,492,396,492,493
492,494,374,492,493
491,493,381,490,494
492,493,387,490,492
491,494,421,490,492
491,493,477,490,493
491,493,539,490,493
490,491,609,491,494
492,492,631,490,492
492,494,621,492,494
491,491,577,493,494
491,492,478,492,494
492,492,413,491,494
493,494,378,491,492
491,492,376,493,494
493,494,384,492,495
494,492,400,490,494
492,493,447,491,492
491,493,502,490,493
491,492,571,490,492
492,492,625,493,493
491,493,625,492,492
491,494,613,493,493
491,493,536,491,494
492,492,439,491,493
493,493,400,491,492
492,493,374,491,493
492,494,377,490,493
493,494,388,490,491
491,494,417,492,494
492,493,470,490,493
491,492,532,492,494
492,493,604,490,494
493,492,631,491,494
492,492,623,492,493
492,494,581,493,494
491,493,490,491,493
492,492,416,491,494
491,493,382,490,492
490,493,374,489,492
492,493,383,493,495
493,493,395,490,493
490,493,440,490,493
492,493,497,490,493
492,491,562,490,493
491,491,622,490,492
492,493,626,491,494
491,493,615,490,492
490,491,545,492,493
491,492,448,490,493
492,492,401,490,492
491,493,374,490,493
490,492,377,490,493
493,493,386,491,491
490,490,413,491,493
491,492,463,490,492
491,492,522,490,492
489,492,598,490,494
490,493,627,490,493
490,491,624,489,493
492,495,590,490,492
492,493,501,490,493
491,492,421,491,493
491,492,387,489,492
492,491,376,491,493
492,493,381,491,494
492,493,390,490,492
493,493,434,489,492
493,492,489,491,492
491,492,553,490,492
490,493,620,491,494
491,492,628,491,495
491,491,618,492,495
491,492,561,492,493
492,493,458,491,494
492,491,405,490,494
491,492,377,491,492
491,494,375,489,493
492,494,385,491,494
493,494,407,492,491
491,493,457,490,493
492,494,515,491,492
489,492,589,492,493
490,493,626,491,494
489,493,623,490,492
492,491,605,490,491
492,493,512,490,494
492,494,428,491,493
491,493,391,490,493
491,494,374,489,492
491,494,382,491,493
491,493,390,489,493
491,492,428,491,492
491,493,482,490,493
491,492,545,490,494
492,492,614,490,494
492,491,630,490,493
493,494,618,492,493
491,495,572,490,494
491,493,469,492,494
492,493,409,490,493
492,495,377,490,492
490,492,376,492,494
493,492,384,490,492
492,494,406,492,496
491,493,451,491,494
491,493,509,490,493
491,493,579,490,493
493,492,625,491,493
493,492,627,491,492
492,494,609,490,493
493,494,525,490,494
493,493,435,490,493
491,493,396,491,495
493,491,374,489,493
492,492,380,492,493
490,492,387,493,493
490,492,419,490,492
491,493,475,490,492
492,492,537,491,492
492,494,606,491,494
491,492,631,490,494
493,492,621,491,495
493,492,579,491,495
492,492,482,490,493
491,492,414,491,494
493,493,380,489,492
490,493,373,490,493
491,494,381,490,493
493,496,397,490,495
491,493,446,491,494
492,493,503,491,493
492,492,570,491,494
492,492,624,492,494
491,493,626,491,493
492,493,616,490,494
490,494,536,492,495
493,493,443,491,493
492,493,400,490,493
493,494,374,489,493
493,492,379,490,494
493,492,386,490,492
491,491,415,491,494
493,493,468,490,493
490,492,528,492,493
490,492,601,491,493
491,494,629,490,494
491,492,623,490,493
492,495,587,492,495
491,493,494,491,494
492,492,418,491,494
492,492,386,490,495
493,494,374,490,493
490,492,381,492,494
493,493,393,491,491
491,493,437,491,493
491,492,496,491,492
492,493,557,492,493
490,493,621,491,494
493,494,627,492,493
492,492,618,492,495
492,491,553,492,494
492,492,453,491,494
492,492,404,491,494
493,492,376,492,493
492,494,377,492,494
491,494,386,491,495
494,495,409,491,494
494,494,461,490,493
493,493,519,491,493
491,492,595,492,492
492,494,628,492,493
492,493,624,492,492
491,493,596,492,492
491,494,506,490,493
492,493,422,491,493
491,492,390,492,494
492,495,375,490,493
492,492,381,491,494
492,492,392,490,495
491,494,430,490,493
491,492,487,490,492
492,493,551,491,492
490,492,616,492,490
491,493,628,490,492
492,494,617,489,492
493,492,566,493,494
492,493,463,490,493
492,493,407,491,495
493,492,378,491,496
492,491,375,492,494
491,492,383,490,495
495,494,405,491,493
490,492,455,490,493
491,494,512,490,492
491,493,584,489,493
493,494,627,490,494
491,493,624,491,494
492,491,608,490,493
492,494,518,491,495
493,492,430,492,494
490,492,393,492,494
490,492,375,490,494
493,493,379,491,492
492,491,390,491,492
492,494,425,489,492
491,493,481,490,493
492,492,542,489,492
494,492,611,491,492
491,494,631,492,494
491,493,620,490,494
490,492,573,493,493
491,493,474,491,494
491,493,411,490,493
492,492,380,491,492
491,494,375,491,493
491,493,384,490,494
492,492,402,490,494
491,492,448,491,494
492,492,506,490,492
492,492,575,492,492
492,493,626,491,492
492,494,625,489,492
492,494,612,490,493
492,494,529,491,494
492,492,438,490,493
493,492,396,491,493
491,491,376,491,493
491,493,379,492,494
491,493,387,492,494
491,493,416,491,493
493,493,474,491,493
491,493,533,491,494
490,491,607,489,493
493,493,632,491,494
492,492,622,492,494
493,492,580,490,492
492,492,487,491,494
491,493,414,490,493
492,493,383,492,493
491,493,374,491,492
491,493,381,490,494
492,492,398,489,492
492,493,442,491,493
491,492,500,489,493
492,492,566,490,493
493,493,624,491,494
491,494,626,489,493
489,492,615,493,494
494,493,542,491,493
492,492,446,491,492
491,492,400,490,492
491,493,373,491,492
492,493,378,492,495
493,495,387,490,493
490,491,412,491,492
492,493,466,489,493
491,493,525,490,493
492,492,599,490,492
491,493,628,490,494
491,491,621,490,492
492,492,590,491,495
492,492,499,490,494
492,492,420,491,494
491,493,385,489,492
490,492,375,491,494
492,491,381,490,492
492,494,392,490,492
492,494,436,490,492
491,492,493,490,493
491,492,557,489,493
492,493,618,490,492
492,492,629,491,494
491,492,618,491,494
491,492,557,492,493
492,492,456,490,493
493,492,406,490,492
492,494,376,492,495
490,493,377,490,494
493,493,386,490,494
494,493,410,491,496
494,494,457,491,494
491,493,518,491,493
492,493,591,491,493
490,493,627,490,492
492,494,623,490,492
492,494,599,492,495
492,492,510,490,493
492,492,424,491,493
493,492,391,490,494
494,492,376,490,494
491,491,381,492,494
492,493,388,489,493
491,492,429,489,493
492,492,485,490,493
490,493,546,489,492
492,494,614,489,493
492,493,629,490,494
493,493,617,490,492
493,492,570,491,493
492,493,465,491,494
492,492,410,491,493
491,492,377,492,493
491,492,374,490,494
494,491,383,489,493
492,491,405,492,493
493,493,453,489,493
492,493,511,490,493
492,491,582,490,494
491,494,625,490,494
492,493,625,490,494
493,491,607,492,492
491,494,521,490,493
491,493,434,490,492
491,493,396,492,495
491,494,375,490,493
491,493,378,490,495
492,492,390,491,496
492,492,424,492,493
491,492,479,491,493
491,492,538,490,494
493,492,609,490,492
492,491,630,491,494
493,494,620,489,494
494,494,577,490,494
493,493,479,490,494
492,492,412,490,493
492,492,382,489,493
492,493,374,491,493
491,493,382,491,492
492,493,399,490,491
491,493,447,490,494
492,492,506,489,492
491,492,571,491,494
493,492,625,491,494
492,492,628,491,494
490,492,613,492,493
493,494,533,491,494
492,492,441,490,493
492,493,396,491,493
492,494,373,490,493
493,494,378,489,493
492,493,388,491,495
491,493,414,491,495
493,493,471,490,493
491,493,531,491,494
491,492,604,491,493
490,494,629,490,492
491,493,623,491,495
492,495,582,489,493
491,492,490,491,494
492,492,416,490,494
493,493,385,490,493
493,492,376,490,492
492,493,380,491,494
491,492,393,489,492
494,491,440,490,493
491,492,497,490,492
490,493,561,489,492
491,491,623,491,494
492,493,628,490,492
491,493,615,490,495
493,491,547,491,495
493,492,449,490,494
493,492,403,491,493
490,492,374,489,494
493,493,376,490,492
492,491,387,491,493
492,494,409,489,492
492,493,464,490,492
492,493,522,491,492
491,493,596,489,494
493,492,629,490,493
492,492,623,491,493
491,492,593,491,493
491,493,502,491,493
492,492,421,490,494
492,493,387,489,494
491,491,376,490,494
492,492,381,490,494
492,492,393,491,495
493,492,435,490,493
492,493,490,490,493
492,493,553,489,493
490,492,617,490,492
492,493,627,490,493
493,494,618,489,492
493,495,561,491,494
492,492,460,490,493
493,492,406,491,492
491,491,377,491,495
491,492,376,491,493
491,492,385,491,492
491,492,407,490,494
491,493,456,490,493
492,492,516,490,493
492,493,587,489,493
493,493,628,489,493
493,492,625,490,492
492,494,605,491,495
492,494,514,490,493
493,492,429,491,493
492,492,391,491,492
491,493,374,490,492
490,491,380,491,493
493,493,389,493,494
491,493,428,491,494
492,493,482,490,494
493,492,545,490,494
491,492,614,492,493
490,492,629,490,494
491,494,617,490,494
493,492,573,490,493
492,493,469,491,493
492,493,409,490,493
493,493,379,492,493
491,492,376,490,494
492,494,383,489,492
491,491,404,492,493
491,492,450,491,493
491,492,508,491,492
492,491,578,490,492
491,494,624,491,493
491,492,626,490,493
494,492,610,490,495
493,493,526,490,494
493,493,436,490,493
491,492,395,491,494
493,494,374,489,493
491,493,377,491,492
491,494,386,491,493
492,495,419,490,493
492,494,475,490,493
491,492,536,490,493
493,493,607,491,492
491,492,631,491,494
491,491,621,491,494
490,492,580,492,493
493,493,482,490,494
492,492,414,490,494
491,492,379,489,492
491,493,374,489,493
493,493,382,489,494
493,492,396,491,492
491,491,444,490,494
491,492,501,489,493
490,491,568,491,493
490,491,622,490,492
491,494,625,490,494
492,491,616,489,493
493,494,538,491,494
492,494,444,490,494
493,492,399,490,495
494,492,375,490,495
492,492,378,491,494
492,493,385,490,493
491,492,412,489,494
492,492,467,490,493
491,493,525,489,492
491,494,599,489,492
493,494,631,492,493
490,492,623,491,495
493,494,585,489,496
491,492,495,491,495
492,492,418,491,494
492,492,385,492,493
493,493,375,490,493
491,493,382,491,494
491,493,392,490,493
494,494,437,491,494
493,493,495,490,493
492,493,557,490,492
492,491,622,491,493
493,493,628,491,492
490,493,615,491,493
491,492,551,491,494
492,493,453,491,493
492,493,405,491,494
491,494,374,488,493
491,493,377,491,494
493,492,387,491,495
493,492,411,491,495
492,492,461,490,492
492,493,519,490,493
490,492,595,489,494
493,494,628,490,493
492,493,623,489,493
493,494,596,489,493
494,492,507,491,493
492,492,422,490,493
491,493,389,492,495
492,491,376,492,494
490,492,379,491,492
491,493,390,490,495
494,492,430,490,493
491,492,486,490,493
491,493,551,489,492
492,494,615,489,494
492,492,629,490,494
493,490,619,490,492
491,494,562,492,495
492,492,462,490,493
492,492,408,491,493
491,492,375,493,493
492,493,374,490,493
490,492,385,491,494
491,494,403,489,494
491,492,455,490,492
491,493,512,490,493
492,492,584,489,493
493,493,627,491,493
492,494,626,492,495
491,494,605,490,492
492,492,520,492,494
492,492,431,492,493
492,491,394,493,494
493,495,375,490,492
490,493,379,490,494
493,492,388,492,491
490,492,424,491,491
490,490,479,491,492
491,492,540,490,491
491,492,613,491,493
492,493,628,490,493
491,492,621,489,493
492,495,573,489,494
493,493,474,489,493
493,493,412,490,493
491,493,379,489,494
493,492,373,489,492
492,492,385,492,495
491,491,402,492,493
490,492,447,490,493
492,493,506,489,492
491,493,572,491,494
491,491,625,489,492
493,493,627,490,494
492,492,612,490,494
494,492,529,490,493
491,492,437,490,494
492,493,396,489,494
491,491,377,491,493
490,492,377,491,492
491,493,386,490,492
492,494,416,491,493
492,492,471,491,493
491,492,533,491,493
492,493,606,489,493
492,492,630,490,494
492,491,621,491,494
492,495,579,489,495
492,493,487,490,494
492,493,416,491,493
492,493,382,490,492
491,493,373,489,493
493,494,383,491,494
491,495,396,490,494
492,494,441,490,494
493,493,502,490,494
491,491,565,491,494
490,492,623,491,494
492,493,628,490,492
490,494,615,490,495
494,495,541,489,493
492,494,448,491,494
492,493,400,490,494
493,493,375,489,494
492,494,376,489,494
492,491,386,489,493
492,494,414,491,492
491,492,466,490,493
491,492,524,490,492
491,493,600,490,494
491,494,628,490,493
491,492,623,491,494
493,493,591,490,495
493,492,499,491,494
492,492,420,490,492
492,494,386,492,494
490,491,374,490,494
493,493,379,490,493
493,495,392,491,493
492,494,435,490,493
491,493,493,490,493
492,493,557,490,492
490,493,618,490,494
492,492,629,491,494
491,492,618,492,494
490,491,557,492,494
492,492,457,490,493
493,492,405,491,493
492,491,377,490,492
492,494,376,489,493
492,493,385,490,493
493,493,408,489,492
491,493,458,490,493
491,492,515,489,492
493,492,591,491,493
491,493,627,491,492
491,493,622,490,492
492,492,603,491,495
493,494,511,490,494
492,492,427,490,493
493,493,392,490,494
493,493,376,490,495
491,491,381,489,493
493,493,390,492,493
490,493,428,489,493
491,492,485,490,493
491,493,546,490,492
492,495,613,490,493
493,494,629,490,494
492,494,620,492,495
493,493,567,491,493
492,493,468,491,493
493,492,411,492,494
491,492,377,493,494
491,493,376,490,494
492,494,383,490,495
493,491,405,489,493
494,495,453,491,493
492,493,511,491,493
493,493,581,491,492
491,493,629,491,494
491,494,625,490,493
491,492,610,492,494
491,493,524,492,494
492,493,433,492,493
493,492,396,490,492
492,494,374,491,494
491,492,378,489,493
495,494,389,489,494
493,494,423,491,494
492,492,476,490,493
492,493,537,489,492
490,492,611,492,493
492,493,630,491,492
492,494,620,490,492
491,494,576,491,494
492,494,479,491,494
492,493,413,490,493
493,493,380,492,493
494,492,376,491,494
492,492,384,491,494
492,493,401,493,495
494,495,445,491,494
492,494,504,491,494
492,492,569,490,492
492,495,624,490,493
493,494,628,491,494
493,493,612,493,493
491,493,535,490,494
492,493,441,491,494
492,492,398,491,495
492,493,377,491,494
491,493,377,492,493
491,493,386,491,495
494,492,414,490,492
491,492,470,490,493
491,493,529,489,492
493,494,604,489,493
492,493,630,491,494
492,494,621,489,494
491,492,587,490,493
492,493,489,491,494
492,492,418,491,493
492,493,384,492,492
491,493,375,491,494
491,494,382,489,493
491,493,395,492,494
493,492,440,489,494
493,493,498,490,494
492,492,563,491,493
493,494,620,491,493
491,494,630,490,494
492,494,615,490,493
492,495,546,490,493
492,494,452,490,493
492,493,403,490,493
490,492,376,492,494
493,492,379,490,492
491,494,386,491,496
493,493,412,492,494
492,493,465,492,493
491,493,520,490,494
493,494,596,490,492
492,492,631,491,493
492,493,623,490,494
494,495,595,489,494
494,493,504,491,494
492,493,421,490,494
492,493,389,490,492
492,491,375,492,493
491,493,380,491,492
492,494,391,491,492
491,492,435,491,494
491,493,490,490,493
491,493,553,489,493
493,493,618,490,494
493,492,630,491,494
491,492,619,492,495
491,492,560,490,494
493,493,461,490,494
493,494,407,491,493
492,494,373,490,492
492,495,376,489,493
493,494,386,490,493
491,493,406,490,495
494,494,458,491,493
491,492,516,491,494
491,492,588,491,494
491,493,628,491,493
490,492,626,491,495
492,494,603,490,495
492,493,517,491,493
492,493,428,490,494
493,493,394,490,494
494,493,377,491,492
491,494,380,491,494
492,494,390,489,492
490,492,427,491,493
492,492,481,490,492
492,494,544,490,491
491,494,611,490,493
490,492,630,490,493
494,493,620,491,491
492,492,573,491,495
492,493,472,490,493
492,493,412,490,493
491,494,377,489,493
491,493,374,490,494
492,492,385,490,493
492,496,401,490,494
493,494,450,490,493
492,493,509,492,492
490,493,578,489,495
493,494,626,490,493
491,493,627,492,493
490,493,612,493,493
491,493,528,491,493
492,492,436,491,493
491,493,395,491,495
492,491,374,489,493
492,493,379,489,494
492,492,388,489,494
493,492,421,489,494
492,493,473,490,493
492,492,535,490,492
492,494,607,491,493
491,493,628,490,492
492,494,620,489,492
491,495,579,492,494
491,492,482,490,494
493,492,415,491,493
492,492,383,490,495
493,492,376,491,494
492,492,383,491,493
492,493,396,489,492
491,492,442,489,493
492,493,503,490,492
491,493,566,489,492
492,495,623,489,493
493,494,627,491,492
491,491,616,490,496
492,495,538,489,494
492,493,445,491,494
492,492,400,491,493
491,492,374,492,492
491,494,377,491,494
492,491,385,489,493
493,492,414,492,493
493,494,467,490,493
493,493,526,490,494
492,492,602,490,495
492,494,629,489,493
491,493,621,490,494
494,495,587,491,492
491,493,494,491,493
492,492,418,490,493
493,494,387,492,494
491,495,374,490,494
491,493,380,490,494
492,492,396,490,495
491,491,437,490,493
491,492,494,490,492
492,493,558,490,491
491,492,621,490,494
492,493,628,489,492
493,494,616,489,492
493,494,553,489,494
493,493,454,490,493
491,492,404,491,494
492,492,376,490,493
493,494,376,492,492
490,492,384,491,493
491,493,407,491,493
492,494,462,491,493
492,493,519,489,492
491,492,594,492,493
494,493,630,491,494
492,491,624,491,494
491,491,599,491,492
493,494,507,491,494
492,492,422,490,493
493,493,389,491,492
491,493,374,489,492
492,494,379,489,493
493,492,392,492,493
493,493,431,490,493
491,492,486,490,493
492,492,551,491,494
490,492,616,491,493
491,492,628,491,493
491,493,620,491,494
494,493,563,491,493
493,492,465,490,493
491,493,408,490,493
493,493,375,489,493
493,492,376,490,492
490,493,383,491,494
491,491,403,489,492
493,492,455,491,493
491,492,512,491,492
492,493,582,491,491
492,492,629,491,494
491,493,625,489,493
490,493,608,489,494
494,493,520,491,493
492,492,431,490,494
492,492,394,489,492
492,495,377,492,492
490,492,379,489,494
491,494,388,491,492
491,495,424,491,493
491,493,478,491,493
492,493,540,490,492
490,492,611,491,494
491,491,627,490,491
492,491,621,492,493
491,491,576,491,494
491,492,476,490,493
492,493,413,489,493
491,493,377,490,495
492,491,376,489,492
492,493,384,490,493
491,492,400,489,493
492,491,447,489,492
491,492,506,490,493
490,493,571,488,492
491,492,625,490,492
490,493,625,490,492
491,493,611,490,492
492,491,533,490,493
492,493,440,490,493
491,492,398,489,493
492,492,376,489,494
491,491,379,491,494
490,491,387,491,495
491,495,417,490,493
491,492,471,490,493
493,492,531,489,491
491,494,603,489,491
491,493,630,489,494
493,492,622,490,492
491,493,584,491,495
491,493,486,490,493
492,492,417,491,493
491,492,384,492,493
489,492,373,491,492
492,491,383,490,492
491,493,393,491,494
490,491,440,489,492
492,492,499,489,492
491,492,563,489,494
492,491,620,489,492
492,492,627,492,493
492,492,615,490,493
491,492,542,491,493
492,492,448,491,494
490,493,400,490,494
492,494,373,490,494
490,493,377,489,494
492,494,384,491,493
495,493,414,492,495
492,493,466,492,493
492,492,523,491,492
493,493,598,489,491
491,493,628,491,494
491,491,621,488,492
493,495,590,489,493
493,493,500,491,493
492,492,419,492,492
491,492,388,492,494
490,493,373,490,494
490,492,381,492,492
490,493,391,492,492
490,492,433,489,494
492,493,491,489,495
491,494,556,490,496
490,495,618,489,497
492,493,629,489,497
492,493,619,491,497
492,492,559,491,497
492,495,458,490,495
491,493,406,490,493
493,492,374,491,489
491,493,375,489,489
491,492,384,490,490
493,493,408,493,491
491,492,458,490,491
491,491,514,488,492
491,491,591,490,493
491,492,628,491,492
490,493,623,491,494
493,492,603,491,492
491,494,512,491,494
492,492,425,489,494
492,493,392,489,496
492,493,376,490,497
491,494,379,489,495
491,493,392,492,495
492,494,428,491,494
491,493,484,490,493
490,493,546,491,490
490,493,613,490,491
491,492,630,492,491
490,492,620,490,494
491,492,569,492,496
493,493,469,490,494
492,492,411,491,494
490,491,378,492,492
492,493,375,491,491
490,493,385,490,493
492,493,400,489,490
491,493,452,490,491
491,492,509,490,493
492,492,578,491,492
493,492,628,490,493
492,493,624,491,495
490,492,610,492,496
490,493,524,491,496
491,494,435,490,496
492,492,395,489,493
493,491,378,490,494
494,493,378,489,496
493,494,390,490,495
493,494,422,492,491
492,492,475,493,491
492,493,537,496,490
490,490,608,494,490
492,491,627,494,490
492,493,619,493,491
491,494,576,491,493
493,492,480,492,493
492,493,413,491,492
491,491,379,490,494
493,491,376,488,494
490,491,383,489,494
490,492,399,487,494
493,492,444,490,493
490,492,503,490,494
491,493,567,489,492
492,494,624,490,492
492,493,627,490,494
491,493,611,491,495
493,492,537,488,494
491,493,441,488,494
491,492,398,489,493
491,492,375,491,492
490,493,376,489,493
491,491,387,490,494
492,494,414,488,495
490,492,468,490,495
491,493,529,490,495
492,492,604,491,496
490,492,629,488,494
492,493,621,490,492
490,493,585,489,495
491,492,490,490,492
492,492,417,489,493
492,494,384,489,493
490,492,374,490,493
493,492,383,489,489
491,493,395,491,493
492,492,439,491,494
492,493,496,490,493
491,492,560,490,495
493,493,619,489,493
491,492,629,491,494
492,492,616,489,494
494,493,550,489,496
493,494,452,490,495
493,493,404,489,496
492,495,377,491,495
490,494,377,490,496
491,493,384,489,494
490,494,408,489,494
491,494,463,489,495
491,494,521,489,494
492,494,597,490,492
490,493,630,490,494
491,492,623,491,492
491,491,597,492,491
491,491,503,491,492
493,492,421,490,493
493,491,390,490,494
491,494,372,488,495
492,494,381,488,495
493,493,392,489,495
491,495,430,491,495
493,493,489,490,491
492,492,551,491,492
491,491,616,491,491
491,493,628,489,491
492,493,617,489,491
494,491,565,491,494
493,493,462,493,495
491,492,406,492,496
493,492,377,491,496
492,492,377,492,494
490,492,383,490,493
493,492,405,489,491
491,492,456,487,493
491,491,512,488,493
492,494,584,488,493
491,494,628,489,493
490,493,623,491,494
492,491,604,491,491
490,492,517,490,494
492,492,429,491,493
492,491,394,490,493
490,492,375,488,496
491,493,378,488,495
490,493,391,489,492
491,494,425,487,492
492,492,480,488,491
491,492,543,488,492
492,494,612,491,493
491,492,630,490,494
492,494,619,488,494
492,492,574,491,495
492,494,474,490,494
491,492,413,490,494
491,492,379,489,491
491,494,377,490,490
490,492,383,489,492
492,491,402,488,493
492,492,450,489,493
491,492,505,488,493
492,492,576,487,493
490,494,625,491,493
490,492,623,492,493
491,493,611,492,493
489,493,528,489,492
492,492,436,488,491
492,492,398,489,491
495,493,374,489,493
492,491,378,488,494
492,491,388,488,494
491,491,419,489,493
491,492,470,489,493
492,491,533,492,493
492,491,606,495,493
490,492,627,495,492
491,492,620,494,491
490,493,579,494,493
492,492,483,490,493
492,492,414,487,493
491,492,379,488,493
490,493,372,488,493
491,493,382,489,496
492,493,394,490,493
490,493,443,489,493
489,492,499,490,493
491,493,563,489,491
491,492,622,490,490
494,491,627,491,493
493,494,612,490,495
493,492,539,491,495
492,493,444,492,495
491,493,400,490,493
492,494,375,489,491
491,491,378,491,493
493,493,386,486,495
490,491,415,486,494
491,493,465,489,493
492,494,525,489,491
493,493,600,492,492
492,492,629,490,493
494,493,621,489,491
492,491,589,488,495
493,492,496,489,494
494,492,420,490,492
492,493,386,489,498
489,492,375,488,493
494,493,381,491,497
490,495,394,492,499
491,493,437,489,492
491,492,493,488,490
492,490,555,490,492
493,493,620,490,493
491,493,626,491,493
491,494,615,490,493
490,494,553,489,491
492,492,456,489,491
492,490,403,489,491
493,491,377,491,492
493,491,377,490,493
494,491,385,492,492
494,493,408,490,492
490,492,459,491,492
492,493,516,491,491
491,492,593,489,494
493,492,627,488,495
493,493,624,489,495
491,492,597,488,492
492,492,508,489,493
492,493,423,489,495
492,491,389,491,495
493,491,374,492,494
492,492,379,490,494
493,494,391,491,494
490,492,430,488,491
493,493,486,489,492
492,491,547,490,493
489,492,614,491,493
491,493,628,491,494
492,492,620,494,495
491,494,565,494,496
492,493,464,493,496
493,494,407,489,495
493,496,376,487,490
493,493,377,490,490
490,492,383,487,493
491,491,406,491,493
494,493,453,490,495
493,493,510,490,495
493,493,583,489,491
491,494,626,491,493
492,491,624,489,492
494,492,608,492,493
492,493,520,490,493
493,493,433,489,493
493,492,396,491,494
492,494,372,488,492
492,493,378,489,494
493,491,390,490,496
492,492,423,489,496
490,494,478,489,495
491,494,539,489,492
493,493,608,490,496
492,492,631,490,491
495,491,618,489,495
494,493,574,489,496
494,494,477,490,495
492,493,412,490,496
492,492,378,489,497
491,493,377,490,499
491,492,384,490,496
494,493,400,492,493
492,493,447,490,487
493,490,503,490,490
493,490,573,489,491
492,494,625,489,493
493,492,626,489,494
494,491,614,490,492
492,494,534,491,494
493,493,439,490,493
493,492,398,492,492
490,491,374,491,493
491,493,375,489,493
493,494,386,488,496
491,492,417,489,495
492,493,470,489,493
491,493,532,489,494
491,491,604,490,494
492,492,629,490,493
492,493,622,490,493
490,493,581,491,494
495,492,490,491,494
492,493,415,490,495
492,493,382,489,495
494,493,375,490,494
491,494,383,491,496
492,495,393,490,491
492,493,442,494,491
491,493,498,493,496
492,492,560,492,494
493,493,623,492,492
494,492,626,492,493
492,491,616,489,493
494,492,546,491,494
494,492,448,489,497
494,492,402,490,499
494,494,373,491,496
494,492,376,493,495
495,492,387,493,492
490,492,409,493,493
491,492,463,492,495
493,491,521,491,492
491,490,597,488,495
492,494,627,485,492
493,492,624,489,500
490,492,594,491,502
492,494,502,490,497
492,494,423,490,491
491,492,386,489,491
493,491,372,488,489
493,492,380,488,493
493,493,391,488,496
494,493,433,490,496
490,493,492,489,499
491,495,552,489,497
490,492,620,492,490
491,492,627,493,490
492,492,615,491,488
495,492,558,493,488
494,491,458,492,494
491,491,406,494,495
494,494,376,494,495
493,491,377,496,494
492,491,385,499,497
494,496,406,498,498
490,494,458,494,500
492,494,516,492,495
492,493,587,487,495
494,494,627,486,494
494,493,624,488,488
491,489,603,488,491
493,491,512,490,494
494,492,427,490,494
492,490,392,491,495
491,490,375,490,495
493,492,381,491,493
492,493,390,490,494
493,494,426,489,493
491,493,482,492,492
492,492,544,494,492
492,492,612,494,495
492,493,628,492,496
490,491,618,488,495
494,494,570,488,495
494,493,470,486,496
491,492,409,489,496
491,493,379,490,497
491,494,375,489,493
491,491,382,491,492
495,492,405,492,493
494,492,451,494,493
492,492,508,494,493
493,493,577,495,494
490,491,625,490,495
493,493,624,488,492
494,493,609,488,493
494,493,525,489,495
494,493,434,490,495
493,493,396,489,494
493,493,373,490,496
491,492,380,490,496
490,493,388,491,493
491,490,419,493,490
492,491,474,493,491
493,492,535,492,492
491,490,608,491,493
493,493,630,490,494
493,492,621,489,495
495,491,577,487,495
494,493,481,489,497
492,492,411,490,494
494,493,380,492,494
491,492,374,491,491
492,493,380,490,495
491,492,399,489,499
492,495,444,488,498
491,492,502,490,497
492,493,569,490,493
493,490,624,492,491
493,489,626,491,492
495,492,614,495,493
492,491,537,490,495
493,491,442,491,495
492,493,398,490,496
492,494,373,489,499
493,495,378,490,502
491,496,387,489,501
494,495,412,487,494
492,493,470,488,490
491,491,527,489,487
490,490,601,490,492
492,491,630,490,494
492,493,622,492,495
492,490,588,495,494
493,493,494,498,492
492,492,418,495,493
491,491,386,491,493
489,493,375,490,495
489,492,380,490,496
495,491,393,494,493
493,491,436,493,490
491,490,494,489,493
492,490,559,486,493
492,494,619,488,496
490,492,628,489,499
493,492,618,489,498
493,492,553,491,495
493,492,452,490,494
492,492,402,488,496
491,492,375,492,496
492,493,376,489,497
491,497,386,490,499
493,497,409,495,497
495,495,463,505,496
494,495,522,506,487
494,491,593,505,487
496,487,631,502,490
491,489,624,494,492
490,491,596,491,494
494,491,506,486,495
492,492,421,483,495
492,491,387,483,496
492,495,375,484,498
492,494,382,486,501
490,494,389,489,498
490,493,433,491,495
491,493,487,492,491
492,490,550,494,489
491,489,616,500,489
493,490,628,497,492
493,492,617,501,495
495,490,564,502,493
497,491,464,498,495
495,493,406,487,497
491,493,376,487,496
491,492,375,490,496
492,495,382,483,494
491,493,406,485,497
494,493,454,485,498
494,493,512,486,497
491,495,584,486,493
490,492,626,489,489
490,490,626,488,494
491,492,605,490,498
493,492,519,490,499
494,494,431,489,501
492,494,394,491,500
494,494,375,490,495
491,494,381,490,493
490,492,387,489,488
490,492,423,487,490
491,492,479,487,494
491,492,541,488,497
491,492,610,490,497
492,491,631,490,494
493,492,619,491,490
491,490,574,492,493
493,492,474,492,496
492,491,411,491,497
492,494,377,491,493
490,492,376,492,494
493,493,383,492,492
493,492,402,493,493
493,491,448,493,496
492,492,505,491,498
490,492,574,491,495
493,491,624,489,494
492,493,624,488,492
492,493,611,489,495
491,492,531,490,499
493,495,438,488,496
493,493,397,488,497
493,492,376,490,496
492,492,379,490,494
491,491,387,491,495
490,491,417,491,498
494,493,473,491,497
491,493,533,492,497
492,495,605,494,493
494,494,631,494,491
493,489,621,495,490
492,491,579,494,495
493,491,484,489,493
493,490,414,486,491
492,491,381,490,491
491,492,373,491,492
492,489,382,493,496
493,493,393,493,496
490,491,441,493,495
492,492,499,492,495
493,492,564,494,495
493,491,623,497,492
492,493,627,500,496
491,494,616,495,496
492,493,540,485,496
491,493,445,483,494
490,493,399,485,497
492,495,374,487,499
492,492,375,489,501
493,493,386,489,499
490,494,414,489,500
492,496,467,491,493
492,492,525,492,490
491,491,599,494,493
492,494,629,497,492
492,490,624,495,492
494,492,588,495,490
495,491,499,497,493
493,490,420,495,493
491,492,386,494,495
491,494,373,492,496
489,492,380,489,498
493,493,391,487,497
493,495,434,486,495
493,493,492,488,493
495,494,555,489,490
491,491,619,488,492
492,488,628,496,496
493,490,618,500,499
493,493,559,503,496
493,493,455,496,497
492,491,403,490,495
491,491,375,486,491
491,492,374,485,494
495,493,384,483,494
493,493,407,484,495
490,492,457,486,496
492,493,516,489,498
492,493,592,492,497
492,492,627,490,493
490,492,623,490,491
491,490,602,489,489
492,493,509,490,493
492,491,424,489,493
493,492,390,488,497
493,493,375,490,498
492,491,379,489,495
492,492,390,493,495
494,493,429,491,491
492,491,484,492,494
492,493,545,490,491
492,493,613,488,495
493,493,629,489,494
489,492,619,486,493
494,493,568,491,492
495,491,467,492,492
493,491,409,490,494
491,492,378,492,495
491,492,375,491,493
491,493,382,494,495
492,491,402,494,493
492,492,451,493,492
493,491,509,490,494
493,493,579,488,497
489,494,627,487,499
491,496,625,486,496
489,493,610,489,494
491,491,522,488,493
493,491,435,490,497
493,490,395,489,495
492,493,376,490,496
491,493,379,489,498
492,492,388,490,496
494,491,421,491,494
493,491,476,490,492
492,492,536,489,490
490,490,608,490,492
493,492,628,489,493
492,494,618,488,495
492,495,575,488,497
493,494,480,491,497
491,492,412,492,493
490,493,379,495,493
493,490,376,500,492
492,490,382,499,491
492,492,399,499,495
493,494,445,493,496
490,497,504,486,498
492,498,571,483,495
491,495,624,486,492
492,491,627,489,494
493,492,612,490,495
493,489,536,490,505
492,498,444,493,507
494,497,400,498,499
492,494,376,499,496
491,495,377,494,483
492,489,387,492,487
491,489,412,490,487
493,490,470,488,489
492,491,528,487,494
491,490,602,487,496
492,491,629,488,496
491,493,621,489,495
491,494,584,489,497
492,495,489,491,492
492,492,415,489,491
492,491,381,487,492
492,491,375,490,492
492,491,381,491,495
492,492,392,490,498
491,491,439,490,495
492,491,495,489,494
490,491,559,488,492
492,491,618,489,492
492,491,627,493,494
493,493,615,494,493
493,494,546,497,494
494,493,449,496,493
493,493,403,490,493
490,493,372,491,495
490,492,376,486,494
493,492,384,489,493
491,491,408,490,492
491,492,462,488,494
491,492,522,489,496
492,493,595,488,496
491,493,628,491,496
492,491,624,492,494
492,490,594,488,494
492,491,503,490,496
492,492,421,494,499
492,494,389,492,498
491,494,373,490,494
493,494,379,487,494
493,493,390,486,498
490,494,434,490,498
491,494,489,489,491
492,492,553,490,488
492,489,618,491,488
491,490,627,491,489
491,492,616,491,491
492,491,563,491,494
493,492,459,492,493
492,492,407,492,495
494,494,375,492,496
493,494,377,493,499
492,494,386,489,493
492,496,408,489,490
491,491,455,486,488
490,490,514,487,493
491,492,584,491,492
493,491,626,490,492
492,489,625,491,494
492,492,603,492,495
491,492,516,490,497
493,492,429,490,497
492,491,393,491,496
492,491,374,491,492
493,493,379,496,491
494,491,390,492,490
492,493,425,490,492
493,493,481,489,494
492,493,543,487,496
494,495,612,492,497
491,494,630,493,498
492,494,619,492,495
491,493,574,492,497
490,493,472,488,495
491,493,411,489,495
493,493,380,490,490
491,492,372,491,490
491,489,383,492,490
493,490,401,493,492
492,490,448,492,493
491,492,506,491,492
491,490,577,491,494
491,493,624,492,492
490,492,625,495,492
490,492,610,497,494
492,493,527,497,495
492,493,438,495,493
491,493,396,497,494
490,494,375,497,495
491,493,381,496,498
491,493,388,492,497
491,492,419,488,494
491,494,473,484,491
491,491,532,484,494
493,490,605,485,497
491,495,629,487,500
492,495,621,485,495
493,494,580,488,490
494,492,484,489,493
493,492,414,490,493
492,491,383,491,494
491,492,374,490,489
492,492,381,489,493
491,490,397,489,492
491,493,444,490,495
492,492,501,489,493
492,493,566,489,492
494,491,622,490,493
492,493,625,490,497
490,492,615,494,495
493,494,539,493,494
492,493,444,491,492
490,491,399,490,493
491,492,372,489,494
494,493,378,490,494
491,492,387,491,494
491,491,410,492,492
492,490,467,491,492
492,491,525,487,494
491,491,599,489,492
492,493,630,489,493
491,494,623,490,498
492,496,586,489,495
493,496,496,489,499
493,496,419,489,495
494,493,386,491,490
493,491,376,491,491
490,490,380,491,495
490,491,394,493,496
491,492,436,492,494
492,491,493,491,492
492,490,556,490,492
491,491,620,491,491
493,491,628,489,490
493,490,617,488,494
493,491,554,489,495
493,492,453,489,493
491,493,403,490,494
490,492,374,489,494
493,493,374,491,493
491,493,384,490,492
491,493,406,489,490
493,490,461,491,492
492,492,518,488,493
491,492,590,487,496
492,492,629,489,496
491,492,624,490,495
491,493,599,490,495
495,493,508,493,493
493,491,424,491,492
493,491,388,489,490
492,493,375,490,492
494,491,381,491,493
494,492,389,492,495
496,493,432,492,491
493,494,486,489,495
488,493,550,490,494
488,493,615,493,494
490,494,627,490,494
492,491,620,491,495
492,494,565,490,493
492,492,465,491,492
493,492,409,492,493
493,490,377,491,498
491,492,376,486,495
491,495,384,490,498
489,494,405,489,493
492,491,452,489,487
491,490,510,487,488
491,491,580,487,490
491,491,625,489,493
492,492,626,489,492
491,493,608,490,496
493,491,521,491,496
492,493,433,491,498
491,493,393,490,497
494,493,374,491,492
491,492,380,491,490
492,493,387,488,487
492,491,423,488,491
492,491,477,489,494
492,492,539,490,492
492,493,612,494,494
491,493,628,495,494
492,493,619,496,489
492,492,574,496,493
493,493,476,494,496
493,493,413,486,493
492,494,378,487,494
491,491,374,486,493
493,490,383,487,493
493,491,401,490,494
493,492,445,488,493
491,493,505,491,493
491,492,572,489,492
492,494,623,488,493
492,494,626,488,493
492,493,612,489,494
491,492,532,490,494
493,492,439,491,494
490,490,397,491,497
491,491,377,494,499
490,492,378,496,495
491,492,386,496,492
493,492,417,491,490
491,493,469,488,488
491,491,530,485,493
493,493,603,484,494
492,493,630,487,494
492,491,619,487,490
493,490,584,491,492
493,492,487,490,494
492,492,415,490,492
492,493,382,490,492
490,494,373,489,493
490,492,382,489,490
494,493,395,493,492
491,492,441,491,494
492,492,499,490,493
491,492,564,492,493
490,493,620,490,493
492,493,627,489,493
493,491,617,489,492
492,494,544,490,493
492,493,449,490,492
492,493,402,489,493
493,492,374,488,492
491,492,379,489,494
492,493,384,488,493
487,492,411,490,492
489,493,464,490,492
491,491,521,489,493
491,492,599,488,489
491,494,630,491,492
490,492,623,490,494
492,492,593,490,494
491,493,502,490,494
492,492,420,490,494
491,492,387,490,494
493,492,375,490,493
491,493,379,489,492
492,493,391,488,490
492,493,434,491,493
491,491,492,489,492
492,492,554,490,490
492,491,620,490,494
491,492,628,490,492
491,493,618,491,492
490,493,559,491,494
493,493,460,491,494
494,493,407,491,497
490,495,374,489,494
492,494,378,488,495
493,492,386,489,493
493,493,405,490,491
492,493,459,491,493
491,493,515,491,491
492,490,588,492,489
492,492,627,492,489
492,493,624,493,492
490,492,603,489,492
494,493,513,491,492
492,492,426,488,495
492,492,393,489,497
492,492,377,490,494
493,492,380,489,491
493,493,389,489,494
491,491,425,489,492
490,493,482,489,492
491,493,545,488,489
492,492,613,489,493
493,492,627,489,493
493,492,620,490,496
493,495,570,495,496
493,494,470,496,495
490,494,410,495,493
490,493,376,493,492
492,490,374,491,490
494,491,383,489,491
493,493,403,484,495
493,493,451,487,494
491,493,510,488,494
491,493,576,488,495
491,492,626,489,496
493,492,624,489,492
493,494,608,490,490
495,493,526,491,492
494,492,435,491,493
491,492,396,489,493
488,493,375,489,493
489,491,379,490,493
489,492,388,490,493
488,492,420,491,493
491,493,475,489,493
492,492,536,488,491
491,491,610,491,493
491,493,629,489,493
493,493,622,490,494
493,492,579,490,495
491,492,479,490,493
492,493,414,489,492
492,494,380,492,492
490,492,372,489,492
491,494,382,489,492
491,496,400,493,496
491,494,444,490,493
491,493,504,491,493
492,492,571,490,493
493,492,625,491,494
491,492,627,491,493
492,493,614,491,493
490,493,538,490,493
492,493,442,490,492
491,493,397,490,492
492,494,374,489,492
494,493,379,490,492
490,492,384,490,494
493,492,416,489,491
491,493,469,490,492
490,492,528,490,492
489,492,601,490,492
489,494,630,490,494
491,494,621,488,493
492,491,587,492,494
496,493,493,490,493
495,493,418,489,493
495,492,386,491,489
494,494,373,491,493
495,493,382,489,492
496,493,392,490,492
488,493,437,489,491
487,492,496,489,490
487,492,559,490,491
490,493,620,489,491
492,494,627,491,494
491,491,617,491,493
491,491,551,491,494
491,492,453,490,493
492,492,403,490,494
494,492,372,489,492
492,491,378,490,493
494,492,384,489,492
494,493,408,490,492
492,493,461,489,492
491,493,518,490,493
490,492,594,488,491
491,493,629,490,492
490,494,622,489,492
492,493,596,490,495
493,492,508,491,495
493,492,421,489,488
492,493,390,489,490
492,492,375,490,490
490,492,381,489,491
490,493,392,489,491
492,493,431,490,492
490,493,488,489,492
490,493,550,489,491
491,493,615,489,495
494,492,629,488,495
492,492,619,489,493
490,492,563,489,493
492,493,462,490,490
490,492,408,490,492
489,492,376,491,493
491,493,374,490,491
491,491,386,490,493
493,493,403,489,493
492,493,456,491,493
492,492,513,490,492
492,492,586,489,493
494,494,629,490,492
494,494,625,491,492
489,493,607,489,493
494,494,518,490,494
488,494,430,490,493
490,493,393,489,492
490,492,378,491,493
492,492,380,490,492
492,494,392,490,494
491,492,427,490,493
489,492,480,489,492
490,492,542,490,492
488,493,612,489,490
490,493,628,488,490
490,492,622,488,490
490,494,573,489,492
491,493,474,489,492
492,493,412,490,491
491,493,379,490,493
492,494,374,488,491
491,493,383,491,490
491,492,400,491,491
490,493,448,490,492
490,493,508,489,494
491,493,574,489,494
489,492,628,488,494
490,492,627,490,495
490,491,613,490,497
491,493,530,491,492
492,493,438,491,492
493,492,397,489,491
491,493,373,490,488
492,492,377,488,488
492,492,386,489,489
495,492,418,491,490
492,491,471,490,491
491,492,531,489,488
490,490,607,492,492
489,491,627,491,491
492,493,619,490,490
492,492,584,491,491
491,495,484,491,493
491,494,416,490,493
491,495,384,489,494
493,494,376,490,494
492,493,383,489,492
493,494,398,491,494
492,495,443,489,492
490,493,502,490,490
490,493,563,489,489
491,494,622,489,491
490,493,628,489,491
491,492,613,491,491
490,492,545,490,493
491,493,448,490,491
489,492,402,491,490
488,492,376,491,490
492,492,378,489,489
491,493,384,489,493
490,493,412,489,490
492,493,465,490,490
491,493,524,489,491
492,494,600,491,490
490,492,630,490,491
492,494,621,488,492
490,491,592,492,493
491,492,498,491,493
492,493,420,490,491
492,493,388,491,491
489,492,374,490,492
491,494,379,489,489
491,494,392,488,490
492,493,434,489,490
491,493,492,490,490
490,492,556,489,488
490,493,617,490,491
491,492,629,491,489
488,492,617,491,492
489,492,556,491,491
491,493,458,489,491
491,493,404,490,491
491,492,378,490,490
491,494,377,489,491
491,492,385,490,493
494,494,408,490,490
491,494,459,490,491
490,492,516,489,490
492,492,593,491,491
489,493,628,490,490
490,493,622,490,490
491,492,603,490,493
491,495,510,490,492
492,493,426,489,490
492,494,392,489,490
492,494,376,490,493
491,492,381,490,490
491,494,392,491,492
489,494,428,489,491
490,493,486,489,491
490,493,548,491,490
488,492,613,491,490
490,494,628,489,491
490,492,621,489,491
491,495,569,492,492
491,494,468,490,492
492,493,410,490,492
492,493,378,490,493
492,495,375,489,491
490,492,385,491,492
493,494,404,491,491
490,493,453,490,490
489,493,510,490,491
491,494,579,490,493
491,493,628,489,492
492,494,625,491,491
493,493,611,490,494
493,492,525,491,492
492,493,433,491,493
491,495,396,489,492
490,492,377,489,492
492,493,378,490,490
490,494,389,489,491
490,495,422,491,491
491,494,477,490,491
491,493,540,490,491
491,495,610,489,491
490,493,630,490,491
492,492,622,491,492
492,492,579,490,494
491,493,480,491,492
492,494,415,491,492
490,493,380,489,491
489,493,374,490,490
490,494,383,490,491
491,494,397,488,490
491,492,447,489,491
491,494,504,491,492
490,493,572,489,492
493,494,627,491,493
492,493,628,492,494
491,493,613,490,491
493,493,537,492,493
492,495,441,490,492
490,494,399,491,491
490,494,376,491,491
493,495,378,489,491
492,494,388,491,492
491,494,418,490,493
492,494,470,489,492
492,493,532,490,493
490,493,605,492,493
490,493,630,491,491
493,494,624,491,491
492,495,584,492,495
492,493,490,490,493
493,495,418,491,492
493,494,387,491,493
493,494,374,490,490
493,493,384,491,493
491,494,394,489,493
489,493,440,490,491
491,493,498,491,491
491,493,560,490,493
491,492,623,489,491
492,495,629,491,492
490,493,617,489,492
493,493,550,490,493
492,494,452,490,492
491,493,403,490,493
492,495,375,489,493
489,493,378,490,493
492,493,385,490,491
491,494,411,489,491
491,494,464,491,491
491,493,523,491,493
492,495,599,490,493
490,494,629,491,493
492,493,625,491,493
491,492,597,492,494
491,493,505,492,493
493,494,421,491,493
492,493,390,490,493
492,493,373,489,491
492,494,381,489,492
491,494,393,490,493
494,494,434,490,492
493,494,490,490,489
492,494,553,490,493
488,492,619,490,492
490,493,629,491,491
490,493,618,490,490
492,494,563,491,494
492,495,461,490,493
491,492,408,491,492
492,495,375,489,491
492,494,379,490,493
492,492,387,490,492
491,495,404,491,492
491,493,457,489,491
491,493,515,490,491
490,493,586,490,490
490,494,628,489,491
491,493,625,491,492
492,494,606,489,492
490,494,516,490,493
493,493,429,490,493
492,493,396,491,493
491,492,378,489,491
492,494,380,490,491
491,492,392,489,494
491,495,425,490,492
491,495,483,489,491
492,495,546,489,492
491,494,613,489,491
491,494,629,490,493
491,493,620,488,492
492,492,574,491,493
491,494,473,491,492
492,493,413,491,492
491,493,380,489,494
491,494,375,488,492
489,492,385,489,492
492,494,402,488,493
492,493,451,489,491
491,493,508,490,491
491,494,578,490,492
490,495,627,489,492
490,493,624,490,491
491,495,609,490,491
491,496,528,490,491
492,493,438,491,492
492,494,398,491,491
491,493,377,490,493
492,491,379,490,493
491,493,389,491,493
491,494,421,493,493
491,494,473,490,492
491,493,535,489,493
491,493,609,489,491
492,494,630,489,493
492,494,622,489,493
492,494,581,491,491
491,494,484,489,493
492,494,415,490,491
490,493,382,492,493
491,494,375,490,491
491,494,383,490,491
491,492,399,490,490
491,494,443,489,492
491,493,501,489,492
491,493,566,488,492
493,494,624,490,492
491,493,626,489,491
492,492,615,491,493
493,495,540,490,492
493,493,446,490,492
491,493,400,490,491
492,494,375,489,491
491,495,378,491,493
489,493,387,489,493
493,493,413,490,492
491,493,468,489,492
492,493,527,489,492
491,492,602,491,493
492,493,629,490,491
491,495,621,491,493
491,493,587,489,493
492,495,495,490,492
492,494,420,489,490
492,493,387,491,492
490,492,376,490,494
492,494,381,489,492
490,492,394,491,493
491,493,436,491,492
492,494,493,491,492
491,493,559,489,491
492,495,622,491,492
491,494,629,490,493
492,492,618,490,493
494,493,555,490,493
492,493,456,490,493
491,493,404,489,493
491,493,376,488,491
493,493,376,490,491
490,493,384,489,492
491,495,407,488,491
491,494,463,490,492
490,494,518,489,492
490,494,592,490,493
492,492,631,490,491
492,492,624,491,493
490,493,601,492,493
493,494,509,490,493
492,493,424,489,493
492,494,391,489,492
492,496,375,489,492
493,493,382,489,492
492,494,391,491,491
492,493,432,490,492
492,495,488,489,492
491,493,550,491,492
489,492,615,491,491
491,494,628,489,491
492,495,620,491,494
491,495,565,489,492
492,493,467,490,492
494,493,409,490,493
492,493,378,489,494
491,493,377,491,492
491,494,384,491,493
489,492,405,488,492
491,493,454,490,491
490,493,512,489,491
491,494,581,488,490
491,492,628,491,492
491,493,626,489,492
491,494,607,490,494
492,493,522,491,494
492,493,432,491,494
492,493,395,489,493
493,495,376,491,491
491,492,380,490,493
491,495,389,489,491
491,495,423,489,492
490,494,477,489,491
492,494,542,489,491
491,494,610,490,493
491,492,629,489,492
493,492,621,491,492
490,492,575,492,492
492,493,477,491,493
492,493,414,490,493
491,494,378,490,494
491,491,377,488,492
492,493,384,489,492
491,492,400,489,494
492,493,447,489,492
491,493,505,490,492
490,494,572,488,491
491,493,625,490,490
491,493,625,489,491
491,494,611,489,492
491,492,535,490,492
491,494,440,490,493
491,493,399,489,493
492,493,377,489,493
492,491,379,489,494
491,492,387,490,493
490,495,417,488,491
490,492,470,489,492
492,494,532,489,490
491,494,604,489,490
492,493,628,488,492
493,494,622,490,491
489,493,584,489,494
492,494,487,490,493
493,494,419,490,493
490,492,385,491,493
490,492,374,491,491
492,493,383,489,491
491,493,393,491,494
491,492,440,489,491
491,493,499,489,491
491,493,562,489,492
492,493,621,489,491
491,492,628,491,492
492,494,615,488,492
491,492,545,491,492
491,492,448,490,492
491,492,401,490,490
493,494,374,489,493
488,492,377,489,493
491,492,385,490,491
493,493,413,489,493
491,492,464,489,493
490,492,522,490,492
491,495,597,488,492
489,493,629,489,492
492,492,622,489,491
492,494,591,489,491
492,494,501,489,492
492,493,422,491,492
491,493,390,489,492
490,492,374,489,493
491,492,383,490,493
490,492,393,492,494
490,493,434,491,493
493,494,492,490,492
491,493,554,490,493
491,494,617,488,491
493,494,629,489,492
492,492,618,490,493
493,492,560,490,493
492,493,458,489,492
491,492,406,489,492
492,494,377,491,492
490,493,375,490,491
490,493,383,490,491
491,494,410,490,492
490,493,457,489,491
490,491,516,489,491
491,492,590,489,492
492,492,629,490,493
491,491,624,490,492
493,493,602,491,493
489,492,513,489,492
493,493,426,490,491
491,493,392,490,492
491,494,375,489,491
493,492,380,491,491
492,493,391,489,490
489,493,426,489,493
492,493,483,489,492
492,492,547,490,492
490,492,613,491,492
490,493,630,490,493
492,495,618,489,492
492,491,571,491,492
492,494,469,490,492
491,493,410,489,492
492,493,378,488,492
491,493,375,490,493
490,491,383,489,492
492,492,404,492,492
491,493,452,491,493
491,493,508,490,492
491,492,579,489,493
491,495,626,489,492
490,492,624,489,493
492,492,611,489,494
492,492,526,490,493
492,492,435,489,492
491,493,396,491,493
490,494,375,489,493
491,493,377,489,491
491,494,388,489,490
491,494,420,489,491
492,493,474,489,492
489,492,536,491,492
491,492,607,489,492
491,492,630,490,492
490,493,621,491,492
489,492,579,492,493
490,493,481,489,492
491,493,415,490,494
491,491,382,488,492
492,495,376,489,493
493,493,384,490,494
492,491,398,490,492
492,494,446,490,493
492,493,503,489,492
490,492,568,490,491
490,493,624,489,491
491,494,626,489,492
490,492,615,491,492
492,495,539,491,492
491,492,441,489,492
492,492,401,490,494
492,492,378,490,493
489,492,378,491,493
489,493,387,489,493
489,492,413,490,493
492,492,467,489,492
491,493,527,488,491
491,494,600,488,491
492,493,629,490,492
490,494,623,490,493
491,494,584,489,491
491,492,494,490,493
491,493,419,491,492
490,492,385,491,492
493,493,375,489,492
492,494,381,491,493
490,492,392,488,492
492,493,438,489,492
491,493,496,490,492
491,493,557,489,491
491,492,621,491,492
491,493,628,489,492
490,493,614,490,491
490,494,550,490,492
491,493,454,490,492
490,494,403,490,493
490,492,376,488,492
492,493,377,490,491
492,491,387,490,492
491,492,413,492,493
490,493,462,491,493
491,494,519,489,492
491,494,594,489,492
493,492,627,489,493
491,494,623,488,493
492,494,597,489,493
493,493,505,490,492
491,493,424,489,494
491,494,390,489,495
490,491,376,491,492
490,493,381,490,491
490,494,391,490,494
492,491,433,489,492
491,494,489,490,492
489,493,550,488,492
492,493,616,489,493
491,492,629,490,493
490,491,619,491,494
493,495,563,489,493
491,495,465,491,493
491,492,407,489,492
491,494,374,489,491
491,494,377,489,492
491,494,384,490,492
490,493,406,489,494
491,493,455,491,493
491,493,514,490,493
489,493,585,490,492
489,493,627,491,494
492,491,625,489,492
492,494,609,491,494
491,494,518,489,493
492,493,430,489,492
492,493,396,490,493
492,493,374,489,491
491,492,381,491,492
492,494,390,491,493
489,492,423,490,492
491,492,480,489,492
490,493,541,489,491
490,493,612,490,493
490,494,630,489,493
490,494,619,490,494
493,492,575,490,494
492,493,475,490,493
491,493,413,490,493
492,493,379,491,493
490,493,376,490,493
491,494,381,489,493
491,495,399,489,494
493,495,449,490,493
491,493,507,491,492
493,493,575,490,492
491,494,624,492,493
491,492,625,491,492
490,493,612,491,492
490,493,531,490,493
492,493,436,491,492
491,493,399,491,494
492,494,374,489,493
493,493,378,489,493
492,492,389,489,493
493,492,419,490,492
490,493,470,490,492
491,492,533,489,492
492,492,605,491,492
492,493,628,489,491
493,494,621,489,492
490,492,582,491,494
492,494,486,489,492
491,492,416,489,493
491,492,383,490,494
493,492,376,490,493
490,492,383,490,492
492,493,394,491,490
490,492,442,489,493
490,492,499,490,492
491,493,562,488,491
491,495,622,489,492
490,494,626,490,494
492,491,616,490,491
492,496,545,492,493
491,492,447,490,493
491,492,401,490,491
491,493,376,491,491
490,491,379,491,494
491,494,385,488,493
490,492,413,490,493
492,493,464,490,493
491,494,525,490,493
492,492,600,489,491
492,493,629,491,492
490,493,624,490,493
490,493,588,490,492
492,494,497,490,492
491,492,420,489,492
490,492,387,492,492
493,493,375,490,491
491,493,383,490,493
491,492,393,491,494
490,492,435,490,492
491,492,491,490,492
491,493,553,490,491
492,492,621,491,492
491,493,627,489,493
492,493,617,489,493
493,493,558,490,494
492,493,457,490,492
491,493,405,491,493
491,495,375,489,492
490,493,374,491,492
491,494,383,490,492
491,496,407,489,492
491,493,460,491,493
491,494,517,490,491
490,494,592,490,494
491,492,629,490,493
491,492,624,491,492
490,493,600,489,493
493,493,510,491,493
493,493,426,490,492
490,493,391,490,492
491,494,374,489,493
493,493,382,489,492
490,493,390,489,494
492,491,427,489,491
491,492,486,490,493
490,492,547,491,492
489,492,613,491,491
491,494,628,490,491
491,491,620,492,492
492,495,568,492,493
491,493,467,490,493
491,492,409,490,494
492,492,379,490,494
491,492,375,489,493
492,492,383,490,492
493,493,405,488,490
492,493,451,490,492
489,493,509,489,492
491,494,579,488,492
489,492,626,490,494
492,492,624,489,491
492,492,612,491,494
490,492,523,491,493
491,492,434,491,493
490,494,397,489,493
490,493,373,489,494
491,492,380,489,492
492,493,389,489,492
493,493,422,490,494
493,493,476,490,492
492,493,538,489,492
491,492,609,491,493
492,493,630,490,491
491,493,619,489,492
491,494,575,489,492
493,494,480,489,493
491,492,415,490,493
492,493,379,491,491
490,492,378,490,493
490,491,384,491,493
491,492,400,492,492
491,493,446,489,492
490,492,502,490,492
491,492,570,488,491
490,494,624,489,492
492,493,626,489,494
493,492,615,491,492
490,494,536,491,494
492,494,442,491,493
492,493,400,491,492
490,491,374,492,492
490,493,376,489,491
491,494,386,489,494
491,492,417,490,493
492,494,470,490,492
491,493,530,490,494
492,492,603,490,493
491,491,629,491,493
490,494,622,489,493
489,492,584,492,494
493,493,491,491,493
491,492,417,490,492
492,493,383,489,492
491,494,374,492,492
490,492,383,489,494
492,493,392,490,491
491,492,440,490,493
491,492,496,490,493
490,492,559,491,492
493,494,621,490,492
490,493,625,491,493
492,492,615,489,492
492,495,549,490,493
491,494,451,490,493
492,494,404,490,493
492,493,374,490,491
491,491,377,491,492
492,494,387,491,492
489,493,410,492,493
491,494,462,491,493
491,493,520,491,493
491,492,595,489,491
495,493,629,490,492
491,492,625,491,495
490,492,596,491,494
491,492,504,490,493
493,493,422,490,493
490,492,389,490,493
493,493,374,489,492
490,494,380,490,492
492,493,391,489,492
492,493,433,490,492
490,493,489,490,492
490,493,551,489,493
490,492,619,490,493
490,492,629,491,492
489,493,617,491,493
490,493,563,491,493
492,493,461,491,493
491,492,408,491,493
492,494,376,489,492
492,493,377,490,494
492,492,385,491,493
492,494,405,490,493
490,492,456,490,492
491,493,515,491,491
491,493,585,491,491
489,493,626,490,491
492,495,626,492,494
490,492,606,490,493
490,493,515,492,493
493,493,430,490,491
491,492,395,492,496
490,491,377,491,493
493,493,381,491,491
490,493,390,490,494
492,495,425,490,492
492,494,482,491,492
491,493,543,490,492
493,494,612,489,493
491,494,629,490,493
491,491,621,489,492
492,495,575,492,493
491,493,473,492,493
491,492,411,491,492
491,493,380,490,494
492,494,375,489,492
490,492,383,491,493
492,494,403,489,493
492,492,450,490,493
491,492,506,489,492
491,494,574,491,493
490,492,625,490,493
492,495,624,490,491
491,494,610,491,491
491,494,527,490,493
492,492,438,490,493
492,493,398,490,492
490,493,373,490,494
491,492,380,491,494
490,492,389,491,494
489,492,418,492,493
491,493,474,491,493
492,493,534,491,492
491,491,608,492,492
493,494,631,490,493
491,492,622,490,494
492,492,581,490,492
491,494,484,491,493
491,492,413,490,493
492,492,382,492,493
490,493,374,491,491
491,493,381,490,491
491,492,398,490,495
490,494,442,490,493
490,493,499,490,493
491,493,567,489,493
492,492,624,492,493
491,491,627,489,493
492,494,615,492,493
489,493,541,490,494
491,493,445,490,493
490,493,400,490,492
491,494,374,490,493
492,493,377,490,492
490,493,387,490,494
492,492,410,490,492
492,493,467,491,492
490,492,526,491,492
489,492,599,493,493
491,493,631,491,493
492,494,622,490,494
490,492,589,489,492
492,494,497,490,493
491,493,420,490,493
491,492,387,490,492
490,494,376,491,493
489,493,380,490,493
490,493,393,492,493
491,494,436,492,493
491,493,493,491,492
491,492,558,491,492
491,494,619,492,492
489,493,629,490,494
492,492,619,491,495
492,492,556,492,493
491,492,456,491,493
491,493,404,490,492
490,492,376,493,493
492,491,377,489,492
491,494,385,489,492
491,494,408,490,493
491,493,459,491,493
491,493,518,490,493
491,493,590,490,492
490,492,629,491,492
490,493,624,491,491
490,493,600,492,492
493,492,511,491,493
491,493,427,491,494
491,492,391,489,493
493,494,376,490,493
491,492,382,491,494
491,491,388,490,493
493,493,431,493,494
492,494,486,491,493
491,493,547,490,491
490,494,615,490,492
491,494,629,490,492
491,493,619,491,492
490,492,569,490,494
492,492,466,491,493
492,493,410,490,493
491,492,378,491,494
490,492,376,492,492
492,492,384,490,492
490,493,403,490,494
491,491,452,490,492
491,493,511,489,492
491,493,581,489,492
492,493,626,490,492
492,492,626,492,494
492,494,607,490,494
491,493,522,491,493
491,493,434,491,492
491,493,395,491,494
493,492,377,489,492
491,494,380,492,493
489,493,389,490,494
493,494,423,491,494
492,494,478,490,492
492,492,539,491,493
493,494,609,489,493
490,493,629,490,494
491,491,618,489,492
491,495,575,489,492
492,493,478,491,492
491,493,414,491,493
491,492,382,490,493
490,493,374,490,494
490,491,383,491,493
490,492,402,492,493
490,492,446,491,493
491,492,503,490,492
491,493,573,490,494
491,494,623,489,493
493,493,626,489,493
492,492,614,490,494
493,493,531,490,493
493,493,441,490,492
491,493,398,491,493
490,491,375,491,492
491,493,377,490,492
491,494,386,490,492
491,494,417,491,493
491,493,470,490,492
491,492,530,491,493
492,492,605,489,494
491,492,630,491,493
491,492,622,492,493
493,494,583,492,493
491,493,490,491,494
492,492,416,490,492
494,494,383,489,491
492,494,375,489,493
491,493,381,491,492
491,492,396,491,492
492,494,439,491,494
492,493,497,491,493
490,493,561,491,492
490,493,622,491,494
492,491,625,489,492
492,492,617,492,494
492,494,545,490,493
492,494,449,490,493
493,493,404,491,494
492,491,376,491,492
491,494,375,491,492
490,493,386,490,492
494,492,408,491,492
490,493,463,490,493
489,494,522,490,492
491,491,598,492,493
493,493,630,490,491
490,494,622,491,494
490,491,595,491,495
491,492,502,491,494
491,492,422,490,493
492,492,386,491,492
491,493,375,492,494
491,494,378,489,493
492,493,391,489,493
494,494,433,491,494
491,493,490,491,494
492,493,553,489,492
491,494,619,492,492
490,493,627,491,491
490,494,616,489,491
490,494,560,490,493
491,492,460,490,493
491,494,406,490,493
490,492,376,489,494
492,491,376,491,494
491,492,386,491,493
489,491,408,489,492
492,493,456,491,493
492,493,515,490,491
490,493,585,490,492
490,493,627,489,493
492,493,625,490,493
489,493,603,492,494
493,493,516,491,492
493,493,429,491,494
491,492,392,492,493
490,492,376,491,492
489,493,381,491,494
491,493,388,489,492
490,492,428,491,492
491,493,481,490,493
492,493,545,491,494
492,492,613,490,493
490,491,630,490,493
492,493,619,491,492
490,494,572,490,494
491,493,469,491,493
491,493,409,490,492
491,495,377,490,492
490,492,375,491,494
492,492,384,490,492
490,493,405,492,495
491,492,450,492,495
491,493,508,491,492
491,492,578,490,493
492,493,624,490,492
491,492,627,492,493
492,493,610,490,493
493,493,527,491,494
493,493,436,491,493
490,493,395,491,494
491,491,374,489,492
492,492,378,492,492
490,493,386,492,492
490,493,418,490,492
491,493,474,490,492
490,492,536,491,492
492,493,607,491,492
491,493,631,491,494
490,491,622,491,493
491,492,581,493,494
491,493,482,491,494
491,492,414,491,493
492,492,383,491,491
491,494,373,490,493
492,493,381,490,493
492,493,397,490,492
491,494,442,491,494
493,494,501,491,493
492,493,568,492,493
492,492,624,492,493
492,494,625,490,492
491,491,616,491,495
491,494,537,490,494
491,493,444,491,493
492,492,400,491,494
492,492,375,490,494
492,491,378,491,493
491,492,386,490,493
491,491,412,492,491
493,492,467,490,493
490,492,526,490,492
491,494,598,489,492
492,493,630,490,492
490,493,621,491,494
492,492,586,491,492
490,492,495,491,494
491,492,418,491,493
493,492,386,492,493
490,493,375,491,494
491,493,378,489,494
491,492,395,489,493
493,494,437,491,494
493,493,494,490,494
492,493,558,490,491
491,494,621,492,493
490,493,629,490,493
490,494,616,491,492
490,493,550,490,493
492,493,454,491,493
491,493,404,490,493
490,492,376,489,493
493,492,376,490,491
491,492,386,491,494
491,491,410,491,493
490,492,461,490,493
491,493,519,490,493
489,492,591,490,494
492,492,630,490,492
493,493,624,490,494
492,494,598,489,493
493,493,509,491,493
491,493,425,490,494
491,494,389,489,492
489,492,376,491,492
490,493,379,491,492
492,493,390,490,491
492,492,432,491,492
491,493,486,490,492
491,493,551,490,493
491,492,616,490,494
491,491,629,492,494
491,492,619,493,494
491,495,566,491,493
491,493,463,491,493
492,493,409,490,492
491,494,374,490,492
491,493,376,490,494
492,493,385,491,491
490,494,407,491,495
491,494,453,490,492
491,493,513,491,493
490,492,583,491,493
490,493,626,491,491
491,492,627,492,492
492,494,606,492,493
492,493,521,491,493
492,494,432,491,494
491,493,396,491,495
493,493,374,490,492
492,492,380,493,493
492,494,389,490,492
490,493,423,491,493
491,493,479,491,492
491,493,540,490,491
492,495,611,492,491
489,493,631,491,494
492,494,620,490,492
492,491,578,492,494
491,492,476,491,493
491,492,414,490,493
491,493,381,490,492
489,493,373,491,494
491,492,383,490,493
492,494,400,490,493
494,494,448,491,493
493,494,507,492,493
490,493,574,491,494
491,494,625,490,494
492,492,629,493,494
491,491,614,492,495
492,491,533,492,493
492,494,438,492,494
491,493,397,491,494
493,493,375,492,492
490,494,377,490,492
491,493,386,491,492
491,494,415,490,492
491,492,473,491,493
492,493,532,491,492
491,494,608,491,494
491,492,631,492,493
490,493,622,492,493
491,492,584,491,494
493,493,488,492,493
492,493,417,491,493
492,494,383,490,492
492,493,374,490,494
492,492,382,490,492
491,494,394,491,495
490,492,439,491,492
491,493,499,492,493
490,492,563,492,492
490,493,621,491,492
492,492,629,492,494
492,494,616,490,494
490,492,546,491,493
493,494,449,491,493
492,493,403,491,495
492,492,377,490,494
491,492,376,490,492
492,493,385,492,492
493,494,413,491,493
492,494,465,492,493
492,494,523,491,492
494,494,596,490,494
490,494,630,491,494
492,492,622,491,492
492,492,595,492,495
491,493,502,491,494
492,493,422,492,494
492,493,388,491,493
491,492,374,490,495
491,492,381,490,493
492,494,392,489,492
493,493,435,490,493
492,493,490,491,492
492,493,556,491,493
491,494,618,490,493
491,493,629,491,492
491,494,619,491,492
491,494,559,492,494
492,494,459,492,493
493,493,409,491,493
493,494,376,493,493
492,493,378,491,494
492,493,386,492,494
491,492,409,493,494
491,494,457,491,493
491,493,517,491,494
492,492,590,491,491
491,495,628,490,492
492,494,626,490,494
493,493,604,493,494
491,493,515,491,493
493,493,426,491,493
492,492,394,492,495
491,492,378,492,493
490,492,379,492,493
493,492,390,490,491
491,494,427,491,494
491,492,483,491,493
492,494,546,490,493
493,494,615,491,494
493,493,631,492,494
492,495,619,490,492
492,492,574,494,494
493,494,468,492,493
491,492,411,491,492
491,493,376,491,492
491,493,374,492,493
491,492,384,490,493
492,492,403,493,494
495,494,453,492,494
493,494,511,491,493
491,492,580,492,494
493,494,627,490,493
491,493,626,492,494
492,491,608,491,492
492,495,526,491,493
491,493,435,491,492
491,493,397,493,495
491,495,375,490,493
491,493,378,492,494
493,492,390,491,494
494,492,423,491,493
492,493,476,491,493
491,492,537,490,492
492,494,610,492,492
492,493,632,491,494
491,494,620,490,492
490,495,578,491,492
492,494,482,491,493
492,492,415,491,493
493,493,382,492,492
490,493,375,491,494
492,491,383,492,493
491,491,399,492,494
490,492,442,490,492
492,493,503,491,491
491,492,569,491,491
491,494,623,490,492
493,494,628,490,493
494,493,615,490,493
490,493,536,491,493
493,492,443,491,492
491,492,399,492,494
491,491,375,492,492
491,493,376,491,491
491,493,385,491,492
492,492,416,492,493
492,494,467,492,492
491,492,528,490,493
493,493,603,490,494
492,493,631,492,494
492,491,621,490,493
493,492,588,493,494
493,493,493,491,494
492,492,417,491,493
492,494,384,491,493
491,494,374,490,494
491,492,382,490,492
493,494,394,492,493
490,492,439,490,494
492,493,495,490,493
492,492,560,491,493
491,494,620,489,494
490,494,628,491,494
492,492,619,490,492
492,494,550,491,493
493,493,453,491,494
492,493,405,491,494
493,493,375,493,492
491,492,378,491,494
491,493,385,490,493
490,492,411,493,493
492,493,462,491,492
492,493,521,491,494
491,491,595,490,491
491,494,631,491,493
491,493,624,490,494
493,494,597,490,494
493,493,506,491,493
491,493,422,491,493
492,492,390,492,492
490,495,374,492,493
490,493,379,491,492
491,493,389,492,491
490,494,430,491,493
491,492,487,490,492
491,492,551,492,492
492,492,617,490,493
492,491,630,491,494
491,492,619,492,494
491,491,567,493,493
492,493,461,490,493
491,492,408,490,494
492,493,373,490,492
491,494,374,489,492
492,494,384,490,493
493,492,404,492,492
491,492,454,490,492
491,493,513,491,494
491,492,585,492,493
491,492,627,492,491
491,493,624,491,494
490,491,604,490,492
492,492,521,492,493
491,492,429,491,493
492,493,394,490,493
493,493,376,491,494
491,493,378,489,493
490,492,388,490,492
493,494,425,492,493
491,493,479,492,493
491,493,540,490,491
491,494,611,490,492
492,492,631,492,493
493,492,621,491,491
489,493,573,491,495
491,492,475,491,493
492,492,413,491,493
491,493,381,490,492
492,493,373,491,491
490,492,384,492,493
491,494,399,490,491
492,493,447,490,492
490,493,506,490,492
489,493,573,491,493
492,492,626,489,492
492,495,628,492,493
489,493,613,493,493
492,492,531,492,493
493,493,440,492,494
494,493,397,490,492
491,491,378,491,492
493,493,379,490,493
492,492,387,490,494
493,492,419,491,494
492,493,472,491,493
492,493,533,492,493
491,494,606,490,493
490,494,628,490,491
491,494,620,489,492
492,495,581,490,492
491,492,487,492,494
491,493,415,491,493
491,493,384,491,494
493,492,375,492,494
491,492,382,492,493
490,492,395,489,492
492,492,440,491,492
492,493,500,490,491
491,493,563,490,492
491,494,622,490,493
492,493,628,491,491
491,494,615,490,495
493,492,542,491,493
492,493,447,492,493
491,492,402,492,493
490,492,374,492,492
491,493,377,490,491
491,492,387,492,491
493,494,411,493,493
494,494,466,492,494
491,494,525,491,494
492,492,600,491,494
491,492,629,490,493
492,492,622,492,492
493,493,591,490,492
491,493,498,491,493
492,492,419,491,493
491,493,387,490,494
490,492,375,490,493
492,492,380,491,492
491,492,394,491,494
491,492,436,491,493
491,492,491,490,493
490,493,555,490,492
489,492,618,490,493
492,492,630,489,492
491,494,617,490,491
491,494,556,490,493
492,493,456,490,492
492,492,405,491,492
490,491,376,490,495
491,494,375,489,492
489,492,384,491,492
489,491,406,491,491
490,492,458,490,491
490,492,518,490,492
491,493,590,492,492
489,492,629,491,493
492,491,625,491,494
491,491,602,491,494
491,494,510,491,492
490,492,425,491,493
492,493,391,491,491
489,493,374,490,491
490,493,378,489,492
492,493,390,492,493
491,492,429,491,493
492,492,483,491,492
492,492,548,491,493
490,492,615,492,492
490,492,628,491,491
490,493,618,490,493
492,492,571,491,493
492,493,467,491,493
491,493,409,490,492
491,493,376,490,492
492,492,375,490,494
491,494,383,490,491
490,491,405,491,492
492,492,450,491,492
491,492,510,491,492
490,492,577,490,491
490,493,624,491,493
490,492,626,489,492
491,492,608,492,492
493,493,524,490,493
492,492,434,491,493
491,491,395,491,494
492,494,373,490,493
490,492,378,489,494
491,492,386,490,491
491,494,421,491,492
491,494,476,490,493
491,493,538,490,492
492,492,609,493,491
491,491,630,491,492
491,494,620,492,493
490,491,580,493,493
491,492,480,492,493
492,492,414,490,493
490,491,379,491,492
489,491,375,491,493
492,494,383,489,493
491,493,398,489,493
492,492,444,490,492
490,492,501,491,492
490,491,570,489,492
491,493,625,491,492
490,493,626,491,491
490,493,613,491,492
490,493,537,491,494
491,493,442,491,492
491,492,399,491,493
493,493,375,489,493
491,491,379,491,494
490,491,386,491,494
490,491,415,489,492
491,493,469,491,492
490,492,528,490,493
490,494,602,491,492
491,494,629,490,493
492,494,621,489,493
490,492,586,492,493
492,492,492,491,494
491,492,417,490,493
490,492,386,492,494
489,491,375,492,492
490,492,381,490,493
492,492,392,491,492
492,492,438,491,493
491,494,497,490,492
490,493,560,489,492
491,493,620,491,492
491,494,627,491,494
491,491,615,490,492
492,492,550,492,493
492,493,452,491,492
490,492,403,491,492
490,493,374,491,492
491,491,377,491,492
491,493,385,492,493
490,491,411,489,493
490,493,463,490,492
490,492,521,491,493
491,491,593,489,492
492,492,629,491,492
491,492,624,491,492
492,494,594,490,491
491,494,505,491,492
491,493,421,491,493
490,492,389,490,494
493,492,373,491,491
491,491,381,491,493
490,492,393,492,493
490,492,432,492,493
491,493,488,491,494
491,494,551,490,494
491,492,619,489,493
492,493,629,490,493
492,492,620,491,494
492,492,563,491,495
492,492,460,491,493
491,492,407,492,493
492,493,373,489,493
490,492,374,491,491
491,493,383,490,491
491,493,403,489,494
490,492,456,490,493
491,492,514,491,492
490,492,586,490,494
492,491,628,491,493
490,491,625,492,494
489,492,604,490,493
490,493,516,492,493
492,492,429,491,492
491,493,392,489,492
490,494,374,490,493
492,492,380,492,493
490,493,390,490,494
493,494,424,491,493
492,493,481,491,494
491,493,544,492,492
489,492,612,492,492
491,493,627,490,494
491,491,621,489,492
492,494,574,493,493
493,493,472,490,493
491,493,412,490,494
491,492,379,490,494
492,493,372,489,493
490,491,384,492,493
492,493,400,492,492
490,492,448,490,492
490,492,507,491,491
490,493,572,492,493
491,491,626,490,493
492,493,624,491,491
492,491,613,491,494
492,491,531,492,493
491,492,438,492,494
491,492,396,490,493
491,492,374,491,494
491,491,375,490,492
492,493,386,489,492
492,494,417,490,492
491,492,472,491,493
491,492,532,490,491
491,491,607,491,491
492,493,629,492,493
491,494,621,492,491
490,493,580,492,492
491,493,485,490,494
491,492,415,490,492
492,492,383,493,494
493,492,375,490,494
492,491,383,491,494
491,491,397,492,495
492,494,440,491,494
492,493,501,491,493
491,492,563,490,492
490,494,621,490,492
492,494,627,490,493
493,493,614,493,494
490,493,543,491,494
491,493,446,491,495
492,492,400,492,494
491,492,377,492,494
490,493,376,492,493
490,493,384,491,494
493,492,410,490,492
490,492,466,491,493
491,493,524,489,492
493,493,600,490,492
491,492,630,491,494
492,493,621,489,494
492,491,591,490,493
492,493,496,492,494
492,492,420,491,493
491,494,386,491,492
491,494,375,492,494
491,494,380,489,493
490,493,392,493,493
493,492,436,491,495
493,493,493,491,493
491,492,556,491,492
492,494,618,491,493
491,494,630,491,493
491,493,616,490,492
491,494,554,490,493
492,494,456,491,493
491,493,406,491,493
490,492,375,492,493
492,492,379,491,492
490,493,385,491,494
491,491,409,492,492
491,492,459,491,493
491,492,516,490,493
494,493,589,490,491
491,491,629,492,494
491,493,623,490,494
492,493,601,489,494
492,493,511,491,494
491,492,424,491,494
491,492,390,490,493
492,491,374,492,492
491,493,378,491,492
492,493,390,491,492
490,491,429,491,493
492,493,485,490,493
491,492,548,491,494
492,492,615,491,494
492,492,630,491,494
490,492,619,492,493
490,492,567,491,494
493,493,466,491,493
491,492,409,491,493
491,494,374,490,492
492,493,374,490,493
492,493,384,490,492
490,492,402,491,495
492,493,452,492,492
491,492,511,491,494
491,492,580,492,493
491,493,626,492,492
491,491,626,491,494
492,494,607,490,495
491,492,524,491,493
491,492,431,490,493
492,493,396,490,494
493,492,376,490,492
491,493,378,492,493
490,493,388,489,493
490,491,421,491,493
491,492,475,491,492
491,493,537,490,491
490,494,607,490,492
490,492,630,490,493
492,492,620,491,492
491,492,578,491,495
493,492,479,491,495
492,492,415,491,493
490,492,379,490,493
490,492,372,490,494
491,491,383,490,492
491,494,396,490,493
493,494,445,491,493
492,493,503,492,493
491,493,570,490,495
492,494,624,490,493
490,492,626,492,493
489,492,612,493,494
490,493,534,493,494
493,493,440,491,494
491,493,397,491,495
491,492,373,490,492
492,493,377,491,493
492,492,386,491,494
493,492,416,490,494
491,492,468,490,493
492,492,530,491,492
491,494,603,492,493
490,493,628,491,492
491,494,621,489,492
492,494,583,492,495
491,492,489,491,493
492,493,419,491,493
491,492,385,490,495
493,492,374,491,495
491,492,382,492,494
492,494,393,491,495
492,493,438,491,494
492,493,498,492,493
491,493,558,490,492
491,494,620,490,493
492,493,628,492,492
490,492,617,490,494
491,493,547,492,493
494,492,450,491,494
491,492,403,491,495
490,492,377,491,494
490,492,378,490,494
491,493,384,492,493
489,492,412,490,494
490,492,462,491,493
491,492,519,490,492
491,494,594,490,492
490,492,630,491,494
492,492,624,491,492
490,493,596,491,495
492,491,503,491,494
493,492,421,490,494
491,492,389,490,493
491,491,374,492,492
492,492,381,490,492
490,493,389,490,491
490,492,430,490,492
491,492,488,489,493
491,492,553,489,492
491,493,618,492,492
491,493,630,489,493
492,493,617,489,492
492,494,560,490,493
492,493,460,491,493
491,492,407,491,493
491,493,374,492,494
490,492,377,491,494
493,492,384,490,493
494,493,406,490,493
492,492,456,491,493
490,492,514,491,494
491,493,585,491,494
491,492,628,492,493
491,491,625,492,494
491,493,606,491,492
491,493,516,492,494
492,491,427,491,493
491,492,393,492,494
492,490,375,491,494
491,490,379,491,494
490,494,388,490,491
492,491,426,491,492
491,492,479,490,493
491,491,544,492,493
490,491,612,492,493
490,491,628,491,492
490,492,621,491,494
493,493,569,492,493
492,492,473,492,493
491,493,410,491,493
492,493,377,490,493
495,493,376,491,492
491,493,382,492,494
490,491,400,490,493
493,492,451,492,494
491,492,507,492,493
491,493,573,490,492
491,492,627,492,493
492,493,625,490,492
490,492,610,490,494
493,492,529,491,493
495,492,435,491,494
491,492,397,490,494
491,495,375,492,492
489,492,378,491,494
490,493,386,491,492
490,494,417,490,493
491,493,471,490,493
491,493,534,490,492
489,492,605,491,494
490,491,628,490,492
491,492,622,492,493
490,491,580,493,493
491,492,483,493,493
491,492,416,490,494
491,492,380,490,495
491,492,375,490,493
492,493,383,490,494
492,492,396,490,495
492,491,442,490,492
491,492,501,491,494
490,493,564,489,492
490,492,623,491,492
491,493,625,490,492
491,494,612,490,492
491,492,543,492,493
493,493,444,491,494
491,492,401,490,494
492,491,377,490,494
490,491,377,492,494
491,491,385,492,493
490,493,412,491,494
492,492,465,492,494
492,492,526,490,492
491,494,598,490,492
492,493,629,491,494
492,491,623,490,491
491,493,589,492,495
492,493,495,491,493
492,492,419,492,493
490,492,385,493,493
490,492,372,491,492
492,491,382,491,492
491,493,391,493,494
490,492,436,490,493
491,492,493,490,493
491,491,556,490,494
491,491,617,490,492
492,492,628,492,492
492,492,617,491,492
490,494,552,492,493
492,493,454,492,493
491,493,403,491,493
492,494,375,493,493
490,492,377,491,494
492,493,383,490,492
491,491,411,494,494
490,492,459,492,493
491,493,518,491,492
492,492,593,490,491
490,493,626,492,493
491,492,623,490,493
493,493,599,490,494
494,492,508,491,493
492,492,423,491,493
491,492,392,492,495
491,494,373,490,493
490,492,379,492,492
490,493,389,492,491
491,492,428,490,493
491,492,485,491,492
490,492,548,492,493
489,493,615,490,493
492,492,630,492,493
491,491,619,492,495
492,491,568,492,494
492,493,465,491,493
490,491,408,491,494
493,492,374,491,491
492,493,375,490,493
491,493,383,490,493
492,493,405,494,493
491,493,454,491,494
492,492,510,491,493
491,491,583,492,494
491,491,626,492,491
491,493,623,491,495
491,491,610,492,493
491,494,522,492,494
493,492,431,491,492
492,493,396,491,494
493,493,375,491,495
492,493,378,490,492
492,491,390,493,492
492,493,421,492,492
490,492,478,491,492
490,492,539,491,491
490,492,608,491,492
492,493,631,492,493
490,493,621,491,494
490,492,575,492,494
493,492,477,491,493
491,492,413,491,494
492,491,381,492,492
492,493,374,492,492
491,492,383,491,494
491,493,397,490,492
491,493,445,491,492
491,492,504,491,493
492,492,569,492,491
493,492,626,492,492
491,493,625,493,494
491,492,613,493,493
490,492,534,493,494
491,492,440,491,493
493,492,397,491,492
491,491,376,492,494
492,493,377,490,493
492,492,387,492,495
494,493,416,491,494
491,492,468,491,493
491,493,529,492,493
490,491,602,490,492
491,493,628,492,492
491,493,620,491,492
491,493,581,491,492
492,492,491,491,494
492,492,416,491,493
490,491,383,490,492
493,493,375,490,494
492,492,383,491,494
492,491,395,491,491
491,493,440,491,493
490,492,496,490,492
490,492,560,491,491
489,493,621,490,491
491,493,626,490,492
490,491,616,492,493
493,494,547,493,493
491,492,448,491,493
493,493,403,491,494
492,491,377,491,494
490,491,376,492,493
490,493,385,491,493
490,492,410,492,495
492,493,463,491,494
492,494,522,490,492
492,494,597,490,493
493,492,629,491,492
491,493,625,492,494
490,494,591,490,493
491,492,502,492,493
493,492,423,492,493
491,492,388,492,493
493,492,375,491,492
493,494,380,492,493
489,492,391,489,493
493,493,433,490,493
491,492,489,491,493
491,491,550,491,491
491,492,619,491,493
492,493,628,490,493
490,493,615,491,492
491,493,559,491,492
491,493,459,491,493
492,492,406,491,494
491,492,376,490,492
492,492,375,491,492
493,491,386,491,494
491,492,409,492,493
490,492,457,491,493
492,492,514,490,492
491,493,586,491,494
492,491,626,490,492
493,493,624,490,493
492,493,604,490,493
493,492,513,492,493
492,493,428,491,494
491,493,392,491,494
491,491,376,492,493
490,493,380,492,493
491,493,389,492,496
493,492,427,491,493
493,494,483,491,493
491,493,545,490,494
492,493,612,490,493
493,492,631,492,494
491,491,620,492,494
491,494,570,490,494
491,492,472,491,493
491,493,409,491,492
491,493,377,491,491
491,493,375,490,492
492,493,384,492,492
491,494,403,489,493
491,493,450,492,493
491,492,508,490,493
491,492,578,491,493
491,492,626,492,493
492,492,626,491,492
491,494,612,491,495
492,494,524,492,493
493,493,436,491,493
492,493,397,491,493
493,491,374,491,492
492,491,379,491,491
491,494,387,492,494
491,492,420,492,493
492,493,474,492,493
491,493,535,492,492
490,493,607,491,494
491,494,630,490,493
489,492,619,492,494
493,493,579,490,495
492,493,483,491,493
491,492,415,491,493
492,493,380,492,494
491,492,375,491,494
492,492,380,491,492
491,494,394,490,491
491,494,443,490,492
490,492,500,491,492
492,492,566,490,490
492,493,623,492,495
490,491,626,492,493
491,492,615,493,493
