Sensor0,Sensor1,Sensor2,Sensor3,Sensor4

494,493,492,377,491
494,492,492,386,491
494,492,491,3,492
494,554,490,494,493
494,3,379,491,492
491,492,394,490,495
491,493,432,490,494
491,493,490,490,492
492,494,554,490,494
493,494,619,491,495
493,492,630,490,493
492,494,620,492,495
491,495,558,491,494
493,493,459,491,493
491,492,405,491,493
491,494,373,491,492
492,492,377,492,493
492,494,385,492,493
492,494,409,490,494
492,493,459,490,493
491,492,515,491,494
491,492,589,490,494
494,494,628,492,493
492,492,625,492,493
493,495,601,490,492
492,495,515,492,494
493,493,428,491,494
493,492,392,492,492
491,492,377,491,495
491,494,379,490,494
491,493,391,492,493
490,492,428,491,493
491,493,482,490,493
493,492,546,491,492
492,495,612,491,493
491,493,631,490,494
494,493,622,491,494
494,492,572,491,495
493,493,469,491,493
492,493,411,492,494
492,493,375,490,494
491,493,375,491,492
491,494,383,491,492
491,494,401,490,495
491,492,453,490,492
491,493,510,492,492
491,492,580,491,495
494,493,629,491,493
491,492,627,492,494
491,493,612,493,495
495,494,528,490,494
492,493,435,491,494
493,492,395,490,493
492,495,375,490,493
493,493,379,490,494
492,492,388,491,492
491,492,422,491,494
491,492,474,490,493
492,492,537,491,493
491,493,609,493,493
491,493,630,491,495
492,492,622,490,492
492,495,581,493,495
492,493,481,490,493
492,493,414,490,494
493,493,382,490,494
494,493,373,489,493
491,492,384,492,493
492,492,397,492,493
491,493,444,490,492
491,493,503,491,493
491,493,566,491,493
492,495,625,492,493
491,493,629,491,495
491,494,613,492,495
493,492,541,492,495
492,493,445,491,494
492,492,400,492,494
493,493,375,492,492
491,493,378,492,495
491,493,385,489,493
492,495,414,490,493
491,493,468,491,493
492,492,526,491,493
493,493,604,492,493
492,494,629,492,494
491,493,623,492,493
491,492,586,492,493
491,493,494,491,495
492,493,418,490,493
492,492,386,492,495
492,494,374,489,494
493,492,382,490,493
492,492,395,491,495
492,492,437,491,494
493,493,494,492,493
491,493,559,490,495
494,494,619,490,493
492,494,627,490,493
493,494,617,490,493
493,492,551,491,493
493,492,453,491,494
492,493,402,491,494
492,492,376,491,494
492,492,376,492,493
490,493,383,491,494
493,492,407,490,492
492,492,463,491,493
490,493,518,490,494
494,495,595,490,493
493,493,630,492,495
492,494,622,490,494
491,492,598,490,493
493,494,506,492,494
493,492,422,491,493
492,493,389,491,492
490,493,374,490,493
492,492,382,491,494
493,493,392,489,493
490,492,430,490,493
493,493,488,490,493
491,492,551,492,494
491,492,617,490,494
493,493,629,491,492
491,491,620,492,495
492,494,562,490,493
493,494,463,491,493
492,493,408,490,494
491,492,375,492,494
494,492,377,490,492
492,494,385,492,494
491,491,406,493,493
491,492,455,491,493
491,492,513,490,494
493,494,583,491,492
492,492,629,492,494
493,493,626,490,495
493,492,606,490,495
494,492,521,492,495
493,493,430,491,493
492,493,394,492,494
491,494,375,491,494
491,494,377,490,492
492,494,389,489,492
491,495,424,490,493
492,492,480,490,492
492,493,543,491,493
491,494,613,491,495
492,492,631,491,493
491,492,621,492,493
491,492,575,490,495
494,494,475,492,494
492,492,413,491,494
492,494,377,489,493
493,493,376,490,494
492,492,385,491,493
491,493,398,491,495
491,492,448,490,492
492,492,506,492,493
492,493,574,492,492
491,493,625,491,492
492,494,626,490,493
491,492,613,492,493
493,495,532,491,494
492,492,438,490,494
493,493,398,491,495
492,492,377,492,494
490,492,378,490,494
493,493,385,491,492
493,492,419,491,493
491,493,470,490,493
491,493,531,490,493
493,494,606,491,493
491,494,628,491,494
492,493,622,490,493
492,491,583,493,495
491,492,486,492,494
492,493,416,492,493
491,492,383,491,495
491,493,372,490,494
491,492,383,489,494
492,494,395,489,494
492,492,441,490,493
492,493,499,490,493
491,492,561,490,493
493,493,625,492,494
492,493,628,491,493
492,494,614,491,493
492,494,543,490,493
492,493,449,491,494
491,492,401,489,494
494,493,376,493,492
491,491,378,492,495
491,492,386,491,495
491,492,414,492,494
491,493,465,491,494
492,492,522,491,494
492,493,602,491,494
492,494,629,490,494
493,493,624,491,494
493,493,591,492,493
491,494,498,491,495
492,493,419,490,493
491,491,387,492,494
491,492,373,492,493
492,493,380,491,493
492,493,391,490,495
491,491,435,489,493
492,493,494,491,494
490,492,555,490,495
493,494,620,491,495
492,492,630,492,494
491,494,617,490,494
491,492,556,491,495
493,494,458,491,494
491,493,403,490,493
493,494,374,489,492
492,494,377,491,493
490,492,385,490,494
493,493,406,490,492
491,492,459,490,493
492,492,516,490,493
492,493,591,492,493
493,492,630,491,493
492,494,623,491,494
491,492,599,490,493
494,493,512,491,495
493,493,425,490,494
493,493,393,490,495
493,493,374,490,493
491,492,380,491,494
493,493,391,492,493
490,492,426,490,493
491,492,484,491,492
491,493,545,491,494
491,492,614,490,494
493,494,630,491,492
492,492,621,492,495
493,492,570,492,495
492,493,470,491,494
492,493,408,491,493
492,493,375,490,494
493,492,374,490,492
491,494,382,490,493
492,494,402,489,493
493,493,453,491,493
491,492,510,490,494
492,495,580,490,495
492,492,628,492,493
491,492,625,492,493
491,494,609,492,493
491,494,525,491,495
493,493,434,491,494
492,493,396,492,493
493,494,375,491,494
493,491,380,491,494
492,492,389,491,495
492,494,420,489,493
491,492,477,490,493
492,493,537,491,492
491,493,608,491,492
493,494,629,490,493
493,494,622,492,493
490,493,578,490,495
492,493,479,491,494
491,492,414,490,495
492,492,380,492,496
491,492,375,492,493
493,493,383,491,493
492,493,399,490,495
492,494,445,490,492
491,492,501,490,493
492,493,569,489,494
494,494,626,491,494
491,494,625,491,495
491,491,614,489,493
493,494,536,493,495
492,493,441,492,494
492,493,398,491,493
491,493,377,490,495
491,493,376,490,493
491,492,387,491,493
493,493,415,490,494
492,492,469,490,494
493,492,528,491,492
492,495,602,493,495
492,493,631,490,495
493,494,621,491,492
491,494,583,491,493
492,493,492,491,494
492,493,419,491,493
492,492,384,490,493
491,492,373,490,494
491,491,382,492,495
491,491,395,491,495
491,492,438,491,493
492,493,497,489,493
492,493,558,491,493
493,493,623,491,493
493,493,628,490,494
493,493,616,489,494
494,494,550,490,493
492,492,451,491,494
493,492,401,490,493
493,492,376,492,494
491,492,375,492,493
491,493,383,490,493
491,491,412,491,494
491,493,461,490,494
492,492,521,490,493
493,494,597,491,495
493,492,630,491,495
493,492,625,490,493
493,495,595,493,495
491,494,503,491,494
493,493,422,492,494
491,493,387,491,493
492,493,373,490,493
492,493,380,489,493
491,492,391,489,494
493,492,432,490,493
491,493,489,490,494
491,492,552,491,495
492,492,618,492,494
491,493,630,491,494
491,493,616,490,495
493,492,564,490,494
492,494,461,491,494
491,493,406,490,494
493,494,375,492,493
492,493,377,492,495
492,494,383,489,493
491,492,407,492,494
491,491,456,491,494
492,492,512,491,493
493,493,588,491,493
492,494,627,491,494
491,493,625,490,495
493,493,605,490,495
494,492,517,491,495
494,492,429,490,494
493,494,392,491,493
491,491,375,492,494
494,493,381,491,492
492,493,388,490,492
491,493,423,490,493
492,493,481,490,493
491,492,543,490,493
493,494,611,492,493
493,492,631,492,494
492,492,620,492,494
492,492,574,493,494
493,493,473,492,494
492,492,410,491,494
492,491,376,491,492
491,494,374,491,493
493,493,384,491,494
493,493,401,493,492
491,492,450,492,494
492,493,506,491,493
492,493,578,494,494
491,492,626,493,493
492,493,625,491,493
492,494,610,492,495
492,491,529,491,495
493,493,436,492,494
493,493,399,491,495
493,492,377,492,495
492,491,379,492,494
492,493,388,491,494
490,491,418,490,493
493,493,474,491,492
491,492,533,491,492
491,494,606,492,493
494,494,631,493,493
491,493,624,492,495
491,493,579,492,495
493,492,486,492,494
492,492,416,492,494
493,492,382,493,493
494,493,375,492,492
491,493,382,492,494
491,494,395,490,492
492,494,443,490,493
492,492,500,490,493
492,492,565,490,494
491,494,623,491,495
492,491,628,490,494
494,494,615,493,494
490,493,541,492,494
492,493,446,492,494
492,493,401,491,494
492,494,374,490,493
490,493,376,491,494
493,492,388,491,494
493,491,415,491,494
491,492,466,490,492
492,494,524,491,493
490,492,600,491,494
493,494,629,490,492
492,495,623,490,493
493,494,587,491,493
493,492,497,491,494
492,493,420,490,494
491,493,385,491,495
494,492,375,492,494
491,492,382,491,494
490,492,392,492,493
491,492,437,490,494
492,492,494,491,493
491,492,557,491,493
493,495,620,490,494
492,493,629,491,494
493,492,618,491,492
491,494,553,491,495
492,492,453,491,493
492,492,404,491,494
490,493,376,493,493
491,492,374,491,493
492,491,385,491,494
492,495,407,490,494
491,492,460,490,493
492,493,518,490,493
492,492,594,491,495
494,492,630,490,494
493,494,625,492,493
491,493,598,490,495
492,494,509,491,494
492,493,425,491,493
492,493,391,490,493
492,494,374,490,493
491,493,381,491,494
492,491,389,490,492
490,492,432,491,494
492,492,487,490,494
491,492,547,492,494
491,495,615,490,494
491,494,629,490,495
491,492,620,490,493
493,495,567,490,493
493,494,467,491,494
492,493,408,491,493
491,493,379,490,495
491,494,375,489,493
490,492,384,491,493
490,492,405,492,493
490,492,453,491,493
492,492,511,490,493
492,494,582,493,495
491,493,628,491,495
493,492,627,491,495
492,492,610,491,496
492,492,523,492,496
493,494,432,490,493
491,493,394,492,494
494,492,375,491,493
493,494,378,490,493
492,494,389,490,493
493,494,422,491,493
491,492,479,490,493
491,492,538,491,494
493,493,613,491,495
491,493,631,493,494
491,493,621,492,493
494,494,577,491,494
492,493,478,491,494
492,492,411,490,493
492,494,379,489,493
492,493,376,490,494
492,492,381,491,493
492,492,402,490,495
492,493,446,490,494
491,493,504,491,493
491,492,572,492,493
491,493,625,491,494
492,494,626,492,495
491,492,614,490,493
493,492,533,492,494
494,494,441,491,493
493,493,400,491,495
492,492,376,491,495
493,494,377,490,494
491,493,386,490,494
493,492,413,490,492
492,493,471,490,493
491,494,530,490,493
493,494,605,493,494
491,493,632,491,494
492,494,621,491,495
492,492,585,492,496
492,492,490,492,494
492,493,417,492,494
493,492,383,492,493
491,493,375,492,495
491,494,379,489,494
493,493,393,489,493
493,493,441,490,493
492,491,497,490,494
491,493,559,490,495
493,493,625,491,494
492,493,627,492,493
491,494,615,492,494
491,493,546,493,494
492,492,449,492,495
492,494,402,491,494
491,492,376,493,495
493,492,377,491,495
493,492,387,492,495
491,491,412,492,493
492,493,462,491,493
491,492,521,491,494
493,493,596,492,493
491,494,629,491,494
493,494,624,491,494
493,491,592,493,494
494,493,503,491,495
493,493,420,491,495
492,492,388,492,495
492,492,375,492,494
491,493,380,492,493
491,493,392,490,495
493,494,432,490,493
492,492,490,491,493
492,493,552,489,494
494,494,619,492,495
494,492,630,492,493
493,494,616,492,496
492,492,559,491,494
492,492,459,491,495
491,492,405,491,493
491,493,375,492,493
491,491,377,492,495
493,493,385,489,494
490,491,407,490,495
493,492,457,490,494
492,492,516,490,494
492,492,590,491,494
493,493,628,491,493
492,493,627,491,495
491,494,600,491,493
491,494,514,491,494
492,493,429,490,493
492,493,393,490,494
491,491,375,490,494
492,491,379,490,493
491,491,390,492,496
491,491,428,491,493
491,492,483,491,493
490,492,544,490,495
492,495,612,491,495
491,493,630,490,494
493,493,621,490,495
495,494,572,490,495
493,493,472,492,495
492,493,410,491,495
491,494,377,490,493
491,492,374,491,493
491,493,382,490,492
491,494,401,490,492
491,492,452,491,493
491,493,508,491,493
491,493,580,491,495
493,492,628,491,495
492,492,626,492,494
491,492,612,492,495
490,494,526,490,494
493,493,435,492,494
493,492,397,491,493
492,494,372,490,493
493,494,379,490,493
492,493,389,492,493
490,492,420,490,494
492,492,475,490,493
491,492,535,492,495
491,493,608,492,494
491,493,630,491,493
492,492,622,492,494
492,494,578,492,495
492,493,481,491,495
492,493,414,490,494
493,492,382,490,494
493,493,373,491,493
492,491,382,491,494
493,494,398,489,493
490,492,442,491,493
491,492,501,490,493
491,494,566,489,493
492,495,625,493,495
491,493,628,490,495
493,495,614,492,493
493,491,540,491,495
493,493,444,491,495
492,493,401,492,494
493,494,375,490,494
491,493,376,491,495
492,492,386,490,493
491,494,412,489,493
492,493,468,490,493
491,493,527,491,493
490,493,603,491,495
493,494,630,490,494
490,492,623,492,494
491,492,587,493,494
492,493,496,493,496
492,493,418,491,494
492,493,386,492,495
491,494,375,490,494
492,492,381,490,495
493,492,394,490,495
492,492,437,491,494
490,492,494,490,494
491,491,557,489,494
493,494,620,491,493
492,493,627,490,493
492,494,616,490,493
492,495,554,492,495
491,493,453,491,495
492,492,403,491,494
492,492,376,490,495
492,491,377,491,495
491,492,385,491,493
493,492,409,491,493
491,492,461,490,494
492,492,518,490,493
491,494,593,490,494
493,494,629,490,495
493,495,624,491,493
492,491,598,491,493
492,494,506,491,495
493,493,423,492,495
491,492,389,492,494
491,492,374,491,493
491,493,382,491,495
491,493,388,489,492
490,492,432,491,493
491,493,486,490,493
492,492,549,490,495
493,493,618,491,494
492,493,628,492,494
491,493,619,491,495
495,493,563,492,494
492,492,462,491,494
491,493,407,490,494
492,492,377,492,495
492,492,375,490,492
491,494,383,491,495
491,491,406,491,495
491,491,454,491,494
491,492,511,490,493
492,494,583,492,494
491,492,628,491,495
493,494,624,490,494
492,494,604,489,494
493,493,519,491,495
493,493,431,490,494
491,492,392,491,496
492,491,373,489,493
492,492,379,492,493
490,492,387,491,493
490,493,423,490,493
491,492,481,490,494
491,492,540,489,494
491,493,612,490,495
493,493,631,491,495
492,492,621,492,495
493,492,576,490,494
492,494,475,492,495
493,493,410,490,494
491,493,378,491,493
490,494,372,490,493
493,494,382,489,494
492,492,402,492,494
492,492,447,491,494
491,492,507,490,494
491,492,576,493,496
491,492,625,492,494
491,493,625,491,493
491,492,614,490,495
491,494,529,490,495
493,493,439,491,494
492,493,397,491,494
494,494,375,490,495
493,492,379,490,493
492,493,388,491,495
491,494,417,489,494
491,492,473,491,493
490,492,531,491,492
491,493,603,491,493
492,492,632,492,494
492,493,622,491,493
491,493,583,491,495
493,493,488,492,495
492,492,415,491,495
492,492,382,490,493
493,493,374,492,493
492,492,382,491,493
492,494,394,490,492
492,493,441,490,493
491,492,499,490,493
492,493,565,492,493
491,493,624,492,495
492,494,627,490,494
491,492,617,493,495
490,492,543,493,494
493,493,448,491,494
492,492,403,492,493
491,494,372,492,494
491,493,378,490,494
493,492,386,491,495
493,491,412,491,495
492,492,464,490,493
491,492,523,492,494
492,493,598,491,493
491,494,629,491,493
492,494,622,491,494
493,495,589,490,495
491,493,500,491,494
492,492,419,492,495
493,492,388,492,496
492,492,375,492,494
490,492,380,492,494
491,492,390,492,493
493,492,436,491,493
490,492,491,490,494
491,492,555,491,494
494,494,619,492,495
493,492,629,492,496
493,492,617,490,493
492,491,559,494,496
493,493,455,492,494
492,492,405,492,494
491,493,374,492,493
491,493,374,490,494
491,492,386,490,494
493,494,406,492,493
490,492,460,490,493
491,492,517,491,494
490,491,590,493,495
492,494,629,491,495
491,493,623,492,495
492,491,602,491,493
493,494,513,491,494
492,494,427,492,494
492,492,392,491,495
493,493,376,491,493
492,491,381,492,495
493,493,390,489,494
490,492,429,491,493
491,492,484,491,494
492,492,545,492,496
493,493,616,491,493
493,493,630,492,494
493,493,621,491,495
493,493,570,492,495
492,493,468,491,495
493,494,408,490,494
491,492,377,493,494
493,492,375,490,493
492,494,383,490,493
491,494,402,490,493
492,493,451,491,494
491,493,511,490,494
493,492,580,492,494
493,493,629,492,494
491,492,627,493,494
490,493,610,493,493
491,492,524,492,495
494,493,435,491,494
491,493,395,491,495
491,495,374,490,494
493,493,380,491,494
492,492,388,491,495
493,494,420,490,493
491,492,477,491,493
491,493,537,491,493
490,493,609,493,494
492,494,629,491,494
493,494,620,492,494
492,492,578,491,495
493,492,479,493,495
493,493,414,491,495
492,492,382,492,496
492,491,375,492,494
493,494,383,490,493
491,493,398,490,495
492,491,444,491,493
491,493,503,490,493
491,494,569,491,494
493,494,625,491,495
493,494,626,491,493
492,491,616,492,493
492,495,535,492,495
492,493,442,493,496
491,493,399,492,494
490,492,373,490,494
492,491,377,490,493
492,491,386,492,494
493,493,415,490,493
492,492,470,491,493
493,491,528,491,495
492,494,602,491,495
492,493,631,491,495
493,492,621,491,493
492,493,584,492,493
492,494,493,492,494
492,493,418,491,494
492,493,385,491,494
490,492,373,491,495
492,491,383,491,494
491,492,397,492,494
490,491,438,492,494
491,491,495,489,493
492,493,559,492,493
492,492,623,492,495
493,494,628,491,493
494,493,617,491,495
494,493,550,491,495
492,493,451,491,494
492,492,403,491,494
493,494,376,492,494
491,493,376,492,492
491,493,384,491,493
490,493,411,491,495
492,493,462,490,493
491,492,521,491,494
493,492,596,490,494
494,493,631,492,495
491,492,624,492,494
493,495,592,493,495
491,493,504,492,495
492,493,420,491,494
491,494,387,490,492
491,494,375,490,494
492,493,381,490,494
491,493,390,492,494
492,492,434,490,493
491,492,489,490,494
491,492,552,492,494
490,493,618,493,494
490,493,630,491,495
493,495,618,490,493
491,492,563,492,494
493,494,461,491,494
493,494,407,491,494
493,492,376,491,493
492,494,374,491,495
491,492,384,490,493
492,491,406,492,493
491,493,456,491,493
491,493,514,491,493
491,491,588,491,496
492,495,628,490,494
491,493,625,491,495
492,492,605,491,496
493,493,518,492,495
493,493,430,491,495
491,492,391,490,494
493,492,376,492,493
492,491,380,490,493
492,494,388,490,492
491,495,425,490,493
491,493,481,490,494
491,492,541,490,494
493,493,613,492,493
491,492,630,492,494
491,493,621,492,494
491,492,574,493,494
491,492,472,491,494
492,493,411,490,494
491,492,380,490,493
493,493,374,490,494
492,493,385,490,494
491,494,403,491,492
491,493,451,490,494
492,492,507,490,493
490,492,576,492,494
491,493,626,491,493
491,494,626,490,493
492,494,611,491,496
491,492,530,490,494
492,494,438,492,494
491,492,397,490,495
493,492,377,491,495
491,492,380,492,494
490,492,387,489,493
490,493,418,491,494
491,492,475,491,494
491,493,533,490,493
492,495,607,491,493
492,493,631,491,493
491,494,623,492,495
493,495,579,491,493
491,492,485,492,495
493,493,416,492,494
491,493,383,492,493
493,492,375,491,493
492,494,381,492,494
490,491,396,489,493
492,493,442,490,493
492,493,501,490,493
491,492,567,491,495
492,495,622,491,494
491,493,629,492,495
492,492,616,493,493
491,494,539,491,494
492,494,447,491,493
491,493,400,492,494
491,491,375,489,494
493,493,377,490,492
491,491,387,492,495
492,491,415,491,494
491,492,468,491,493
491,493,524,490,493
491,494,599,491,495
491,492,628,490,494
492,494,622,490,495
494,494,588,490,494
493,493,496,492,494
492,492,419,491,495
492,494,385,490,495
490,491,374,493,493
491,493,380,491,492
491,493,392,491,492
491,493,436,490,494
492,492,494,491,493
491,492,557,492,493
493,493,621,491,496
493,492,630,492,495
492,492,619,492,496
493,495,552,490,494
492,493,456,491,494
492,492,402,491,493
491,493,372,491,492
492,494,376,489,493
492,493,385,492,494
490,492,409,490,494
491,493,461,491,494
491,492,518,491,494
491,493,594,493,495
491,493,629,491,494
492,492,625,491,493
493,494,600,492,495
492,494,507,491,494
492,492,423,490,494
493,493,391,490,495
493,492,376,491,495
491,494,379,489,494
490,492,392,489,493
492,493,429,491,493
491,492,486,490,493
491,494,547,490,492
491,495,618,492,495
491,493,629,490,494
491,494,619,491,495
494,492,568,492,495
492,493,467,491,494
492,492,410,491,494
492,493,375,492,494
491,493,376,491,494
491,494,382,490,493
492,494,402,489,493
492,494,454,490,493
491,492,512,491,493
492,492,584,491,493
491,495,627,492,494
490,492,625,492,493
490,493,608,491,494
491,493,522,491,495
492,493,432,491,495
492,493,393,490,493
491,492,377,492,494
492,492,380,490,494
492,492,390,491,495
492,492,424,491,493
491,493,477,490,493
491,492,540,490,493
492,494,610,492,493
492,493,629,490,493
493,494,621,489,493
492,492,577,493,494
493,493,476,491,495
492,493,413,491,494
491,491,380,491,496
491,492,375,491,494
491,493,383,490,494
492,492,398,491,492
491,492,448,490,494
491,493,504,490,493
492,494,572,490,494
494,494,626,491,494
492,492,628,491,493
492,494,611,491,496
492,492,533,491,493
492,492,439,491,494
491,492,396,491,493
491,493,375,492,493
491,492,379,492,495
492,493,387,489,494
490,492,417,490,494
491,492,470,490,493
492,492,530,490,494
491,492,606,491,494
493,494,629,492,494
491,492,624,491,495
491,494,582,491,493
492,493,488,491,495
492,493,416,490,493
491,493,384,492,494
493,492,375,490,493
492,494,384,491,494
490,491,397,492,494
490,492,440,490,494
491,492,498,491,493
491,492,563,491,495
492,494,621,490,494
491,493,628,491,494
493,492,616,490,495
493,493,547,490,495
492,494,450,491,494
491,493,401,492,495
491,494,374,489,494
491,494,375,491,492
491,493,384,490,493
491,495,409,490,493
491,492,466,491,493
491,492,522,491,493
490,493,600,491,495
493,492,631,492,495
491,492,624,492,494
491,492,592,490,496
493,493,501,492,495
493,493,421,490,494
492,494,387,490,493
491,494,374,490,494
493,493,381,489,494
493,492,393,491,492
490,493,434,490,494
492,493,491,490,493
491,492,554,492,494
491,493,618,492,493
491,494,628,490,492
491,492,619,492,493
493,495,558,492,494
492,493,458,490,494
492,493,406,490,494
492,492,376,489,495
492,491,375,489,493
492,492,384,492,493
493,493,407,489,492
490,492,457,491,493
491,493,514,490,493
492,494,587,490,495
492,494,629,491,495
492,492,623,490,492
492,492,604,492,496
492,492,515,491,495
492,492,427,492,494
491,493,392,491,493
493,493,376,490,493
492,493,378,491,494
491,492,390,489,493
492,493,427,490,494
492,493,483,490,493
492,492,545,490,492
491,492,615,491,494
492,494,630,490,493
491,493,620,491,493
490,493,569,492,493
492,494,471,491,495
492,492,412,491,494
492,493,376,492,494
492,492,377,491,495
492,491,385,491,495
492,491,404,491,495
490,493,450,489,493
491,492,508,491,494
492,492,579,490,493
491,495,627,490,493
492,494,626,490,494
494,493,610,489,494
494,493,526,491,493
492,493,434,490,494
492,494,396,489,494
491,492,377,492,493
491,493,378,491,493
491,493,387,491,494
492,491,423,491,493
491,493,476,491,493
491,494,537,490,494
493,494,610,491,494
492,492,630,493,494
491,495,621,492,493
490,492,580,495,494
493,493,481,495,494
492,493,414,494,493
491,494,379,494,492
491,493,374,494,494
490,492,384,492,493
492,493,398,493,492
492,492,446,490,493
490,493,503,488,493
489,492,568,490,494
492,493,625,491,494
492,493,628,491,492
492,494,615,492,496
492,495,537,491,493
492,494,444,492,494
491,493,399,490,494
492,493,374,492,492
491,491,378,491,492
492,494,385,492,494
490,492,414,492,493
491,492,469,491,493
491,492,526,491,494
491,493,601,491,492
492,492,630,491,493
493,493,624,491,494
492,493,587,491,495
492,492,494,491,494
492,493,416,491,494
491,492,386,490,493
493,494,373,491,493
491,494,381,490,492
491,493,392,490,492
491,493,437,490,493
491,492,496,491,493
491,492,559,490,493
491,494,620,492,494
492,492,630,492,494
490,493,617,492,495
491,492,552,491,494
493,493,454,492,494
491,492,403,492,494
492,495,375,490,493
492,493,378,490,494
492,492,386,491,494
491,493,408,490,494
491,492,463,491,493
491,493,521,492,493
491,494,596,493,493
490,494,628,491,493
492,494,625,491,495
491,495,595,489,493
491,492,505,492,494
493,494,423,490,493
491,492,391,491,495
492,491,375,492,495
490,492,380,490,494
492,493,390,492,493
490,491,432,490,494
491,493,488,490,493
491,493,549,491,493
492,495,615,491,495
491,494,629,492,495
492,492,621,490,493
491,495,566,492,494
491,493,465,492,494
492,493,408,492,493
491,493,376,490,494
493,494,376,490,493
491,493,385,492,493
493,494,406,489,494
493,493,456,489,494
491,493,512,489,494
492,495,584,491,497
491,493,628,489,496
493,494,625,492,494
492,495,606,492,492
491,494,519,492,493
491,493,430,491,492
492,492,395,491,492
493,493,375,491,492
491,493,381,490,495
492,492,392,491,495
491,491,426,492,494
492,492,480,490,493
492,493,541,491,492
493,492,613,492,493
493,494,630,491,493
493,494,621,490,494
494,494,574,491,494
493,493,475,493,494
492,492,410,492,493
492,491,379,493,495
491,493,375,494,493
490,493,382,492,494
491,492,402,491,496
491,494,448,490,495
491,492,506,488,494
493,494,576,489,495
493,495,628,491,495
492,492,628,491,495
491,492,611,489,492
494,493,531,492,493
494,492,437,493,493
492,494,397,494,492
492,493,375,495,492
493,493,378,497,493
492,493,388,497,493
493,493,416,496,492
492,492,474,492,493
492,492,534,490,493
490,492,606,489,495
492,494,631,487,495
492,495,621,488,496
491,492,583,490,495
494,495,487,493,494
493,494,416,494,494
493,492,384,496,492
491,493,376,495,494
491,494,382,492,493
491,492,396,490,492
491,493,442,488,492
491,493,500,489,492
491,493,562,488,494
492,492,625,490,493
493,493,627,491,493
492,492,618,489,496
494,493,544,490,496
493,493,448,491,495
491,493,400,489,494
491,492,376,493,494
493,492,378,490,493
492,494,385,490,492
491,495,412,490,493
492,493,465,490,492
491,492,525,489,492
493,494,600,491,493
492,492,631,492,494
491,493,624,491,492
491,492,590,492,493
494,493,499,490,494
492,493,420,491,495
491,492,385,489,495
493,495,374,490,495
493,493,383,491,496
492,492,393,491,496
492,494,434,490,493
491,493,493,491,492
491,493,555,492,491
492,493,620,492,491
492,493,628,491,493
492,494,617,491,495
491,492,556,490,493
492,492,456,491,494
493,492,404,489,495
492,492,377,490,496
491,492,376,491,495
493,493,384,489,495
490,493,406,491,496
492,492,458,490,494
491,494,516,489,493
492,495,591,490,494
493,493,628,491,493
492,492,626,491,496
492,494,597,490,496
492,492,510,491,497
493,494,426,491,494
491,493,391,491,492
490,492,374,491,494
491,491,380,489,493
492,492,391,492,495
493,493,429,489,495
492,494,486,489,494
492,493,547,490,496
491,495,613,490,495
492,494,631,490,495
493,493,618,491,493
491,494,567,491,492
492,493,468,493,494
492,493,410,493,496
492,494,378,489,494
491,494,375,490,495
491,492,385,491,495
491,492,406,491,493
491,493,453,491,493
491,492,510,491,494
491,494,584,492,496
492,494,626,490,495
493,493,626,490,495
494,494,608,490,494
494,493,525,490,495
492,494,432,491,494
492,492,396,490,493
493,493,375,491,493
491,492,377,491,493
492,493,388,490,493
490,494,423,491,495
490,494,477,490,493
490,493,539,491,494
492,493,610,492,495
494,492,631,494,493
492,492,622,495,492
493,494,576,495,492
492,492,479,492,494
492,492,412,490,493
492,494,378,489,493
492,494,375,489,495
492,493,383,491,495
492,492,401,489,494
491,494,447,490,496
491,493,504,490,495
491,493,572,491,495
491,493,625,491,494
491,495,628,491,497
492,495,614,490,495
491,492,536,492,496
492,495,441,491,497
493,495,401,490,498
494,494,377,490,493
492,493,377,492,492
492,493,388,491,491
494,491,415,492,490
491,491,470,490,491
491,492,527,490,491
491,491,605,492,495
494,493,630,490,493
491,494,621,491,495
493,492,585,490,497
492,492,490,491,496
494,493,418,491,494
492,493,382,491,495
491,493,375,490,496
491,494,380,489,495
491,494,392,488,496
492,496,440,489,499
492,494,499,490,498
490,494,559,490,497
492,494,622,490,495
492,493,629,492,494
490,495,616,492,491
491,493,549,493,489
492,491,451,495,492
492,493,402,493,495
491,493,378,491,497
493,494,378,492,499
493,495,388,491,499
492,494,413,488,494
492,495,464,489,493
492,494,522,488,492
490,493,597,491,491
492,494,629,490,489
493,493,624,490,491
490,490,594,495,493
494,492,503,493,494
493,493,422,492,494
492,491,389,493,495
492,491,375,492,493
490,493,381,492,492
490,492,392,489,494
490,492,431,490,493
492,493,490,491,493
492,493,551,490,495
493,495,618,490,499
492,495,631,489,498
492,496,620,490,501
493,497,561,490,498
492,495,462,491,495
492,494,406,491,490
492,493,375,492,487
492,488,377,493,490
493,492,383,493,493
491,492,407,491,494
492,492,457,490,494
492,493,514,489,495
492,493,587,489,494
492,494,628,491,492
493,493,627,493,492
492,495,602,494,494
492,495,515,494,494
492,493,429,492,494
492,494,395,493,495
491,493,376,489,495
493,494,379,488,491
491,492,390,488,494
491,492,427,489,494
492,493,483,489,495
491,492,544,490,495
492,495,612,490,496
491,494,631,490,494
493,494,621,490,492
493,493,572,489,492
494,492,471,492,494
493,491,411,491,494
494,493,376,490,493
492,492,374,492,491
494,492,382,490,495
491,494,401,492,496
491,492,452,494,494
492,492,509,494,494
491,492,580,493,495
493,493,628,493,495
491,493,626,491,494
491,493,612,490,492
493,494,527,491,493
492,495,435,493,495
494,494,396,493,493
492,495,373,490,494
493,494,379,489,494
494,494,388,488,493
491,492,420,488,495
492,493,475,488,494
491,493,536,490,496
491,493,608,491,496
492,495,631,490,498
492,494,624,491,497
493,496,583,495,499
493,497,484,494,497
493,494,414,492,493
494,492,382,490,493
495,493,374,488,491
492,490,382,489,494
494,493,398,490,493
491,492,443,490,492
491,492,501,490,495
492,494,565,489,496
492,496,627,491,496
491,493,628,490,495
492,495,614,491,494
494,492,542,491,495
492,493,445,491,497
492,493,400,491,494
494,494,375,492,492
492,495,378,491,496
492,495,385,490,493
493,495,412,490,493
493,493,466,489,492
492,492,526,490,492
492,491,602,491,496
494,495,630,491,496
491,494,624,493,493
491,493,586,494,490
494,493,495,491,490
494,492,418,492,490
495,492,385,493,495
495,495,375,491,497
495,491,381,492,500
494,492,394,492,499
492,493,436,491,493
491,494,493,492,495
493,494,558,492,494
494,496,621,497,489
496,495,627,495,493
493,494,617,488,495
494,493,555,491,497
494,495,454,490,493
492,494,403,490,492
494,491,376,492,493
493,490,376,492,495
492,493,385,492,496
495,494,408,497,495
492,492,461,495,496
493,494,518,494,495
493,495,593,490,498
491,495,629,482,498
490,496,624,492,498
491,493,600,496,493
495,494,509,494,493
495,493,425,497,492
492,492,390,498,492
491,490,373,495,491
492,491,382,492,495
492,493,388,487,494
492,492,431,487,492
493,492,486,487,493
493,491,548,489,495
494,492,616,490,492
493,494,630,491,495
491,493,619,489,496
493,493,565,490,494
493,494,465,492,496
492,494,408,490,493
492,493,377,489,491
492,494,375,491,495
492,493,384,489,495
493,495,405,489,495
493,493,454,490,493
492,492,512,492,490
491,491,586,493,491
491,493,627,492,493
492,492,627,497,494
492,492,609,495,495
495,491,521,493,494
494,493,431,494,494
494,493,395,492,495
492,492,371,488,492
492,491,378,490,493
492,492,388,490,493
490,491,422,489,490
493,491,478,489,493
491,492,539,491,497
492,492,609,489,495
493,494,631,490,495
493,493,620,491,493
493,494,576,497,494
493,491,476,500,498
493,493,411,497,501
493,493,381,495,500
492,495,376,495,497
491,494,383,490,489
493,491,397,489,486
492,488,445,491,489
493,490,504,492,489
490,491,573,491,490
492,491,624,489,490
494,491,625,489,493
495,493,612,487,493
491,492,533,489,495
494,493,437,489,493
491,493,398,491,495
491,492,375,492,496
491,493,379,491,499
493,495,387,492,498
494,494,419,490,498
492,495,472,490,496
490,495,532,489,494
492,493,604,488,493
491,494,629,490,493
491,491,621,490,490
492,491,584,490,491
491,489,488,490,491
492,489,415,490,491
491,490,381,488,492
491,492,373,488,493
489,492,380,488,493
490,492,395,489,493
491,490,440,489,494
492,492,496,490,495
491,491,562,489,495
492,492,621,489,495
490,491,625,489,493
493,490,615,489,491
493,491,544,490,493
493,491,446,490,491
493,491,399,492,496
491,491,372,490,496
492,495,375,490,500
492,496,386,489,498
492,498,412,491,493
491,494,465,490,490
490,493,523,489,490
492,493,597,493,491
494,490,628,492,490
490,492,621,491,492
493,493,589,492,493
493,492,501,490,492
493,490,419,489,493
493,491,387,490,499
494,492,375,491,501
491,495,382,491,498
492,496,391,493,494
495,492,436,496,489
493,489,491,498,491
493,491,554,497,493
492,494,618,495,496
491,494,629,494,494
493,492,616,490,495
495,492,558,488,494
492,492,457,489,492
493,492,404,488,492
495,490,375,490,493
494,492,376,493,493
492,493,386,493,496
493,492,404,492,494
493,491,458,493,495
492,493,517,496,494
490,493,591,493,497
492,497,629,494,497
492,497,628,495,493
492,496,603,495,495
492,492,513,490,493
494,490,427,489,494
493,490,391,489,494
492,493,373,487,494
491,493,378,488,498
492,492,390,490,497
492,495,428,490,494
491,493,482,491,492
491,491,545,490,492
491,491,614,489,492
490,490,628,491,494
491,492,619,491,494
492,492,571,494,496
493,492,469,494,495
494,491,407,491,494
491,493,376,489,495
490,492,372,486,491
492,494,381,489,489
491,491,401,490,494
493,491,452,489,496
494,493,509,490,494
493,493,583,491,493
493,494,626,490,494
494,494,626,489,493
492,494,609,491,492
492,495,525,490,497
493,494,435,490,497
492,493,397,492,497
492,495,374,489,493
493,493,380,489,493
492,494,388,489,495
492,492,422,491,496
493,495,478,491,493
490,493,538,491,491
492,490,610,489,492
493,489,631,492,492
493,489,618,491,491
494,491,580,492,495
492,494,479,493,496
495,491,414,500,496
493,493,381,502,496
492,494,374,502,500
494,492,383,490,496
492,494,400,483,496
489,493,443,485,492
491,493,502,489,488
493,492,570,491,490
493,493,626,492,495
491,494,626,491,498
492,493,617,491,497
490,494,538,490,497
494,494,441,494,493
495,490,400,498,492
495,488,371,496,489
494,488,377,497,493
492,491,384,497,493
491,489,414,495,493
492,491,468,490,495
492,493,527,486,496
491,496,600,484,501
490,496,630,484,497
491,494,621,487,495
491,492,587,489,494
491,491,493,490,492
492,490,415,491,491
491,491,384,491,491
491,493,373,491,492
490,491,379,496,491
492,492,394,503,493
493,493,438,507,492
493,492,496,505,495
490,493,559,497,497
491,493,622,496,500
496,495,630,493,497
492,494,617,485,488
493,492,549,482,490
492,490,448,485,493
493,490,400,486,493
491,490,374,486,496
492,491,375,488,497
491,492,385,490,496
491,493,406,488,492
491,490,462,492,490
492,491,518,494,490
490,491,595,493,492
491,492,628,493,492
490,492,622,491,494
493,493,593,491,495
490,493,503,485,494
491,492,420,486,494
491,493,387,489,495
491,491,374,489,495
492,494,379,491,498
492,493,391,491,493
490,491,432,489,491
491,490,486,489,491
491,492,549,490,492
491,494,616,490,498
492,494,629,491,501
493,497,620,490,502
491,495,565,491,497
492,494,461,491,487
492,490,407,490,489
493,490,374,494,492
493,489,376,493,496
493,493,384,491,498
493,495,406,489,501
492,495,457,486,496
491,494,514,488,490
490,492,584,490,487
493,488,628,489,487
492,489,624,491,492
492,489,605,490,494
492,491,517,491,494
493,492,428,490,494
491,492,390,491,493
491,491,376,492,493
493,491,379,493,493
490,490,387,492,495
490,491,424,489,494
490,491,479,488,495
492,492,541,490,496
490,493,614,491,495
492,493,629,489,496
493,494,619,489,492
493,494,572,489,491
492,490,472,490,492
493,489,410,491,494
491,491,376,488,495
492,492,374,491,499
492,494,384,495,503
491,495,400,497,501
491,495,450,494,496
491,494,507,489,482
491,485,574,484,483
493,488,625,490,493
492,489,625,491,495
492,490,611,490,493
491,493,529,494,493
494,492,435,497,493
493,491,395,497,494
492,490,375,495,492
490,490,377,494,493
492,491,384,490,495
492,491,418,487,494
492,493,471,488,496
492,494,532,488,498
491,494,607,493,499
489,496,631,492,498
492,493,620,492,492
493,493,581,497,491
493,493,484,500,491
495,489,414,497,490
493,490,380,494,494
493,491,374,491,493
493,494,382,486,492
490,493,394,482,492
493,492,441,485,492
493,492,500,487,493
492,492,567,490,496
491,493,621,489,495
491,493,628,489,494
494,493,615,491,495
492,491,541,490,495
492,493,446,490,496
491,492,399,489,493
495,491,376,491,493
492,492,377,489,492
490,492,384,492,493
492,491,413,495,494
491,492,468,495,493
490,493,522,498,491
491,492,601,495,492
491,492,628,493,490
490,492,621,492,494
491,491,589,489,497
490,493,497,489,497
493,492,419,492,497
492,493,386,491,498
489,492,372,489,497
492,495,380,489,493
491,494,391,491,488
490,492,437,490,492
494,492,493,490,492
492,492,558,491,496
491,494,618,490,496
493,493,629,491,495
492,493,618,489,491
491,488,554,488,493
495,492,455,489,493
492,492,402,488,493
493,493,373,488,493
494,492,377,489,494
493,492,384,490,492
494,493,407,488,488
489,492,460,490,490
491,492,517,492,492
493,492,592,491,490
495,489,629,491,491
492,491,623,491,496
492,492,595,488,493
492,491,508,491,496
494,493,422,491,496
492,493,391,490,498
491,493,375,492,495
492,493,379,491,494
491,492,390,488,492
492,491,428,492,489
491,489,484,490,490
492,492,547,492,491
490,490,614,492,495
491,492,627,491,494
492,491,620,490,494
491,493,564,490,496
492,493,467,490,495
491,493,408,490,493
492,492,374,492,490
492,492,377,492,491
491,493,382,490,493
491,494,402,487,494
492,494,454,488,492
491,492,512,490,494
493,494,583,491,491
491,491,629,490,494
491,490,626,492,495
491,491,608,491,496
492,493,524,492,496
492,494,431,491,491
491,490,392,491,492
493,492,374,491,492
492,491,376,490,493
491,492,387,490,491
490,492,422,490,494
491,492,476,491,493
491,493,540,492,496
491,495,608,491,495
492,494,629,490,494
493,494,620,488,490
492,491,577,488,490
492,491,476,491,493
494,491,411,492,493
492,491,376,492,492
492,492,373,490,491
492,493,384,493,493
490,492,396,489,490
491,491,448,493,492
492,491,504,495,493
493,494,571,496,494
493,494,626,495,496
492,493,629,493,493
493,494,614,494,497
495,495,533,496,495
491,491,438,496,493
490,492,397,491,492
490,494,374,488,494
491,491,378,486,496
493,495,387,486,495
490,494,417,486,494
492,493,471,487,493
492,493,530,489,490
492,491,602,489,491
492,490,629,491,494
493,493,622,489,494
493,491,585,492,496
493,493,490,494,496
492,492,417,494,492
492,492,382,494,492
493,490,373,491,489
493,492,381,492,491
489,491,395,489,493
491,491,439,490,492
493,492,497,489,492
492,493,560,490,491
490,491,622,490,494
492,491,626,490,493
491,492,613,492,496
492,491,546,491,495
492,492,448,491,496
492,492,400,492,495
492,494,376,485,495
491,494,375,487,495
492,494,384,490,492
491,492,409,491,491
491,490,464,493,492
493,493,523,492,494
492,495,599,487,494
493,494,629,487,495
491,492,625,490,495
492,491,592,493,494
493,492,502,489,492
492,491,421,490,491
492,491,387,491,492
494,490,374,491,493
492,491,380,491,493
491,491,389,490,492
491,491,433,490,495
491,493,490,489,493
490,492,551,490,492
491,492,616,489,491
492,493,627,490,491
493,490,618,490,492
491,494,561,492,496
492,492,458,492,494
491,493,405,491,493
492,495,374,489,492
490,492,378,492,495
492,493,384,490,495
490,492,409,489,492
492,493,458,490,491
493,492,513,490,490
493,494,588,492,494
490,492,628,488,495
493,494,624,490,495
493,494,602,491,496
494,495,515,492,496
492,494,428,492,494
493,493,393,491,490
490,491,375,490,489
492,489,379,491,489
491,489,390,490,492
493,490,426,491,492
492,491,482,490,493
492,493,543,490,492
492,492,614,490,495
492,495,630,491,495
490,494,618,492,495
492,493,571,494,494
491,491,471,492,491
492,490,408,493,491
493,491,377,493,494
492,493,373,492,493
492,494,382,489,497
492,496,402,489,499
491,495,451,489,497
491,494,509,487,491
492,494,580,490,489
489,490,625,490,487
492,492,624,489,489
494,493,609,490,491
493,491,527,492,494
494,491,434,492,492
493,492,395,491,494
491,491,376,491,493
492,493,377,493,492
491,492,388,490,493
493,493,420,492,493
492,493,475,493,491
491,491,536,494,491
492,493,607,498,494
491,493,630,495,493
494,492,622,495,493
491,492,579,494,495
494,493,482,494,494
492,491,414,492,493
491,492,379,490,493
490,494,376,487,492
491,494,380,487,491
492,492,399,490,491
493,493,445,490,491
493,492,501,491,491
494,492,569,492,495
492,492,624,489,494
492,492,624,487,494
493,493,617,489,498
491,494,537,493,498
493,496,442,494,495
492,496,400,493,492
492,492,378,492,492
493,493,377,489,494
491,492,387,489,493
493,492,413,493,493
492,493,467,494,494
493,494,528,493,494
493,493,602,487,495
491,493,630,486,495
491,494,623,490,493
494,493,586,492,491
496,492,494,491,493
494,491,419,489,492
494,493,384,492,493
491,494,375,492,491
492,491,382,493,493
492,491,393,492,494
493,492,437,489,493
491,493,494,489,493
492,491,557,489,492
494,494,620,490,494
491,493,626,489,494
492,494,614,490,494
492,494,554,492,494
493,493,451,491,489
492,490,403,490,490
492,492,374,489,494
494,491,377,491,496
493,491,386,490,495
491,493,407,491,496
491,493,460,489,495
492,494,521,491,495
491,495,595,492,493
491,494,628,492,492
492,493,627,493,494
492,492,596,495,494
495,493,507,494,493
493,492,423,495,491
492,492,388,494,492
491,492,373,493,492
493,494,382,491,494
491,492,388,489,493
493,491,432,491,492
491,493,486,489,493
492,493,548,488,492
493,495,615,490,494
492,493,631,490,494
494,494,619,492,494
492,495,565,490,494
493,494,464,491,496
492,496,408,491,496
494,495,377,492,496
492,492,377,492,493
493,493,384,494,490
491,490,407,496,491
492,491,454,494,492
492,493,513,493,492
492,492,585,494,491
493,493,628,493,492
494,493,628,492,494
492,491,607,492,497
493,492,520,491,495
494,493,432,489,494
493,494,393,491,493
492,493,375,491,493
493,493,378,492,490
492,493,388,494,493
494,494,424,492,493
492,492,481,492,493
492,492,541,494,492
491,493,611,492,496
492,493,631,492,495
491,493,621,496,495
490,493,576,494,495
495,494,475,494,495
494,493,412,493,497
492,494,377,493,494
492,494,376,497,495
495,494,384,497,494
494,493,401,495,494
492,492,449,491,491
492,491,508,493,489
492,491,576,492,492
491,493,625,488,494
492,494,626,488,494
493,493,616,489,498
493,496,531,490,496
492,494,440,491,492
492,493,399,491,494
493,492,375,491,493
491,491,378,489,490
492,493,387,491,492
491,492,418,489,493
493,492,473,491,493
492,493,531,492,493
493,494,605,495,494
494,494,631,495,495
493,492,623,491,493
490,495,585,488,497
491,493,487,488,494
492,492,416,492,494
492,493,383,493,492
494,493,373,493,493
491,491,383,492,495
493,494,396,489,495
493,494,442,488,496
492,493,499,487,494
492,492,564,489,490
492,495,626,492,492
491,494,629,492,492
491,493,615,495,489
491,493,542,494,492
492,493,447,494,492
493,493,403,496,493
493,493,374,496,492
490,494,378,494,493
492,492,387,492,494
490,491,412,489,493
490,493,464,488,492
492,493,523,490,492
492,492,600,491,492
492,496,630,492,492
494,494,625,498,495
494,494,590,499,493
495,493,499,498,494
495,492,417,494,493
495,492,386,491,496
492,493,374,487,494
490,495,379,489,492
491,494,391,490,492
491,492,437,491,492
489,492,492,492,491
492,492,557,493,492
493,493,622,496,494
492,492,630,492,494
491,491,618,489,492
494,492,557,494,494
493,493,456,490,495
492,493,404,488,494
492,496,374,490,494
492,494,376,490,492
491,492,385,492,493
493,492,406,491,493
492,492,461,494,492
492,492,518,495,493
491,492,592,496,494
492,493,631,494,493
492,494,624,492,494
491,492,601,489,494
494,495,512,489,494
493,494,427,489,495
492,493,392,491,494
493,491,374,490,491
493,491,380,494,493
493,492,389,489,491
491,493,428,490,492
491,492,484,491,491
492,492,545,489,492
492,492,616,490,493
493,493,629,491,492
492,492,622,493,495
491,492,571,494,493
491,492,468,492,493
492,494,408,490,495
490,494,375,493,497
493,493,376,490,495
493,495,384,490,494
493,495,404,491,490
492,490,452,493,488
491,492,512,494,492
491,493,580,496,492
493,492,628,495,491
492,493,625,491,492
492,494,609,491,493
492,494,523,489,495
492,494,435,493,493
492,494,396,497,495
491,494,376,496,495
492,492,381,495,495
493,492,390,494,495
491,495,420,484,492
490,492,478,486,491
492,493,538,488,491
492,496,609,490,492
492,494,631,490,492
493,494,622,492,492
492,493,580,490,495
493,494,480,492,497
492,494,414,491,497
491,494,383,492,498
490,493,375,493,493
492,493,383,491,490
492,492,398,491,493
492,491,444,490,493
492,492,503,489,493
493,493,571,489,494
494,494,627,492,494
494,494,626,489,492
492,492,614,493,491
493,495,535,493,492
492,493,442,493,490
491,493,398,493,490
491,493,373,492,493
491,492,378,491,493
493,492,386,493,490
495,492,417,492,492
494,493,471,493,494
492,492,530,493,496
493,495,602,489,496
491,495,631,490,497
492,492,621,489,493
492,495,583,489,493
493,494,492,490,495
492,494,417,491,494
492,494,385,489,495
490,493,374,490,497
491,492,382,491,494
490,492,396,492,492
490,491,439,492,489
490,490,495,489,490
493,492,560,490,492
492,493,624,492,492
493,493,628,490,491
494,492,617,490,493
494,492,549,493,494
492,493,449,494,493
492,494,403,494,493
492,494,374,494,491
490,493,375,491,491
491,494,384,490,492
491,494,411,490,494
492,493,463,490,492
491,492,522,490,493
493,492,597,488,494
494,493,631,491,493
491,492,624,493,493
493,496,592,494,494
491,493,503,490,493
491,492,419,489,493
492,494,386,489,491
490,495,374,489,493
492,493,381,490,494
491,493,389,492,493
494,492,434,491,491
491,493,490,490,494
491,492,552,491,492
491,493,619,492,493
491,494,630,491,495
492,495,618,490,492
491,492,563,493,493
493,493,460,492,495
495,493,407,492,495
494,492,377,490,494
494,494,374,490,495
492,493,385,490,493
493,492,405,491,490
492,493,456,490,492
494,493,514,490,492
492,491,588,492,494
494,494,629,490,492
492,494,624,491,495
490,492,604,492,493
492,493,517,491,493
492,493,429,491,493
491,493,393,491,494
494,493,374,491,492
490,492,380,492,494
492,493,389,490,493
492,494,427,491,491
491,493,482,491,491
491,493,541,489,493
492,493,612,491,494
493,493,629,491,492
491,494,619,490,491
491,494,572,490,491
493,492,473,491,493
493,494,410,490,493
492,493,379,490,494
493,492,376,491,495
492,493,385,491,494
493,492,405,490,493
494,493,450,491,493
493,493,508,490,492
491,494,576,490,492
493,495,626,490,494
493,494,628,491,494
492,493,612,490,492
490,494,527,490,492
492,494,437,491,490
492,493,396,492,490
493,493,376,491,489
494,494,379,491,488
494,492,389,491,492
494,495,419,489,491
493,493,476,491,494
493,493,535,490,496
494,493,610,491,497
489,493,632,490,497
492,494,622,492,496
491,495,582,491,497
492,494,483,492,495
492,493,414,491,494
492,495,382,490,492
491,493,375,492,494
494,492,384,491,494
494,494,400,492,497
494,491,444,491,497
495,492,501,492,496
497,493,567,493,494
496,493,625,494,495
493,495,627,492,494
492,495,616,491,496
494,496,541,491,495
492,497,446,491,495
490,495,402,491,495
490,495,376,491,495
491,493,378,489,494
490,493,385,490,490
489,493,411,490,486
489,493,468,491,489
487,492,526,491,491
489,494,602,492,491
490,494,632,492,492
489,492,623,492,491
488,493,590,492,492
491,493,496,491,491
491,493,417,492,491
494,493,388,491,490
492,494,373,490,490
494,493,381,490,490
494,493,394,489,491
496,493,437,491,493
491,492,494,490,495
491,494,557,488,493
490,493,621,493,494
492,494,628,494,491
493,495,617,493,489
493,492,555,491,491
493,494,454,488,491
492,493,404,492,492
493,492,376,494,495
493,492,378,496,496
491,493,385,489,495
494,492,409,491,494
495,494,462,488,494
492,493,518,487,491
493,494,592,489,489
495,494,630,492,492
493,494,625,495,494
491,493,596,493,490
487,493,509,493,493
491,493,424,496,494
492,493,391,505,493
492,492,376,499,490
491,492,381,489,491
493,495,389,488,492
489,493,431,488,490
490,494,486,494,490
492,493,550,492,491
493,493,615,490,483
496,493,630,491,485
495,495,621,491,485
489,494,565,499,486
491,493,464,491,488
491,494,408,495,487
492,493,378,500,492
494,493,376,491,491
492,492,385,484,498
494,491,407,489,499
492,492,455,489,496
491,493,512,490,496
491,493,584,492,498
495,494,630,491,495
488,495,626,489,494
491,493,607,488,496
494,492,521,490,496
493,490,432,491,496
491,490,393,491,495
490,493,373,490,495
488,490,378,492,496
488,491,386,490,494
490,495,423,489,495
495,494,480,489,492
493,493,541,491,488
492,495,613,490,488
495,494,631,492,488
496,493,622,494,488
490,496,575,493,489
489,494,477,496,492
493,494,413,493,493
490,494,377,488,492
490,494,373,488,492
492,494,384,490,494
490,492,401,489,491
491,493,447,489,488
490,492,507,489,492
492,491,575,492,494
494,493,626,489,491
493,495,626,489,493
492,492,616,490,493
493,496,534,494,494
493,496,439,492,492
493,493,398,490,493
495,494,376,490,493
496,495,378,490,492
495,493,389,491,492
496,494,418,491,490
490,493,473,490,491
490,492,530,489,489
491,495,605,492,493
489,493,631,490,491
492,494,622,490,490
494,493,586,491,494
492,492,489,491,493
492,493,417,491,492
493,495,383,490,492
491,493,373,490,492
493,492,381,490,490
493,494,395,489,491
493,494,441,490,490
493,493,499,490,490
489,492,563,491,491
494,493,625,491,492
493,494,629,492,492
490,493,616,493,493
489,493,545,491,493
490,494,450,490,493
490,493,400,491,492
491,492,377,492,492
493,493,378,491,492
492,492,386,491,492
493,491,413,490,488
491,494,463,490,490
491,492,522,489,491
492,493,599,491,491
491,495,629,490,490
492,494,623,489,489
494,494,593,494,491
493,495,500,493,491
494,494,420,492,490
492,494,388,491,491
493,491,376,492,490
489,492,380,492,491
489,493,391,489,492
491,492,433,490,491
490,493,491,490,491
491,493,555,490,490
492,494,619,491,493
494,493,630,491,492
493,494,618,490,494
491,492,560,491,492
492,494,459,491,492
490,492,406,491,492
490,494,374,492,491
491,494,378,491,493
490,494,384,489,493
491,492,408,492,494
492,493,460,490,493
490,492,517,490,493
492,492,591,491,492
497,494,630,492,490
493,493,625,491,489
497,494,600,491,487
491,494,513,491,490
493,493,426,491,490
491,494,392,490,492
486,492,375,491,493
491,492,382,490,491
492,494,391,491,491
488,492,429,490,490
487,492,483,489,490
488,493,547,490,490
491,494,614,489,490
492,493,631,491,491
493,494,622,491,492
496,494,571,492,495
494,494,469,491,493
492,494,409,491,491
489,493,375,490,490
492,494,374,491,490
492,493,384,490,491
491,493,401,489,490
492,492,453,489,490
491,493,511,489,492
491,493,579,490,494
494,494,630,491,492
490,493,628,492,490
490,492,611,493,491
492,493,527,491,492
494,493,434,492,492
492,492,396,491,490
490,495,374,490,491
490,494,379,490,492
493,493,389,489,489
490,493,420,489,491
491,491,475,489,492
491,492,538,491,491
490,492,610,493,491
492,493,629,491,490
492,492,623,492,490
492,496,578,490,490
493,493,481,490,493
492,494,414,491,492
496,493,383,490,491
500,492,376,490,491
491,495,384,492,491
489,493,399,489,492
489,493,445,490,490
486,493,504,489,490
490,494,569,488,491
492,496,626,490,491
491,494,628,492,493
492,492,613,492,491
492,493,539,491,492
492,493,444,490,492
490,493,399,492,492
491,494,376,489,493
491,494,377,490,494
489,492,387,489,491
492,494,416,489,492
492,493,470,490,491
492,492,528,490,489
490,494,606,491,492
490,495,631,491,492
492,494,623,491,490
491,494,586,491,491
491,494,493,491,492
492,493,419,491,491
493,494,385,492,492
490,493,375,490,493
490,493,383,490,493
490,492,396,492,493
490,492,439,489,492
492,493,496,490,491
492,493,559,491,493
493,494,623,490,490
493,495,630,489,492
495,493,619,490,494
495,493,551,491,493
491,493,452,491,492
492,493,402,489,492
491,492,377,492,490
490,493,376,491,489
490,493,385,490,491
492,492,412,490,490
491,494,463,491,492
490,492,520,489,491
492,494,597,489,492
494,493,632,491,493
491,493,622,489,492
492,493,596,492,493
493,494,505,490,493
490,494,421,490,491
490,494,389,490,491
490,495,375,490,492
490,493,381,491,491
490,494,394,489,492
496,494,432,490,491
495,492,491,489,491
494,492,553,492,491
494,494,619,492,492
493,493,632,491,491
492,495,619,492,494
488,492,562,489,492
492,494,463,490,492
491,494,408,491,493
491,493,374,491,491
491,493,378,491,493
492,494,385,490,492
491,493,406,491,491
490,494,457,490,491
490,493,514,490,492
490,492,588,488,489
492,495,630,492,492
490,493,628,491,494
491,493,607,491,494
491,494,520,491,492
492,494,430,491,491
494,494,394,490,493
491,493,376,491,494
491,492,379,489,491
492,495,391,488,489
493,494,427,490,493
492,493,482,489,491
491,493,546,490,492
491,495,612,490,491
491,494,631,491,491
491,495,622,491,491
491,494,573,491,494
492,493,475,490,492
492,494,414,491,492
491,493,378,489,492
494,494,378,490,493
491,493,386,491,493
491,495,401,488,491
491,493,451,491,491
491,493,508,490,491
491,494,576,489,491
491,495,628,490,492
493,495,628,490,493
493,494,612,492,492
491,494,532,491,493
491,493,438,491,493
492,494,398,492,493
490,493,377,492,492
491,494,378,491,493
493,493,389,490,488
492,495,421,491,491
492,494,474,489,492
491,494,534,490,492
492,494,609,491,494
492,494,630,490,492
491,493,623,492,493
493,495,581,492,492
492,494,484,491,492
492,494,416,490,492
492,495,382,491,493
491,493,375,489,491
493,493,383,490,491
492,492,399,490,494
492,493,444,490,492
491,494,502,490,492
490,493,566,492,492
494,494,625,491,491
492,495,629,492,493
491,495,616,489,492
494,496,543,490,493
493,494,447,490,492
492,493,400,490,492
493,493,378,491,491
492,495,378,492,492
490,493,387,491,491
490,494,413,491,491
489,493,468,490,492
492,493,526,489,491
492,494,603,493,493
493,493,632,490,493
493,493,625,491,493
492,493,591,492,494
493,494,497,490,493
492,494,420,490,492
493,494,385,491,492
491,495,374,489,492
493,495,382,490,491
491,494,395,489,492
492,493,436,490,491
492,494,496,489,491
491,494,557,491,493
491,493,623,492,492
491,494,629,491,492
490,495,617,491,495
492,493,553,489,492
494,493,457,491,493
493,494,404,490,493
494,494,377,489,493
493,493,379,491,493
492,494,385,490,493
491,493,410,489,492
492,494,461,491,492
491,493,518,489,491
491,495,592,489,490
491,496,630,492,493
491,494,626,490,494
491,495,598,492,494
493,493,510,491,493
492,493,426,491,494
492,493,393,492,493
491,492,376,490,493
493,493,379,490,491
492,493,393,492,494
492,494,430,489,492
492,494,487,490,491
492,494,550,490,492
491,494,615,491,494
492,493,631,490,492
493,494,620,491,493
491,494,567,492,492
492,494,467,491,492
491,494,411,491,494
491,496,376,489,492
491,493,377,491,493
492,493,386,490,494
492,493,407,491,493
491,493,456,490,491
490,493,511,491,491
490,493,585,490,493
493,495,628,491,492
493,495,625,490,493
494,495,608,490,493
494,495,524,491,493
492,493,433,491,493
493,493,397,490,491
491,495,377,492,493
491,493,379,491,492
491,493,389,491,491
490,494,425,490,493
492,494,479,490,492
491,494,541,492,493
493,494,612,491,494
494,494,632,491,494
492,493,622,492,493
492,496,575,492,493
492,494,477,490,493
493,493,412,491,492
491,494,378,491,492
491,495,374,489,492
492,493,385,491,492
491,493,401,489,491
489,494,448,490,492
492,492,506,490,492
491,492,573,491,493
491,494,626,492,493
492,494,629,491,494
492,495,612,490,491
492,493,536,492,492
492,494,439,490,492
494,494,399,491,494
494,493,377,490,492
491,494,377,491,493
491,493,388,489,492
493,492,417,490,492
490,493,470,490,491
491,493,531,489,491
491,493,607,492,494
493,494,630,491,492
491,494,622,493,494
493,493,584,493,494
494,493,489,492,493
493,493,417,490,492
491,494,383,492,494
491,495,375,488,493
490,494,381,490,492
491,492,394,491,491
491,494,440,491,492
491,493,499,490,492
491,492,563,487,492
492,495,625,491,493
490,493,630,492,494
491,492,618,491,495
493,493,549,491,494
493,494,449,490,492
491,492,401,491,493
492,494,376,491,491
492,494,376,489,491
492,494,385,489,492
492,495,411,491,492
491,492,465,490,492
492,492,523,490,491
491,492,601,492,494
492,493,631,492,493
491,493,625,491,492
493,495,594,490,492
491,494,500,490,493
493,494,421,490,493
492,494,387,489,492
492,495,374,489,493
493,494,382,489,493
492,493,391,490,491
493,492,435,490,492
491,493,492,490,493
491,492,554,491,493
491,492,620,492,493
492,494,629,491,494
493,492,617,489,492
493,492,562,492,493
492,494,458,491,492
492,494,405,490,493
494,494,376,490,493
491,494,375,490,493
492,492,385,489,492
493,495,409,492,492
491,492,458,491,493
491,492,515,490,491
491,494,591,490,494
494,495,628,490,493
491,493,626,492,493
493,494,603,490,493
494,493,514,491,494
493,493,427,490,493
492,493,394,490,491
491,495,377,491,494
491,495,381,489,493
490,494,390,492,492
490,494,427,490,491
492,493,484,489,491
491,492,547,491,491
492,494,613,492,493
492,494,633,491,494
493,493,622,492,494
494,493,572,491,494
493,494,470,491,493
493,493,410,492,494
494,495,378,489,493
492,494,375,491,492
492,494,382,489,492
492,495,402,489,493
491,493,453,490,492
492,493,511,490,492
492,493,582,490,494
494,494,628,491,493
492,493,627,491,494
491,493,611,493,493
494,495,527,491,494
492,493,433,490,493
493,494,395,491,492
492,493,375,491,492
492,494,378,490,492
493,494,390,492,493
490,494,422,490,493
491,493,477,491,492
492,493,538,490,493
492,492,609,491,494
492,493,631,492,493
493,494,623,491,492
490,494,580,490,494
493,494,481,491,492
491,493,414,491,493
492,495,379,490,492
491,494,376,492,492
495,493,383,491,492
492,495,397,491,494
491,492,447,491,493
491,493,502,491,493
491,492,569,492,494
491,493,626,491,493
492,494,625,491,492
491,492,616,491,491
492,495,537,491,493
492,493,441,491,493
493,494,399,491,493
491,493,376,490,493
493,492,376,491,491
492,492,388,491,494
492,492,415,492,493
491,493,469,490,492
492,494,527,490,491
490,492,603,493,493
493,494,631,491,492
492,494,622,491,492
491,493,585,491,492
492,494,493,491,493
493,494,418,492,492
492,492,386,492,495
492,495,374,489,492
491,495,382,490,492
492,494,392,490,491
492,494,438,490,492
491,493,497,490,491
491,495,561,492,494
491,495,621,491,493
492,493,629,490,493
494,494,617,490,492
494,493,553,493,493
492,494,451,492,493
492,493,403,491,493
492,493,376,490,493
492,491,377,492,493
492,492,386,490,491
490,494,411,492,493
491,494,461,491,491
492,492,520,491,492
489,494,595,493,491
490,493,628,491,491
492,492,625,491,491
491,493,593,491,494
494,493,505,491,492
492,494,423,491,492
490,493,388,491,492
490,493,374,490,491
491,492,383,491,493
491,493,389,491,494
492,492,434,490,492
491,493,488,490,492
491,493,550,490,492
492,496,616,492,492
491,493,630,490,493
493,493,618,492,495
492,496,564,490,493
492,494,463,491,493
491,494,407,490,492
491,493,379,493,492
492,493,377,490,492
491,494,386,490,493
492,493,407,491,493
491,492,455,490,493
491,493,512,490,492
491,492,588,492,492
492,492,628,491,491
492,495,625,490,491
492,495,605,491,491
492,494,519,491,493
493,494,431,492,493
492,493,394,491,493
494,493,375,490,491
493,491,382,492,493
492,492,390,491,495
491,492,426,490,493
491,494,480,491,494
491,492,542,490,492
493,496,615,491,492
490,493,631,491,492
489,493,620,492,493
491,493,575,490,494
493,493,475,491,493
493,492,412,490,492
492,495,378,490,491
491,493,376,490,493
493,493,384,490,492
491,494,401,490,493
492,492,449,490,493
491,493,509,491,493
490,493,577,492,493
491,493,627,492,492
492,494,625,491,492
492,493,615,492,492
492,495,529,491,494
492,493,437,490,492
492,493,398,490,493
493,494,375,491,494
494,492,378,490,492
492,492,390,492,494
492,495,418,489,492
491,493,475,490,492
490,493,533,490,491
490,494,605,490,495
492,494,634,490,493
493,494,622,492,492
491,494,584,491,495
493,493,487,491,493
492,493,416,491,494
492,494,382,489,492
490,493,375,492,494
493,492,383,490,492
493,495,397,489,492
492,495,443,490,492
491,493,501,490,492
493,493,566,490,492
491,493,627,492,494
493,494,628,490,493
491,494,617,493,494
491,494,543,492,494
493,493,447,491,494
493,493,403,490,492
492,495,377,492,494
491,494,378,490,493
493,493,388,490,494
493,492,414,491,494
492,494,465,490,492
491,493,525,491,493
492,494,600,492,494
493,494,630,491,492
493,495,623,491,492
493,495,588,492,494
492,493,498,491,493
492,493,420,492,494
493,493,387,490,494
494,493,376,491,494
491,492,382,492,494
491,492,392,492,492
493,494,436,491,493
491,493,492,490,493
492,494,555,491,492
491,495,619,490,493
492,494,627,490,493
493,493,618,492,495
492,495,554,490,494
491,493,456,491,492
492,494,405,490,493
492,494,375,490,492
492,493,377,491,492
491,493,387,490,493
493,493,407,490,492
490,493,462,489,493
491,493,519,490,493
490,491,595,492,495
492,494,629,490,492
490,494,623,490,494
492,493,597,491,492
490,494,510,490,492
491,494,425,491,492
492,494,391,490,493
492,492,376,492,492
493,493,382,490,492
492,493,389,490,494
492,491,432,490,493
491,492,486,491,493
491,493,547,489,492
493,494,615,492,493
492,494,631,491,495
492,495,618,489,492
493,496,568,490,493
492,494,467,491,494
491,493,409,491,494
492,494,379,491,492
492,494,376,492,494
490,493,385,492,493
490,493,405,493,492
491,493,454,490,493
492,493,511,490,492
490,492,584,492,493
494,495,629,490,494
493,493,628,491,495
491,493,610,492,495
491,492,523,490,493
492,493,433,491,494
491,493,395,491,495
492,493,374,491,492
495,495,379,490,494
494,495,390,490,493
491,493,423,492,493
491,494,479,491,493
491,493,540,490,494
491,492,611,491,493
491,493,632,493,493
491,493,621,489,494
494,494,575,492,493
492,493,479,491,494
493,494,412,491,493
493,495,380,491,493
492,494,376,491,493
491,493,384,490,493
493,494,402,493,493
490,493,447,490,493
493,494,505,490,493
492,493,574,491,495
493,493,627,493,495
494,495,627,491,493
491,495,614,491,496
494,494,533,492,494
492,494,442,491,493
491,494,399,491,493
492,495,376,493,493
492,493,380,491,494
491,495,386,491,496
492,492,418,492,493
492,493,472,491,493
491,492,530,491,493
493,492,605,491,493
493,496,632,493,493
490,495,623,491,495
495,495,584,490,495
494,494,492,491,494
492,493,416,492,494
493,494,385,493,493
493,495,375,493,493
492,494,381,492,494
492,494,394,491,492
492,495,440,490,492
491,493,498,491,494
492,494,563,489,493
491,493,624,492,496
493,493,630,492,495
493,493,619,493,495
492,493,550,493,494
493,494,450,491,494
493,494,404,492,495
493,495,373,490,493
492,495,377,490,493
493,494,387,490,494
493,493,410,492,493
493,493,466,490,492
491,494,523,492,494
491,493,599,492,494
492,496,631,492,494
492,495,624,493,495
493,493,591,491,493
494,494,503,492,495
493,494,421,491,493
494,493,389,491,494
495,494,376,491,494
493,493,383,492,493
492,494,390,492,493
490,493,434,490,492
491,493,490,491,493
491,494,552,490,491
492,495,619,491,493
492,493,630,492,493
494,494,620,491,492
491,494,559,492,495
493,493,460,492,494
492,493,407,492,494
492,493,379,490,493
493,493,374,491,492
491,493,387,491,494
491,495,406,490,493
494,493,458,491,493
492,494,516,490,493
491,493,588,491,494
494,493,631,491,492
494,494,627,492,492
491,493,603,493,493
492,494,515,491,493
492,494,430,491,492
491,493,394,493,495
493,495,375,490,493
491,494,380,491,494
492,492,391,491,495
492,492,429,491,494
491,493,484,491,492
491,493,544,491,492
491,494,615,491,494
493,494,629,491,493
493,494,619,490,493
494,496,571,490,493
491,493,471,492,494
493,493,410,491,493
492,495,379,492,496
492,492,376,492,494
491,493,383,492,492
491,493,405,490,494
492,493,450,491,493
492,493,511,491,492
492,494,579,490,493
493,495,627,491,494
493,493,628,491,494
493,493,613,491,493
492,495,527,492,494
493,494,435,491,493
492,493,395,492,493
491,493,374,491,492
492,495,378,489,492
490,493,389,493,493
494,494,421,492,492
491,493,477,491,493
491,493,537,491,494
492,493,610,492,495
491,494,631,491,494
493,494,621,491,492
494,493,582,492,493
492,494,481,492,493
493,494,413,490,493
493,494,381,490,493
490,494,374,492,495
491,492,381,489,493
492,493,401,492,494
490,492,445,491,493
491,493,501,491,492
491,494,567,490,491
492,493,627,493,494
493,495,628,492,493
491,494,617,490,495
494,494,540,491,494
493,493,444,491,494
493,492,400,490,493
492,493,376,493,493
494,493,379,491,492
491,494,385,490,492
491,495,411,489,492
492,494,468,490,493
491,493,528,490,493
493,492,601,491,491
493,493,633,493,495
491,493,623,493,494
491,492,587,493,494
493,494,495,491,493
492,493,417,491,494
492,493,386,490,492
492,495,374,489,494
493,494,382,491,494
493,493,394,490,494
492,492,437,490,492
491,492,495,490,494
492,494,559,489,492
488,493,621,492,493
492,494,627,491,493
493,495,617,490,495
492,492,554,491,493
492,494,453,491,493
491,494,404,491,494
493,492,377,491,495
492,492,376,492,494
491,495,386,490,493
490,492,409,492,494
492,493,462,491,492
491,493,520,490,492
491,494,594,490,493
493,494,630,492,492
491,494,627,491,494
492,494,594,491,492
492,493,508,492,493
491,493,424,492,494
491,492,390,492,493
491,492,374,491,494
492,492,382,490,492
492,494,392,492,494
491,494,433,490,493
492,494,488,491,492
492,492,550,491,494
492,495,616,492,493
491,493,630,493,494
494,494,620,491,493
491,494,564,492,493
492,493,464,490,494
491,493,407,491,494
492,493,375,489,492
493,493,375,491,492
493,493,387,492,494
491,492,408,493,494
492,492,455,494,493
492,493,513,495,492
490,493,585,493,494
493,493,628,492,493
493,495,626,491,493
493,493,605,490,494
494,494,519,489,494
493,493,432,490,494
492,492,394,491,493
492,495,374,491,494
491,493,380,491,493
491,493,388,491,492
490,493,424,490,494
491,493,482,491,493
491,492,542,491,493
493,494,614,490,494
493,493,631,492,494
492,491,621,491,495
493,496,574,490,493
491,493,474,490,494
493,494,412,491,492
492,494,378,491,492
490,494,374,490,493
493,495,384,491,493
491,494,402,489,493
490,492,448,490,493
492,493,508,489,493
491,493,577,491,494
491,492,626,492,494
491,493,625,491,494
493,493,612,492,493
492,492,532,491,494
492,494,438,491,492
492,493,398,490,494
494,495,375,491,494
492,494,377,490,494
491,492,389,489,492
492,494,419,491,492
490,492,475,491,492
489,492,531,490,491
490,493,607,491,495
493,494,631,490,493
490,493,620,491,494
494,494,583,490,494
493,492,486,491,494
491,492,415,490,492
492,494,382,492,494
490,493,375,490,494
492,493,380,490,492
492,494,395,489,491
491,494,442,490,492
491,493,500,489,493
491,492,564,491,493
492,492,625,491,493
493,494,629,492,493
490,493,616,493,493
490,493,542,492,493
492,492,447,490,494
492,493,401,490,493
491,491,377,491,493
493,494,378,490,493
492,493,387,490,494
492,491,413,490,492
490,493,464,490,492
491,492,524,489,492
493,493,599,492,492
492,495,629,490,492
492,494,623,490,493
492,492,591,493,494
493,493,499,490,493
492,492,419,489,494
493,493,387,491,494
492,491,375,492,493
490,492,380,491,492
490,492,393,489,494
493,493,435,490,492
491,492,492,490,492
491,494,556,489,492
492,494,620,491,494
493,493,629,492,492
492,494,616,492,495
492,492,554,491,494
492,493,456,492,493
491,492,404,492,492
491,494,374,492,492
491,491,377,491,493
491,494,386,489,493
489,492,407,489,493
492,492,461,490,492
491,493,518,491,493
491,492,592,490,493
494,494,630,491,492
491,492,626,491,494
492,494,597,490,492
492,495,510,491,493
491,492,426,491,492
491,493,391,490,493
490,493,375,490,494
491,492,379,490,492
491,492,391,492,494
490,492,430,491,492
491,492,486,490,492
491,492,547,489,493
490,494,614,491,494
491,493,630,489,494
492,493,620,491,493
493,493,569,491,494
491,493,467,491,493
491,493,409,492,494
490,494,375,489,492
493,493,373,490,492
493,494,383,490,492
491,494,403,489,492
491,492,453,490,492
492,493,511,491,492
490,493,583,490,494
493,493,629,491,493
491,492,626,492,493
490,493,610,493,494
491,493,523,491,493
491,493,433,491,493
491,492,395,490,493
493,495,374,490,493
492,494,380,490,494
492,492,389,490,492
490,494,424,491,493
491,493,478,490,492
491,492,539,491,492
490,492,610,493,492
492,494,630,492,493
491,492,622,492,492
492,495,577,494,493
491,492,477,491,493
492,493,413,492,493
492,492,381,492,495
492,492,374,490,493
492,492,382,493,492
492,492,401,490,491
490,493,445,490,492
491,492,504,491,492
491,493,571,491,492
493,494,626,493,493
491,494,629,492,494
491,494,613,491,492
491,492,535,493,494
492,493,442,492,494
491,493,399,492,492
493,492,375,490,491
491,494,378,492,492
490,492,386,490,493
493,493,416,490,493
491,493,471,491,491
494,492,528,490,492
491,492,605,493,494
492,494,631,491,493
491,494,621,491,492
491,495,583,492,492
491,494,491,492,494
491,492,417,491,493
493,493,384,492,492
490,491,375,492,494
491,492,383,492,493
491,491,396,492,493
490,492,440,491,493
491,493,496,490,492
492,493,560,491,493
492,492,620,490,494
494,494,628,490,493
493,493,618,491,494
493,493,544,491,493
491,493,449,491,494
491,494,402,490,494
491,492,375,492,493
490,493,376,491,492
490,493,385,490,495
493,491,412,489,492
492,493,466,491,492
490,494,521,490,492
492,492,598,490,495
493,493,631,492,494
491,494,623,490,493
491,492,593,492,494
494,493,503,492,493
491,493,419,492,493
491,494,386,490,492
491,495,374,489,493
493,493,380,491,493
491,492,393,489,494
490,493,432,490,493
492,492,491,490,493
491,492,553,491,492
489,492,618,492,494
493,493,630,490,493
492,494,620,492,495
491,495,558,490,493
493,493,458,490,493
492,492,407,491,494
493,493,374,491,492
492,492,376,491,492
492,493,385,492,493
490,492,406,492,492
491,493,457,490,492
491,493,515,490,493
491,491,586,489,492
492,494,629,491,492
493,492,627,491,495
492,492,603,491,495
493,492,516,491,494
492,493,428,492,492
493,492,391,492,493
490,492,375,491,494
491,494,377,490,492
492,494,388,489,492
491,494,427,489,492
491,492,483,490,492
492,492,545,489,491
490,494,612,491,494
491,493,630,492,493
491,493,619,491,492
490,493,572,490,494
491,492,469,491,493
491,493,412,491,494
493,494,376,490,492
493,493,376,490,494
493,492,384,490,494
490,493,401,489,494
490,492,451,490,492
491,493,509,491,492
490,492,577,491,492
491,494,626,491,492
492,494,626,489,493
492,493,612,493,494
494,495,527,490,492
491,493,436,491,493
492,492,396,491,494
491,492,377,492,493
491,493,379,490,494
493,493,386,492,492
491,492,422,490,493
491,493,474,490,493
491,493,535,490,492
493,494,608,489,493
491,495,630,492,495
492,492,623,490,492
492,495,582,493,494
491,493,482,492,493
492,492,414,491,493
492,493,383,491,494
493,493,372,489,492
491,492,384,491,493
492,493,398,489,493
492,492,444,490,492
492,493,502,489,493
491,492,569,490,492
490,495,625,492,494
491,494,628,491,494
491,494,613,492,492
491,494,537,490,493
491,493,445,490,492
492,492,401,491,493
493,494,374,492,492
491,493,379,491,494
491,491,387,491,494
491,491,415,491,493
491,493,468,491,493
492,492,526,490,492
492,492,604,490,491
492,495,630,491,494
493,494,623,490,494
494,495,588,489,493
491,494,494,491,494
492,492,416,490,492
492,492,386,492,494
490,491,374,492,492
491,493,380,491,492
491,494,392,490,490
490,492,439,491,492
491,492,495,490,492
490,493,560,490,493
493,493,622,491,494
492,492,629,492,494
491,492,616,490,492
493,492,551,491,493
493,493,453,490,493
490,493,402,491,492
491,494,374,490,493
492,494,377,490,492
490,493,385,491,493
493,492,408,490,491
491,492,464,490,492
491,492,520,491,493
490,492,594,492,493
491,494,631,492,494
492,494,623,490,494
491,492,598,490,492
493,494,506,491,492
491,493,422,490,493
493,493,390,491,495
493,492,374,490,492
491,492,381,491,493
493,494,392,489,492
490,493,431,491,492
491,493,488,490,492
491,494,549,488,493
490,492,618,490,494
493,494,629,491,492
492,492,622,492,495
492,492,566,492,495
492,493,464,491,493
491,493,407,491,493
491,493,374,492,495
492,492,377,489,492
492,495,385,490,492
492,494,405,489,493
493,492,455,491,492
491,493,514,490,493
491,494,584,489,491
491,493,629,493,493
490,493,625,492,492
491,494,606,491,492
492,495,519,490,494
492,493,432,490,493
492,493,394,492,493
491,494,376,491,494
492,491,381,491,494
491,491,389,491,494
491,494,424,490,492
491,492,480,490,493
492,492,542,490,491
491,494,611,490,493
493,494,630,490,494
493,493,621,492,492
490,493,576,491,495
493,493,473,491,493
492,492,413,491,493
491,492,379,493,494
490,492,374,491,492
493,492,385,491,492
491,494,399,491,494
491,492,448,490,492
491,492,507,490,493
491,492,575,490,493
493,493,627,492,494
491,495,626,490,493
490,492,612,493,493
494,493,530,492,493
491,493,437,492,493
491,493,396,492,493
492,494,374,492,494
490,493,379,491,494
492,493,386,491,491
493,492,420,492,492
491,492,473,491,493
490,492,532,491,493
491,494,606,490,492
491,494,630,493,494
491,492,621,491,493
491,496,581,491,493
492,493,486,491,494
492,493,415,492,492
492,492,384,492,495
490,493,373,490,493
490,492,382,492,492
491,492,397,492,492
490,493,441,491,493
491,493,500,491,493
490,492,564,490,492
492,493,624,492,493
493,492,630,492,494
491,491,616,492,495
492,492,544,493,494
492,493,447,491,493
491,493,399,491,494
492,492,373,490,492
492,494,377,490,493
492,493,385,491,493
493,493,411,491,491
490,492,466,490,492
491,493,523,490,493
491,491,601,492,493
491,494,630,492,493
491,494,622,491,495
492,492,592,491,492
492,494,498,492,494
492,493,419,490,493
493,493,388,491,494
493,493,375,491,494
491,491,381,491,494
492,494,393,489,493
490,492,434,490,492
493,493,494,490,492
491,493,555,490,492
492,494,619,491,494
493,493,628,491,492
491,492,620,492,495
492,494,553,491,494
492,493,457,491,493
492,492,406,491,493
491,492,375,493,493
493,492,378,490,492
491,493,385,491,494
491,494,407,489,492
492,493,460,490,492
490,493,516,490,493
491,493,590,490,492
492,493,632,493,494
492,493,624,492,492
491,494,599,492,492
491,494,511,491,493
491,492,425,491,493
492,493,392,491,493
491,495,376,491,494
491,493,378,491,494
492,492,392,491,494
490,491,430,491,493
491,492,485,490,492
493,493,547,491,491
490,494,616,491,495
492,494,630,490,493
493,494,621,491,494
493,494,569,491,495
492,493,466,491,493
492,492,409,491,493
493,495,374,493,494
491,492,374,491,492
491,493,383,491,492
490,493,402,491,494
491,492,453,490,492
491,492,512,491,492
492,492,583,489,493
492,493,629,492,494
491,492,626,492,494
491,492,609,493,493
494,494,523,492,493
492,493,432,490,494
492,493,393,491,493
492,495,374,490,493
492,494,379,491,493
492,493,387,491,492
492,492,425,491,492
491,493,477,490,492
491,493,539,491,492
490,492,611,493,493
491,493,629,491,494
492,492,621,489,493
492,492,578,493,494
493,494,477,490,493
492,493,412,490,493
493,492,381,490,494
491,493,372,489,494
490,492,383,490,493
491,492,399,491,492
491,493,446,491,492
491,493,504,491,492
491,493,569,490,492
492,491,626,492,494
493,493,629,491,492
491,494,612,491,495
493,492,536,491,494
492,492,442,491,494
491,493,397,490,493
493,493,375,492,492
491,491,379,491,494
492,494,386,490,491
492,495,416,490,493
491,493,470,491,492
490,492,528,490,493
491,492,606,491,493
492,494,630,492,493
491,493,622,491,492
490,493,584,492,492
491,493,490,491,493
492,493,417,490,493
490,493,385,493,493
494,493,374,490,494
494,492,383,491,492
491,492,396,492,494
489,491,439,490,492
491,493,498,491,492
490,492,561,490,493
490,493,621,490,492
493,495,627,490,493
492,494,616,490,493
491,492,547,492,494
492,493,449,491,493
491,493,402,491,495
492,492,376,491,494
490,493,377,492,492
490,492,386,490,494
492,494,408,490,491
491,492,465,491,493
491,493,521,490,493
492,494,597,490,494
493,493,631,491,493
491,494,622,492,494
491,492,591,490,493
493,492,502,491,494
491,492,421,491,493
491,494,388,491,492
491,494,374,490,493
491,492,381,492,493
493,493,393,492,492
489,493,434,490,493
492,493,490,490,493
491,492,554,492,493
490,492,617,491,494
494,494,629,492,492
492,492,619,492,492
492,495,558,490,493
493,494,460,491,493
492,493,406,491,492
491,493,375,490,493
493,492,375,490,492
492,492,385,492,493
491,491,408,492,492
491,493,457,491,492
491,492,515,491,494
492,493,587,490,494
492,493,630,490,494
493,492,626,491,494
493,492,604,491,494
493,492,516,492,494
492,492,427,491,493
492,492,392,492,493
493,493,375,491,492
492,493,377,490,492
492,493,389,490,491
492,493,427,490,493
491,492,483,490,492
492,492,545,491,491
490,491,615,492,494
492,493,630,493,493
491,493,621,493,493
491,493,571,492,494
491,493,470,492,493
493,492,411,491,493
493,494,376,491,492
493,493,376,491,493
494,492,385,491,492
491,493,404,491,494
491,493,450,491,492
490,492,508,492,493
491,493,577,491,492
491,493,626,491,493
493,494,626,491,493
491,492,611,490,493
494,494,527,492,494
493,493,434,491,494
493,492,397,491,495
492,492,377,492,494
490,492,379,490,494
491,493,387,491,494
492,492,422,490,492
491,493,474,490,493
491,493,535,490,492
492,493,608,492,493
492,494,631,492,494
492,494,621,490,493
490,492,579,493,494
491,493,481,491,493
492,492,414,491,493
493,491,382,491,492
491,493,373,492,493
491,492,383,490,494
492,492,397,489,494
492,492,443,490,493
492,493,502,490,493
491,493,565,489,492
491,492,624,491,494
493,493,629,490,493
493,494,612,490,492
493,496,538,490,494
492,493,444,491,493
492,492,399,490,495
494,493,374,491,492
491,492,378,491,494
491,492,386,491,493
491,492,414,492,492
492,492,468,490,492
491,493,526,491,493
491,492,601,490,493
493,493,630,491,494
493,492,623,491,494
492,493,585,491,493
492,492,494,491,495
492,493,417,490,494
491,492,384,492,493
491,492,373,491,492
492,494,380,490,492
492,493,393,492,493
491,491,438,490,492
492,493,496,491,492
491,491,560,490,494
491,491,621,492,494
492,494,629,492,493
492,493,617,491,493
491,494,549,491,494
492,493,451,491,493
491,494,401,491,494
493,494,375,489,493
492,492,376,490,492
490,491,385,491,493
491,494,408,489,493
490,492,462,491,493
492,491,518,490,492
491,493,593,490,495
492,493,630,490,494
493,493,624,491,493
491,493,596,491,494
493,492,506,491,494
492,492,423,490,494
492,492,391,492,494
492,494,374,491,493
492,494,378,490,494
492,492,389,490,492
491,494,430,490,493
492,494,487,490,492
492,493,550,491,492
490,492,617,490,494
493,495,629,490,493
491,493,619,492,495
491,493,564,492,494
492,492,464,490,492
492,492,408,490,493
492,494,377,492,494
490,493,376,490,493
493,492,384,490,494
493,491,406,490,494
492,493,455,490,492
491,492,512,491,493
492,493,585,491,493
491,494,627,492,493
492,494,623,490,493
493,494,605,489,493
493,494,520,492,494
492,492,430,491,493
493,494,393,490,495
492,491,377,492,494
490,492,379,492,493
491,493,389,491,493
492,492,426,490,492
491,492,482,490,493
491,493,542,490,493
