Sensor0,Sensor1,Sensor2,Sensor3,Sensor4

4493,452,491,492,491
492,402,491,495,492
492,373,492,492,491
495,374,490,492,491
494,383,490,491,491
492,406,490,491,493
491,463,490,493,489
493,522,491,493,492
493,599,488,494,491
493,634,491,492,491
492,628,492,494,493
493,596,492,495,493
493,507,492,491,492
494,421,490,494,492
492,389,491,495,491
492,373,492,494,489
492,377,489,492,491
492,391,490,494,490
495,430,490,494,492
493,489,490,494,492
492,553,491,493,491
492,621,492,493,490
493,631,490,494,493
495,622,492,494,489
494,565,491,495,492
494,462,492,493,491
493,406,491,492,491
494,372,491,491,491
492,374,492,494,492
494,383,492,494,489
493,404,489,494,492
494,456,490,492,491
493,515,490,493,492
493,586,491,492,490
493,634,491,494,490
495,628,489,494,490
495,610,494,494,492
494,519,492,495,494
494,430,491,494,493
493,393,490,493,492
494,376,491,495,490
494,376,489,493,493
494,388,490,493,494
493,426,490,493,493
493,481,490,490,492
493,543,489,494,490
493,617,490,494,491
494,633,491,493,490
494,623,491,492,491
495,576,493,494,492
494,475,491,495,493
495,411,491,493,491
493,377,493,493,494
493,374,490,494,492
493,383,491,494,491
492,402,492,492,492
494,448,491,493,491
493,508,490,493,492
494,577,490,492,491
495,629,489,492,491
495,630,489,493,492
493,615,493,495,494
495,531,491,494,492
494,437,492,495,493
493,396,492,495,493
492,375,492,494,491
493,376,492,492,493
493,386,491,488,497
493,417,490,494,491
493,474,490,496,490
494,534,489,493,491
494,611,489,492,491
494,635,491,492,490
495,623,491,495,492
492,582,491,494,494
493,485,492,495,493
494,416,492,493,492
494,380,492,494,491
492,374,492,496,492
495,379,490,494,491
493,396,490,494,494
493,443,490,493,493
494,503,491,494,491
493,570,490,492,492
495,630,491,494,491
494,633,490,494,491
494,617,492,494,492
495,542,491,494,492
494,446,492,493,491
494,400,491,495,492
493,374,490,493,493
494,376,492,493,491
492,386,491,495,493
492,414,491,492,493
493,469,490,490,491
494,526,491,495,490
493,604,492,494,492
493,636,490,493,492
494,625,490,492,493
495,591,491,494,494
494,499,493,495,492
493,418,491,494,493
494,385,491,492,492
492,372,491,492,492
492,380,492,493,490
493,392,492,493,491
493,436,489,492,490
493,495,490,494,491
493,559,489,492,492
495,623,490,492,494
493,633,491,495,492
493,622,492,496,494
495,554,490,494,493
493,456,491,494,492
494,403,491,493,491
493,373,491,493,491
493,373,490,490,492
494,383,491,495,491
492,407,489,493,492
493,462,491,493,492
493,519,490,493,493
492,597,490,490,495
492,634,491,495,491
495,627,489,493,491
494,602,491,494,494
494,508,492,493,491
494,422,491,495,491
494,388,490,493,492
495,374,492,494,492
493,378,490,492,493
493,388,491,495,492
492,431,491,494,492
493,486,491,494,493
493,551,492,494,490
493,619,489,494,493
493,633,490,492,492
493,626,492,495,492
496,566,490,494,494
494,466,490,494,491
494,407,490,493,490
493,375,492,493,493
494,375,491,493,492
493,383,491,494,492
493,403,490,494,492
493,454,490,493,491
493,512,491,492,491
492,586,490,494,490
494,630,490,494,492
492,629,491,494,492
493,611,490,494,493
494,523,490,493,493
492,430,491,493,492
492,392,490,492,491
492,373,491,495,491
492,377,491,492,492
492,386,491,495,492
492,423,491,494,490
493,476,490,493,491
494,541,489,491,490
494,614,491,493,489
493,632,491,492,491
492,624,492,494,491
493,577,490,494,493
493,477,491,494,492
494,411,490,493,490
493,377,492,494,491
493,371,491,491,492
492,381,491,494,491
494,398,492,493,491
493,448,489,492,491
493,506,491,492,490
493,573,491,491,490
493,628,490,492,491
493,632,491,494,492
495,615,491,489,494
494,536,491,496,489
492,438,491,494,491
492,396,491,490,492
492,373,493,492,492
494,377,491,495,491
494,384,490,492,492
493,417,490,493,491
493,471,490,493,490
493,532,489,493,491
494,607,489,494,491
493,633,490,494,494
493,625,491,492,491
495,585,490,495,494
493,489,490,493,491
493,416,490,493,490
493,381,491,491,494
492,372,491,492,491
494,379,492,494,491
491,395,492,495,492
492,440,490,493,492
493,499,490,491,492
493,565,491,493,492
494,624,490,493,490
493,630,491,492,491
494,617,492,493,492
495,546,491,494,491
494,450,492,494,490
494,400,491,494,493
494,374,493,492,488
492,376,491,495,491
492,384,491,494,495
492,412,492,493,491
494,464,491,492,492
491,523,492,492,494
492,603,490,491,490
494,632,490,495,491
493,627,489,492,492
495,595,493,495,491
494,501,492,496,493
494,419,491,493,491
493,386,493,495,491
492,372,492,493,490
493,378,492,492,492
493,392,490,492,491
494,432,490,493,492
493,492,490,492,491
493,555,489,492,492
494,621,489,493,492
494,634,490,494,492
494,620,491,492,494
493,562,492,493,491
495,458,492,495,491
493,404,492,495,491
493,373,493,493,492
494,373,491,492,494
492,381,490,493,493
492,407,492,492,490
494,458,490,494,490
494,516,489,492,491
493,593,490,494,490
494,631,489,494,491
493,626,489,494,493
493,603,493,493,491
495,512,492,494,492
494,425,491,493,493
494,392,493,495,491
495,372,490,493,491
494,377,490,494,491
492,390,491,495,491
492,428,491,493,492
493,484,490,493,491
493,548,490,492,491
494,617,492,492,491
493,635,491,493,493
494,622,490,495,494
496,571,491,495,495
495,470,491,494,493
494,409,492,492,492
493,376,491,493,491
493,374,492,494,491
493,381,492,491,491
492,402,491,492,490
493,452,490,491,491
493,510,491,490,494
492,584,491,493,490
495,630,490,493,492
493,629,490,495,494
493,613,491,495,492
495,525,492,496,493
493,432,491,493,491
493,394,491,494,490
491,374,491,493,490
492,375,491,492,490
494,386,491,492,491
493,421,490,492,491
493,476,490,492,492
492,539,489,491,490
495,610,490,492,492
494,634,489,493,493
494,624,492,492,489
494,581,491,493,493
494,481,491,494,491
492,413,491,494,491
491,378,491,495,492
492,372,491,492,492
495,380,491,494,492
493,397,490,495,492
494,444,490,492,490
493,502,490,492,490
494,569,489,491,492
492,629,491,491,493
493,631,490,490,492
494,616,490,495,492
494,539,493,494,492
493,442,491,495,493
493,397,492,494,493
493,373,490,494,493
494,373,490,493,492
493,385,491,492,492
495,413,490,493,491
493,468,490,491,491
494,530,489,489,489
495,605,491,495,490
492,633,489,494,491
493,626,492,493,490
493,587,493,495,493
494,493,493,494,492
494,418,491,495,491
495,381,490,495,492
493,372,490,492,492
491,380,490,490,491
492,393,489,492,489
493,439,490,492,489
493,497,491,493,488
493,561,488,493,489
493,625,489,492,489
494,630,490,493,492
494,618,490,492,496
496,551,491,494,494
494,452,492,494,492
494,401,491,492,491
493,375,491,492,491
492,375,493,491,491
492,383,492,489,491
495,409,490,487,490
493,462,491,486,492
493,523,490,485,491
495,598,489,487,491
494,633,490,491,492
494,628,490,492,491
494,599,491,498,493
495,504,491,499,493
493,422,491,500,491
492,387,492,500,490
492,371,490,497,493
493,380,490,495,491
494,388,492,496,492
491,432,490,493,492
494,490,490,493,491
493,554,488,498,491
492,621,490,496,491
494,632,490,494,490
492,620,492,494,494
495,564,493,495,492
494,461,492,494,492
493,404,491,493,492
495,372,491,495,491
493,374,490,494,493
493,380,491,492,493
492,407,490,495,490
493,456,491,494,491
492,514,491,493,492
494,589,489,492,490
494,630,491,492,490
492,627,489,491,491
495,606,491,490,494
494,517,492,491,494
493,429,491,491,491
494,392,491,492,492
494,371,489,493,492
493,379,492,491,491
492,388,493,491,490
493,425,490,492,491
493,482,490,493,492
493,545,489,490,492
492,618,491,494,492
494,635,491,497,493
491,625,492,498,494
492,575,492,496,492
495,472,491,497,491
493,410,491,497,493
494,375,492,493,491
494,372,490,491,492
494,380,490,491,492
495,402,492,492,490
494,450,490,489,491
492,508,491,493,492
492,581,490,496,491
492,631,492,497,490
492,629,492,497,493
493,614,493,495,492
494,529,492,492,496
494,434,491,497,490
495,395,491,493,492
495,372,491,492,492
493,376,490,491,491
494,385,491,491,492
492,419,490,487,491
493,476,491,484,490
493,536,491,483,489
493,609,491,485,491
495,635,489,489,490
495,624,489,490,490
493,584,495,495,494
495,484,492,496,492
493,415,491,495,492
493,381,491,492,490
495,371,492,492,491
492,380,490,494,494
493,395,491,494,490
494,443,490,494,490
492,502,490,495,491
492,569,491,496,492
494,628,490,494,491
492,629,491,495,492
491,618,490,494,492
493,542,491,495,492
494,444,490,494,492
494,398,491,494,494
494,373,492,487,492
492,375,491,488,492
495,384,490,490,492
495,412,490,490,493
494,466,490,489,492
493,527,491,490,491
492,602,490,493,491
493,634,492,498,490
493,626,491,492,490
494,589,492,497,492
494,497,490,498,492
493,418,490,498,491
492,384,490,497,494
494,373,490,491,494
492,380,491,499,489
492,393,490,490,492
494,437,491,485,491
492,494,490,480,491
492,558,491,481,490
493,622,490,481,491
494,631,491,487,492
496,620,488,494,492
495,557,490,498,494
495,454,491,496,492
493,403,491,496,491
493,376,491,496,490
492,374,492,494,491
493,383,489,493,490
493,406,491,493,491
490,460,491,490,491
493,519,489,489,491
495,596,488,489,492
493,633,491,488,491
494,630,491,489,493
497,599,492,487,494
495,509,492,487,494
494,424,491,488,491
494,389,492,488,494
493,373,490,491,492
494,379,491,501,490
493,388,488,504,493
494,431,487,502,492
494,488,488,495,491
493,551,491,493,492
495,618,491,487,492
493,634,492,483,493
493,622,492,484,492
494,567,493,485,493
494,465,492,487,492
494,406,491,489,491
492,374,490,489,492
492,373,491,494,495
491,384,491,496,493
492,407,492,499,491
491,455,491,497,492
492,512,491,496,491
493,587,490,495,491
494,630,491,492,491
495,628,491,489,494
495,610,491,489,493
496,521,491,490,493
495,431,490,485,492
495,392,492,490,494
492,376,493,493,494
491,379,492,494,490
493,388,492,497,489
492,422,490,500,492
494,482,489,499,488
494,544,488,494,489
495,613,490,482,492
494,635,492,480,494
494,625,493,483,492
496,576,494,489,494
494,478,493,490,493
494,411,491,496,492
492,378,492,498,491
492,372,491,495,492
492,382,492,494,493
495,398,490,487,492
492,448,493,485,492
492,506,491,485,492
493,577,491,486,492
493,631,491,489,492
495,629,491,495,492
494,616,489,497,494
495,531,492,499,492
493,438,492,499,491
494,397,490,494,491
493,372,490,494,491
491,376,492,496,493
492,386,491,496,490
493,418,489,494,492
494,473,488,494,491
492,535,490,490,488
490,606,487,490,492
492,634,490,490,492
493,626,490,484,491
494,582,492,483,493
494,488,492,481,494
493,415,494,485,491
493,380,493,490,493
494,372,492,496,492
492,381,492,495,492
492,396,493,491,491
493,441,491,487,492
495,500,490,489,492
495,566,489,496,491
494,629,490,497,491
493,631,493,497,493
493,621,494,501,493
493,547,500,504,495
492,446,501,498,496
492,400,498,500,494
495,372,493,500,491
493,373,491,496,491
494,383,492,482,491
494,408,488,477,491
492,465,488,471,491
493,525,490,474,491
492,602,489,479,492
492,634,490,491,492
492,628,490,500,490
494,591,488,499,495
493,499,489,501,490
493,419,490,504,491
495,384,491,509,492
495,372,489,502,493
492,380,492,499,491
491,391,488,492,494
492,433,491,497,492
492,493,495,496,491
492,556,497,491,491
492,623,498,491,490
495,631,498,491,493
493,621,496,490,494
495,560,495,496,493
495,455,490,495,493
494,403,489,490,495
493,374,491,482,495
494,371,496,481,493
493,384,500,480,494
495,406,502,479,493
493,459,501,485,494
494,519,499,490,491
496,593,501,494,491
491,633,494,496,495
491,628,493,498,492
491,603,493,503,494
493,513,497,505,494
494,426,494,505,493
492,388,488,495,492
491,371,487,485,493
492,374,487,477,492
494,385,486,474,493
494,427,487,478,493
495,485,487,485,493
493,547,484,496,491
495,620,487,497,493
496,633,489,506,491
495,623,487,505,491
495,572,491,501,492
494,469,492,498,495
492,407,494,499,492
491,376,495,502,492
490,372,495,497,492
491,380,494,493,492
492,403,494,493,492
493,449,492,488,494
493,510,488,481,495
493,582,489,480,491
493,628,490,478,492
495,627,487,477,494
496,613,491,492,493
496,523,489,496,493
495,432,490,498,493
493,394,489,504,494
492,375,489,502,491
493,377,491,500,490
492,386,489,504,495
489,420,488,500,493
491,478,489,498,491
492,538,492,498,493
493,611,494,495,494
494,633,495,493,492
494,622,499,486,494
492,581,501,479,493
495,479,501,474,494
493,412,497,473,494
494,376,494,474,492
494,373,487,487,492
495,379,482,497,490
493,400,488,496,493
493,446,486,504,492
494,504,486,511,492
493,575,486,509,491
495,628,486,505,491
494,631,485,501,493
496,616,487,486,493
496,535,489,486,493
493,440,489,482,494
492,397,490,475,492
488,372,492,476,494
490,375,494,482,492
493,386,494,501,493
492,416,492,507,491
493,471,490,504,491
493,531,490,500,493
492,605,490,496,493
491,634,492,488,493
494,624,491,494,493
496,585,490,502,498
496,492,492,494,493
493,416,490,493,492
493,380,488,487,493
491,373,490,486,490
493,379,492,490,490
493,393,491,500,491
493,441,490,508,490
494,498,488,503,492
492,565,487,498,491
491,625,488,493,494
490,632,490,494,494
491,619,490,494,493
492,547,492,492,495
493,449,492,491,495
494,400,491,485,493
493,371,492,478,493
495,371,492,466,494
495,384,490,482,492
493,410,489,492,493
494,465,491,498,492
493,525,493,510,492
491,602,492,511,492
491,634,494,504,492
492,628,493,498,491
491,592,491,494,495
493,503,489,479,494
494,418,489,472,493
494,385,489,475,496
494,372,491,476,493
494,378,489,493,493
495,389,488,504,492
491,435,489,505,491
491,490,489,501,491
493,553,489,499,491
493,620,489,501,491
492,632,489,493,495
492,621,491,494,492
492,562,492,498,494
492,458,490,499,494
492,405,491,496,493
494,371,490,490,491
491,371,491,482,494
493,382,489,483,493
495,403,489,478,494
495,457,490,492,491
494,516,491,500,490
493,592,490,505,494
493,632,491,502,493
492,630,493,505,491
491,607,491,505,492
494,515,489,499,494
493,427,489,493,493
493,388,491,491,495
492,370,494,488,493
492,377,496,487,493
493,387,496,487,497
493,426,493,489,493
492,482,491,491,491
492,545,489,491,492
494,615,489,497,492
493,631,492,495,492
493,621,494,491,494
495,572,500,485,495
493,469,499,481,495
492,409,498,487,494
493,376,495,499,495
492,372,488,502,492
493,381,483,511,491
494,400,485,504,491
492,449,488,492,493
492,508,489,477,491
495,579,492,480,492
496,629,493,476,495
496,629,494,477,492
494,615,491,486,493
495,526,490,491,494
493,435,490,498,493
492,395,490,506,493
490,373,488,508,492
493,375,489,500,492
491,385,489,492,493
492,420,491,490,492
494,475,490,491,492
493,537,489,493,493
492,611,490,493,493
494,633,490,492,493
491,623,489,484,496
494,581,494,491,491
493,482,493,488,492
493,411,491,480,494
495,381,492,500,492
493,372,489,509,492
492,378,489,508,492
491,399,490,508,491
491,443,491,500,492
491,501,494,492,493
494,570,494,491,490
495,628,494,491,493
497,630,492,486,494
496,617,491,480,492
497,538,489,475,493
494,443,490,486,493
493,399,489,502,493
491,374,486,500,495
489,376,489,507,492
489,383,490,502,491
490,411,491,498,492
493,469,492,498,493
493,528,491,495,492
493,605,491,485,495
495,634,490,489,493
495,627,488,489,493
495,590,487,499,494
496,495,491,505,493
493,416,491,493,494
493,382,495,475,492
492,370,496,473,494
493,377,495,472,495
490,394,496,488,495
491,438,490,520,490
493,495,486,519,491
492,563,487,507,492
491,625,491,499,492
491,630,491,493,491
494,621,489,488,495
494,550,492,482,495
492,451,492,484,493
493,401,489,480,494
493,371,489,492,493
491,374,491,500,493
493,382,491,507,495
492,405,486,501,495
492,463,487,486,492
491,519,488,469,490
492,595,491,477,490
492,634,493,482,494
493,626,492,497,491
491,598,491,506,495
495,508,492,499,494
493,422,491,499,493
492,388,490,494,492
494,372,492,491,490
492,377,490,507,492
492,387,490,493,491
493,429,490,481,491
493,487,491,482,493
494,551,489,492,490
494,621,491,499,491
494,632,490,505,492
493,624,491,499,492
492,567,494,485,494
494,462,492,489,495
493,406,490,497,494
493,372,490,502,492
492,373,487,496,493
494,383,487,498,492
494,404,489,500,492
494,455,491,501,493
493,516,490,499,492
491,586,489,490,493
492,631,491,490,491
493,627,491,489,492
492,606,492,488,494
492,520,493,490,494
491,428,494,495,495
491,391,497,498,495
493,374,494,499,491
491,377,491,498,493
490,386,490,485,491
494,422,487,474,494
493,479,486,477,493
495,544,488,478,489
497,615,492,493,493
497,635,490,505,493
495,624,490,490,491
492,578,490,509,496
489,473,489,519,493
490,411,490,510,493
490,376,491,500,491
492,370,491,493,492
493,381,490,491,491
494,397,491,487,491
492,447,490,486,492
493,507,490,489,493
492,578,489,490,494
492,626,489,475,493
491,630,494,471,494
491,613,492,471,493
491,528,494,479,495
494,437,492,502,493
495,395,491,512,492
499,373,490,523,492
496,380,488,513,492
493,384,490,502,494
492,420,489,501,492
492,475,489,502,492
492,535,491,499,494
492,610,491,496,493
494,632,494,491,491
494,624,492,486,492
497,583,491,483,495
497,486,491,482,494
493,414,492,481,494
489,381,492,489,493
490,369,490,490,493
490,379,492,485,492
491,394,493,487,491
492,440,492,496,494
491,500,487,510,492
492,569,492,514,489
493,626,493,507,493
491,631,495,500,497
491,619,496,505,491
492,543,497,503,494
495,444,493,490,493
492,396,493,473,495
492,368,495,477,492
495,372,492,476,495
493,382,488,485,493
494,409,488,481,491
495,467,490,482,494
495,526,491,485,492
495,605,492,500,492
493,634,492,502,491
494,625,490,504,494
494,594,489,510,493
494,499,491,511,493
489,416,488,502,494
490,384,487,495,496
491,372,491,500,491
493,376,491,501,491
494,393,491,498,492
493,433,490,491,492
489,493,491,485,493
491,555,489,482,491
493,620,489,487,492
494,632,491,495,491
494,622,491,497,491
494,554,491,494,494
495,455,491,484,493
494,402,493,464,493
492,373,494,475,494
495,374,491,482,491
496,384,491,512,492
494,406,489,514,492
491,459,489,495,492
489,518,489,495,493
490,593,491,491,493
491,633,491,492,492
494,626,495,497,492
494,602,498,497,493
495,510,497,502,493
493,423,494,496,493
491,387,489,498,493
489,372,490,487,496
491,376,487,489,491
493,388,487,485,492
492,429,488,486,493
493,484,490,491,493
495,549,491,499,491
492,619,490,505,493
492,631,488,494,493
492,621,488,493,492
495,568,491,490,495
493,466,492,488,495
492,406,491,491,492
492,371,490,498,493
490,373,491,504,491
491,381,492,498,491
492,402,489,498,492
495,452,490,478,490
493,512,490,492,490
493,584,487,497,491
492,632,487,502,492
490,629,489,498,492
494,607,491,498,495
495,523,493,491,495
495,430,493,492,494
496,392,493,491,492
496,373,492,474,493
492,376,490,481,492
487,386,493,487,494
491,422,492,488,493
489,478,491,500,493
489,541,491,510,490
490,615,491,501,490
491,632,490,495,494
491,621,491,490,492
491,578,494,495,495
495,474,490,494,494
495,410,489,495,493
492,377,491,496,491
491,368,491,496,493
492,381,489,488,493
494,398,492,488,492
493,446,493,486,495
492,505,495,475,497
492,575,494,498,492
494,627,490,477,493
491,628,487,498,490
492,616,488,511,494
496,535,490,509,492
497,440,490,512,491
497,398,489,510,493
496,374,493,498,492
491,376,494,486,494
490,383,490,484,493
492,414,489,488,492
493,471,490,493,491
491,531,490,502,494
492,609,490,501,494
495,634,490,499,490
493,624,489,487,491
492,584,493,487,495
495,489,494,486,495
492,413,492,485,492
491,382,494,487,495
488,370,489,489,494
488,378,490,502,491
491,394,489,507,492
495,437,488,504,492
493,499,489,485,492
492,562,491,475,491
493,623,490,465,494
492,629,491,467,494
493,619,491,491,491
492,545,493,502,494
492,449,492,507,493
492,399,491,512,493
492,373,491,506,491
491,373,490,501,491
493,383,490,501,493
493,408,487,496,491
491,465,488,500,491
493,523,488,501,493
493,601,488,497,494
492,633,490,489,492
495,625,494,489,491
494,594,498,482,497
498,500,498,476,495
498,419,492,473,494
499,387,497,487,494
495,375,495,491,494
491,380,490,507,491
491,390,488,516,490
488,433,486,505,490
489,490,485,509,491
490,555,490,502,492
491,622,493,497,492
492,629,492,490,491
491,621,492,485,493
495,557,489,480,495
493,455,490,482,492
493,404,491,487,492
494,370,489,500,493
490,372,488,498,492
490,380,490,493,491
490,402,491,483,493
493,457,490,482,491
494,517,490,486,492
496,592,489,490,491
495,633,490,502,493
495,630,490,510,492
491,606,490,510,493
489,514,490,499,493
492,424,490,492,492
494,390,491,491,492
495,371,492,490,494
495,377,496,491,496
497,389,503,492,494
495,429,509,486,494
486,484,513,481,494
486,546,514,477,492
489,617,506,481,491
491,630,490,483,491
494,620,482,492,490
494,572,480,499,492
497,467,477,507,492
493,409,483,504,493
491,373,484,502,493
487,371,487,505,492
486,381,487,500,491
493,400,489,503,490
493,450,485,494,492
493,508,486,484,490
494,578,486,473,492
495,628,489,478,490
495,629,491,485,493
495,613,493,501,493
497,528,492,510,493
492,433,490,514,492
491,394,490,509,492
491,374,489,505,492
493,377,488,493,494
494,384,487,476,493
489,420,491,478,494
489,474,490,485,493
492,538,487,491,493
493,612,491,491,487
494,633,489,501,488
494,625,488,506,491
493,578,496,503,493
492,479,499,494,494
490,411,498,493,492
491,379,498,488,493
493,371,494,489,492
493,381,490,491,492
492,397,487,490,491
492,444,487,487,491
492,502,489,489,491
495,571,491,493,493
494,630,490,506,492
494,630,489,500,493
492,616,488,488,494
495,537,490,482,493
492,442,491,479,494
492,395,490,478,492
496,370,490,483,491
495,376,493,496,492
492,384,493,499,491
491,412,490,491,491
488,469,489,496,492
490,528,488,510,491
490,606,487,509,492
492,634,489,505,493
492,626,491,500,491
495,586,491,491,492
498,492,491,492,495
494,416,488,486,491
491,381,489,488,491
489,368,487,482,492
492,377,487,480,490
490,393,493,483,492
493,439,495,493,491
496,500,491,508,490
494,565,491,511,490
492,626,491,497,492
488,630,491,496,492
489,619,490,494,491
492,547,491,491,493
492,448,491,487,492
493,399,492,489,493
494,372,494,491,493
493,372,495,486,492
493,384,495,484,493
497,408,490,491,490
494,464,490,494,490
491,521,489,499,491
489,597,489,507,492
490,634,488,511,491
493,627,489,507,489
494,596,487,501,493
493,504,491,503,492
492,419,491,484,491
492,384,490,481,493
492,371,493,486,494
493,379,492,492,492
494,388,490,497,490
493,430,489,497,491
493,490,489,495,493
493,554,492,493,490
493,620,491,493,492
492,632,491,494,494
490,621,492,488,492
487,562,495,495,493
492,461,494,494,493
492,404,493,492,491
494,373,490,489,493
495,372,493,486,493
495,381,493,484,494
493,403,491,486,492
493,455,493,488,492
491,514,492,490,493
492,588,488,499,490
492,630,486,506,490
492,626,486,507,490
493,605,487,507,492
495,516,489,504,492
496,428,490,501,492
498,392,491,498,493
497,374,492,495,491
494,378,491,490,492
489,387,493,482,494
491,424,495,484,492
490,481,495,483,493
491,544,494,485,492
492,613,493,493,493
493,632,490,487,493
494,622,491,483,494
494,575,492,483,492
495,470,491,476,493
493,410,490,496,490
493,375,491,505,490
493,372,490,508,492
491,380,490,509,490
492,402,490,503,492
494,449,490,496,491
491,507,490,495,492
493,578,490,492,491
495,630,492,489,491
495,630,492,482,493
495,615,493,481,492
491,528,493,488,493
490,434,492,504,491
492,394,490,504,492
493,375,489,508,492
493,375,488,501,491
494,385,489,499,491
496,420,491,490,493
492,474,492,487,493
492,536,493,478,492
494,611,493,495,492
493,634,490,501,491
492,623,491,500,491
492,581,492,496,493
492,482,490,488,493
496,416,490,484,494
497,380,494,481,490
496,374,492,483,492
493,382,492,488,491
490,397,492,504,489
490,444,488,511,492
487,502,490,504,492
486,568,490,499,492
491,626,488,494,493
492,630,489,497,491
492,617,492,498,494
493,541,495,496,492
494,441,494,494,494
493,396,493,488,494
492,373,493,491,491
494,372,490,490,492
493,382,490,496,492
492,414,490,496,491
493,466,489,493,491
491,528,489,492,493
492,605,490,490,492
491,633,490,491,489
493,625,490,496,493
493,590,494,493,494
495,495,493,494,492
497,418,493,490,492
496,383,494,489,491
495,372,493,486,491
493,379,494,484,493
490,390,494,485,492
490,438,493,490,491
492,496,490,500,490
492,560,489,495,490
491,623,487,490,494
494,634,489,487,488
495,618,491,488,492
492,553,491,493,494
498,455,491,509,492
496,404,491,516,494
493,373,493,509,492
490,376,493,496,492
490,381,493,496,490
489,408,494,496,491
491,461,493,495,491
491,519,491,496,493
491,597,488,493,491
494,633,490,494,491
493,627,488,497,493
495,600,489,500,495
497,509,491,498,493
495,421,490,495,492
494,390,492,491,492
495,372,492,495,492
494,378,491,498,492
493,388,491,498,489
494,430,490,493,491
493,488,490,496,492
494,553,492,482,490
491,620,495,484,494
489,635,494,490,492
490,624,495,495,491
491,568,495,491,493
493,462,490,488,492
492,405,488,487,492
493,370,490,492,492
495,372,489,499,492
495,382,489,504,492
492,404,492,506,492
493,456,489,488,490
490,512,489,492,493
490,589,490,501,492
492,632,490,501,490
494,628,489,504,494
494,609,492,505,492
493,521,494,502,492
494,428,491,494,493
495,391,489,489,494
496,372,491,489,493
494,377,490,481,492
495,386,491,495,493
495,424,493,507,492
498,483,493,509,491
496,545,493,502,490
492,616,492,503,491
489,634,491,473,491
488,622,489,477,490
489,576,490,492,494
492,473,493,494,493
493,411,494,497,494
493,377,493,489,496
495,373,495,499,489
498,382,493,495,492
495,398,495,488,492
494,448,495,484,491
491,506,496,480,490
488,576,494,484,493
492,630,488,496,491
490,630,483,501,490
490,615,485,503,491
490,532,490,503,492
492,436,492,499,492
493,394,492,497,491
494,371,493,498,492
491,375,491,496,493
494,384,490,495,492
495,416,487,495,490
494,471,488,492,491
493,535,490,488,490
494,608,490,486,490
493,634,491,490,493
494,626,492,498,491
495,586,494,509,495
494,488,491,496,493
493,414,490,489,490
491,379,490,489,492
492,372,491,494,492
491,381,491,495,492
492,392,489,495,490
494,442,491,493,491
496,501,490,492,490
495,568,491,492,490
494,627,491,491,492
492,631,490,485,489
490,617,493,486,492
488,543,493,486,494
492,446,494,484,494
492,397,491,482,495
491,373,489,490,492
491,374,491,490,493
493,382,489,496,493
492,410,489,514,491
493,465,490,513,492
492,524,489,507,492
493,601,489,499,492
493,633,492,493,489
493,627,492,496,492
494,590,495,492,493
494,498,496,494,493
493,419,494,494,493
492,384,495,493,494
492,371,491,484,495
492,379,489,490,491
495,388,488,487,494
495,434,489,480,493
492,492,490,474,494
491,558,493,485,492
491,621,494,497,492
492,633,494,500,489
493,620,495,499,490
492,557,492,500,491
494,457,492,497,491
493,403,490,496,492
494,370,490,494,492
491,374,492,497,492
492,383,489,498,493
492,406,487,498,491
492,460,487,493,491
494,516,489,490,491
491,594,489,486,494
493,632,491,486,492
493,626,494,487,493
495,602,495,492,494
494,514,496,502,493
493,424,497,500,493
493,391,507,497,495
492,374,512,496,493
491,379,508,498,493
492,389,506,495,490
492,428,503,494,491
492,485,497,495,491
493,550,486,495,489
494,615,477,494,493
493,632,481,497,492
494,623,487,496,489
493,567,485,495,492
493,464,481,484,492
492,406,486,488,492
493,373,488,491,492
493,371,486,487,492
493,383,487,493,492
494,400,486,492,491
492,454,490,492,491
492,512,493,492,492
492,584,492,490,494
492,631,492,488,491
494,629,493,490,491
493,610,491,493,493
494,523,492,496,491
493,430,491,492,492
493,391,494,478,493
493,371,496,487,491
492,377,501,491,493
493,387,504,495,493
492,425,506,499,492
493,478,503,492,493
494,542,500,497,491
496,613,496,495,490
493,633,491,495,491
492,626,488,494,490
495,577,485,498,493
495,478,483,497,492
494,412,483,493,490
493,378,485,497,492
495,371,486,491,490
492,382,488,493,490
492,399,490,495,491
492,446,489,492,492
492,505,487,488,490
492,572,487,490,490
491,629,488,490,492
492,631,491,491,493
492,617,493,492,496
494,537,494,496,496
495,439,494,489,495
494,396,495,490,497
495,372,494,495,495
494,373,493,479,493
493,383,491,492,488
494,414,491,505,487
491,470,488,497,488
490,530,489,489,491
491,608,488,494,488
490,633,490,500,489
491,625,490,496,491
493,585,489,497,490
493,488,490,495,491
493,414,490,484,490
493,379,490,484,491
493,371,489,488,491
492,378,492,491,490
492,394,493,494,491
493,438,493,494,492
492,499,495,494,492
492,563,494,490,491
493,625,493,493,492
496,631,496,496,492
494,620,493,497,496
494,550,496,499,493
496,450,493,498,492
495,401,491,498,493
493,374,490,490,492
493,373,488,475,490
491,382,488,483,492
493,408,488,491,488
493,464,487,492,490
492,522,486,489,492
493,602,488,492,491
493,633,489,493,492
494,625,489,494,492
493,596,489,496,493
493,503,494,495,494
493,420,493,491,492
494,386,494,493,490
493,372,491,493,494
495,377,489,491,492
495,390,490,492,489
495,433,489,494,488
494,492,489,495,489
495,555,491,497,492
493,623,489,497,492
495,635,490,501,490
493,621,491,497,491
491,561,492,488,493
491,459,492,471,492
492,403,492,477,491
491,375,493,491,490
493,375,490,504,489
491,383,490,511,490
492,407,490,504,490
493,456,491,487,490
492,516,490,494,493
493,592,491,495,491
494,631,490,486,489
495,626,489,486,492
492,607,492,493,492
495,515,491,493,491
493,425,490,491,491
492,390,492,493,491
491,374,491,495,489
491,376,491,493,492
492,388,490,494,492
492,426,491,492,491
494,483,489,492,488
494,547,488,487,491
493,615,489,490,491
493,634,492,491,490
494,622,494,496,492
493,570,494,496,493
494,470,493,493,492
493,409,494,491,490
495,374,493,490,490
492,374,487,491,491
493,380,488,493,491
491,402,489,491,493
493,452,491,490,491
492,510,490,491,491
491,581,487,487,490
494,632,491,489,489
492,629,491,493,491
493,612,492,492,491
494,526,493,493,495
493,434,493,492,492
493,393,491,495,491
493,375,491,494,493
493,375,492,493,488
493,387,491,494,488
493,422,491,494,492
492,476,491,496,492
494,538,490,489,489
493,611,491,490,489
493,634,489,490,490
494,624,489,492,490
494,580,490,494,492
494,481,492,496,493
493,414,491,496,496
495,377,492,487,496
494,374,493,483,494
491,382,491,481,491
490,396,492,485,489
492,445,490,491,492
491,504,490,494,492
490,570,489,494,491
494,629,490,497,493
493,631,491,495,493
492,617,490,495,493
496,538,492,496,492
496,443,492,499,494
495,397,491,502,490
495,373,491,499,485
494,374,490,492,488
492,383,490,492,489
492,414,490,488,491
492,469,491,488,491
493,530,490,489,491
492,607,491,486,489
491,634,491,488,490
493,625,490,491,489
492,587,491,495,492
493,491,491,494,491
493,416,490,492,491
495,383,491,491,492
495,371,493,489,490
493,381,490,490,491
495,391,489,494,492
494,440,491,494,488
494,499,489,496,486
493,562,490,493,488
492,623,490,494,490
493,632,489,494,491
493,620,492,492,492
494,551,490,486,492
491,451,491,485,491
491,401,492,487,493
492,370,490,490,490
492,374,490,491,491
493,382,491,490,489
493,408,490,488,489
493,462,490,491,490
493,523,490,493,490
495,599,489,492,493
494,632,490,499,493
494,630,492,502,493
494,601,493,500,491
495,508,493,495,493
496,421,492,492,493
493,388,492,488,494
491,370,491,487,491
492,377,489,490,492
493,390,489,493,496
493,432,490,490,490
492,488,488,486,491
492,554,490,485,489
493,622,492,486,484
493,632,491,487,488
493,621,489,490,493
494,566,492,495,492
494,462,493,493,491
493,406,492,490,494
495,373,489,489,491
494,376,490,493,493
491,384,491,495,492
494,403,492,496,492
494,457,490,493,493
492,515,490,490,491
492,588,490,485,484
493,631,490,492,484
492,628,492,492,489
493,608,490,493,493
493,517,492,493,497
493,429,492,490,493
493,393,492,489,491
492,375,492,487,491
492,377,489,488,492
493,387,491,488,494
491,426,490,489,490
493,482,490,488,492
493,544,489,486,490
493,615,489,488,487
494,631,490,492,489
492,622,489,492,492
492,575,492,496,490
495,474,491,498,492
494,411,491,496,493
492,377,490,493,490
494,372,489,489,489
492,382,490,493,493
493,401,489,493,493
492,451,490,490,492
493,509,490,492,500
495,580,490,492,497
495,630,489,486,500
493,627,490,489,500
494,612,491,491,487
494,529,493,490,493
492,435,492,491,491
490,395,490,489,497
492,372,491,492,486
489,375,491,493,494
491,386,490,497,493
492,419,491,497,487
491,472,489,497,490
492,535,489,495,485
492,610,488,492,488
496,633,488,484,490
494,625,490,481,489
493,582,492,485,490
494,485,491,493,488
494,413,490,492,486
493,379,492,492,490
493,372,491,489,490
494,380,491,487,491
491,397,491,489,495
495,443,492,492,494
494,502,491,490,492
494,569,489,494,491
494,628,491,496,501
492,632,493,496,498
495,617,491,495,498
495,543,496,497,508
495,445,493,497,496
494,397,491,492,486
495,371,490,490,487
494,375,491,492,483
494,385,489,488,483
494,410,490,484,487
492,468,488,488,487
493,528,490,489,487
492,605,491,489,489
493,633,489,487,491
495,625,491,491,490
492,588,492,491,492
496,495,491,491,493
493,418,489,492,496
493,383,491,494,488
492,372,489,491,489
494,377,488,492,487
492,391,492,491,486
492,436,493,490,488
493,494,494,489,490
493,558,494,490,495
492,623,493,491,492
492,632,490,494,493
494,617,487,489,492
495,553,490,491,493
494,453,491,492,492
492,403,490,492,494
495,372,492,491,490
493,374,492,494,492
492,383,492,493,492
492,408,493,492,491
492,459,494,490,489
493,519,494,487,488
493,596,491,490,491
493,631,490,491,493
493,626,491,488,493
495,599,491,494,490
494,508,490,493,492
494,424,492,492,492
493,389,494,494,498
491,372,490,491,492
493,378,490,491,490
493,389,491,492,493
492,430,489,492,487
493,487,493,494,488
492,551,492,493,491
494,618,492,494,493
493,635,491,494,490
493,620,489,491,489
493,568,491,492,495
495,464,491,492,494
493,407,492,492,494
493,375,496,490,492
494,373,493,493,493
492,384,491,492,491
495,407,493,491,490
493,455,490,488,491
493,513,487,490,493
493,588,486,492,494
494,630,487,489,488
492,630,488,489,490
494,609,491,491,491
493,520,490,493,491
493,430,490,490,491
492,392,489,492,489
493,375,490,493,491
493,376,489,492,489
492,387,490,493,495
490,424,489,491,493
492,479,489,490,491
492,543,489,488,491
494,612,489,493,489
494,634,489,493,491
494,623,489,491,490
495,575,490,492,492
496,477,491,493,490
493,413,491,492,488
494,376,489,490,488
494,373,490,493,492
492,382,490,492,491
491,401,491,492,491
492,449,491,491,489
492,507,492,491,490
493,578,493,492,491
494,629,493,491,492
494,629,491,491,493
494,615,490,491,496
495,533,491,493,492
494,439,488,493,495
493,395,488,490,491
492,374,491,493,488
493,375,490,491,487
493,384,491,490,489
493,418,490,488,490
493,471,490,493,491
491,535,489,492,491
493,608,488,493,491
493,634,490,492,492
491,626,491,491,491
495,585,493,494,492
495,486,492,492,489
493,414,491,493,487
494,378,490,492,489
494,370,490,491,491
492,380,491,492,493
494,392,491,492,490
493,442,489,492,491
492,500,489,492,492
492,566,491,493,494
492,628,494,492,489
494,631,493,493,490
494,616,491,493,495
492,546,492,490,491
495,445,495,493,489
495,399,494,493,493
495,373,496,491,490
492,374,493,493,491
494,382,489,491,490
492,412,488,491,489
492,465,485,492,489
493,524,487,491,491
493,602,488,491,490
493,632,490,493,489
493,627,489,493,492
494,591,489,490,495
493,499,490,494,490
494,418,491,493,490
492,385,492,493,492
495,371,489,492,489
493,377,491,490,489
493,388,490,490,489
494,433,489,491,490
492,493,490,492,489
492,557,489,492,494
494,622,489,490,495
492,634,491,493,488
492,620,491,494,488
493,559,492,493,493
494,457,491,493,491
493,402,491,491,493
492,372,491,490,491
494,373,491,493,490
493,382,490,493,492
492,406,492,491,490
492,459,490,492,490
494,517,489,492,489
492,596,489,493,489
493,630,489,491,491
494,627,488,493,491
492,605,489,492,494
495,511,491,494,492
494,425,490,492,491
493,390,490,494,491
493,373,490,493,491
492,379,490,492,491
494,388,489,494,489
492,428,489,492,489
493,486,490,492,488
493,548,489,491,490
494,616,489,492,490
494,634,491,491,489
493,623,490,493,490
494,568,491,494,491
494,467,492,493,492
493,408,491,494,492
493,374,492,489,490
492,374,490,492,487
493,381,490,494,489
495,401,488,491,491
492,453,489,492,490
492,510,489,492,491
493,584,490,491,491
492,632,490,492,492
494,628,491,493,491
492,613,492,494,491
493,523,491,494,491
494,431,491,492,487
494,395,490,494,492
492,371,489,492,493
491,378,490,491,491
493,385,489,490,488
493,419,489,488,489
493,477,492,493,488
492,542,493,493,489
493,614,495,492,490
493,635,492,492,492
491,624,491,494,492
492,579,489,496,493
494,477,486,492,491
492,411,488,492,492
494,376,490,494,489
493,370,489,491,490
493,378,489,492,491
493,395,490,493,490
492,445,489,492,488
492,505,489,492,491
492,575,489,492,492
492,629,490,493,490
491,630,490,494,490
491,616,491,493,493
496,535,492,494,491
493,437,490,492,494
493,395,491,491,490
493,371,492,492,490
493,373,490,492,490
492,386,492,493,491
493,414,488,493,494
492,471,487,492,493
493,533,488,495,488
491,608,489,495,490
492,634,488,492,491
493,625,491,490,489
493,585,489,494,491
494,490,492,494,491
493,415,491,493,491
494,379,490,493,491
493,373,491,493,491
494,379,491,490,489
493,394,490,494,490
492,441,491,493,490
492,498,491,493,489
491,564,491,493,489
495,624,490,492,490
493,630,488,494,492
492,621,488,491,491
495,546,490,493,492
493,448,490,494,491
494,400,491,494,490
493,372,488,493,492
493,373,489,492,491
493,386,490,494,490
491,412,491,493,490
492,464,490,492,490
494,523,489,493,488
492,600,488,494,491
492,633,489,491,490
494,626,489,492,491
495,593,489,493,492
495,502,492,494,492
493,420,491,493,491
493,385,491,494,493
493,373,490,494,488
492,380,490,493,488
493,389,491,493,489
493,433,489,491,492
493,491,490,492,489
492,555,489,494,489
494,621,489,492,492
493,631,489,489,492
493,621,489,495,488
494,562,492,495,493
494,458,491,493,491
493,405,490,494,490
493,376,491,496,490
492,374,491,493,490
493,383,489,493,492
493,405,491,492,491
492,458,489,492,490
493,517,489,492,488
494,590,489,491,491
494,632,489,493,490
493,629,490,493,491
493,603,491,493,490
494,516,491,495,492
494,427,491,494,491
492,391,492,495,492
492,374,492,492,493
493,379,489,491,491
493,386,490,495,488
492,425,488,492,488
494,483,489,491,489
493,546,488,492,493
494,617,492,491,491
492,635,492,495,491
494,622,491,494,491
492,574,496,495,489
494,470,495,495,489
493,408,493,494,492
493,376,490,492,492
493,373,489,494,491
494,380,487,493,492
495,401,486,493,491
493,450,487,492,490
493,510,489,492,491
492,583,489,492,490
493,628,490,494,490
493,629,491,492,490
493,613,492,494,489
493,525,492,495,493
494,433,489,493,493
494,393,490,493,490
493,374,491,493,492
495,377,489,492,492
493,386,489,495,492
492,420,489,492,490
493,476,489,493,489
492,537,489,492,491
492,613,490,494,490
493,633,490,492,490
493,623,490,492,490
492,583,490,496,491
495,481,491,496,492
493,413,490,494,492
495,378,490,494,493
493,373,490,494,490
492,380,489,492,492
494,399,491,493,489
494,443,489,494,490
493,504,490,493,489
493,572,491,492,488
492,627,490,493,489
493,628,489,495,490
492,620,490,493,491
495,538,492,494,492
496,441,490,494,492
494,399,490,495,495
492,373,490,495,492
494,374,489,492,489
493,385,491,493,491
495,413,490,492,488
494,471,489,492,489
493,529,490,492,490
494,604,490,494,492
492,635,489,493,491
493,624,491,493,492
494,590,490,493,493
493,494,492,495,491
494,417,490,494,492
494,382,489,496,491
493,373,489,494,492
492,378,490,492,491
493,392,490,492,490
494,438,490,493,490
493,497,490,493,491
493,563,491,494,492
495,625,490,493,490
493,631,490,494,492
492,622,491,495,491
493,553,492,496,492
493,451,490,494,492
494,401,491,492,491
494,372,488,495,491
493,373,489,492,490
494,383,490,493,489
495,407,489,493,491
493,464,490,492,491
494,522,491,492,490
492,600,489,494,493
493,635,490,495,491
492,629,491,493,491
492,594,489,493,492
495,506,492,496,493
493,420,491,495,491
493,385,492,493,494
493,372,489,492,491
495,378,490,495,490
495,390,492,494,489
493,434,490,494,492
493,490,490,493,492
492,556,491,494,489
493,623,493,493,489
493,632,491,492,492
493,623,490,492,491
495,563,494,496,494
493,459,491,493,493
495,407,490,495,493
494,374,490,495,492
492,372,490,493,492
492,384,491,494,492
495,404,488,493,491
493,457,490,494,491
493,516,490,492,489
493,588,489,494,492
493,633,489,494,492
494,630,491,494,490
492,608,489,495,494
494,519,492,495,494
494,429,491,491,494
492,392,493,498,491
495,372,489,495,489
493,377,490,495,491
492,386,490,492,490
495,425,489,493,491
494,483,490,493,491
493,545,491,493,489
493,617,489,495,492
493,633,489,495,491
493,624,491,493,492
493,577,493,494,491
495,473,491,496,492
494,410,491,494,491
495,378,492,495,491
494,371,489,492,492
494,382,490,495,490
493,401,491,494,490
493,447,491,494,491
493,510,491,492,492
493,578,492,494,490
492,628,490,493,491
494,629,489,492,492
494,613,490,493,493
495,530,492,495,492
494,436,491,494,490
493,394,491,496,492
494,374,491,495,490
493,377,492,494,490
493,386,492,493,493
494,419,491,493,490
493,475,491,494,491
494,536,488,493,491
495,610,489,493,492
494,636,490,495,491
494,623,490,492,493
493,586,492,494,493
495,483,492,495,492
493,413,491,493,491
494,380,492,494,490
493,371,491,495,490
492,380,489,493,492
493,398,492,494,491
493,444,489,493,492
493,503,489,491,491
493,571,490,491,489
493,629,491,495,492
494,632,491,495,490
494,619,490,496,491
496,539,491,495,493
495,445,491,495,491
494,399,491,494,494
493,373,492,494,493
493,377,491,493,491
494,383,492,494,491
492,414,492,494,492
493,469,491,494,492
493,527,491,494,493
492,603,490,491,492
493,635,491,495,492
494,626,489,494,494
495,590,490,496,492
496,496,491,496,491
494,417,491,496,491
494,385,491,493,492
495,371,492,494,491
494,378,490,494,493
495,390,491,492,492
495,437,490,494,490
493,495,490,494,492
494,562,489,493,490
493,624,491,495,492
493,633,492,495,491
493,622,492,496,491
493,555,492,496,496
495,454,492,494,492
495,404,491,496,491
495,371,491,493,493
494,374,489,494,493
494,384,490,494,490
494,407,490,495,491
494,463,490,494,491
494,522,491,495,491
492,598,491,492,493
494,633,491,494,490
495,629,491,496,490
495,598,490,492,494
494,509,494,495,493
495,422,492,494,492
494,390,492,497,492
494,374,493,496,490
492,379,491,494,493
494,388,491,493,489
494,431,489,494,491
492,488,489,493,491
495,550,489,492,492
496,619,489,493,494
494,634,491,495,493
494,624,491,494,491
495,569,492,498,494
495,464,491,495,494
494,407,492,493,494
494,375,491,494,494
494,371,490,495,490
493,384,491,494,492
494,403,489,494,493
493,455,490,491,493
493,515,490,494,489
494,586,490,496,491
493,632,490,493,493
493,630,491,494,490
493,609,492,494,491
494,520,492,495,493
495,432,491,495,491
492,393,492,494,493
496,373,492,494,491
494,378,491,495,492
493,388,491,495,492
493,426,492,495,492
493,480,490,492,493
493,544,491,495,492
494,617,490,494,491
494,633,490,494,493
495,624,489,494,492
496,578,491,495,491
494,476,492,495,492
494,411,491,494,491
493,378,492,496,493
493,373,492,494,491
493,380,492,493,491
493,400,490,494,492
492,447,490,494,490
494,508,489,493,492
494,577,488,493,493
495,630,489,494,492
493,632,490,495,491
492,614,491,494,491
493,533,492,496,493
495,438,491,495,492
494,395,492,494,492
493,372,490,492,492
494,375,490,494,491
492,386,490,493,492
495,418,491,493,491
494,474,490,491,491
493,534,490,496,490
493,611,490,495,491
495,634,490,494,490
493,625,491,495,494
493,585,491,494,493
495,485,492,494,493
493,414,491,495,492
495,380,492,496,490
493,372,490,493,495
494,380,491,494,491
492,396,491,496,490
492,442,490,495,492
492,500,490,494,490
493,567,492,493,491
493,626,491,492,491
494,633,491,494,490
494,617,490,491,493
495,543,491,496,493
495,447,491,495,495
494,400,491,494,493
493,373,490,493,492
495,374,492,493,492
492,383,492,493,490
492,409,491,492,491
493,466,489,494,492
493,525,489,493,493
491,604,491,493,491
494,634,491,496,491
493,626,491,495,491
493,593,491,496,493
495,498,492,496,490
494,418,491,495,491
494,384,492,494,490
492,370,491,493,492
494,376,490,493,493
494,390,490,492,493
492,436,493,494,493
493,493,491,493,492
493,557,491,494,492
493,624,491,494,490
493,632,490,494,491
493,620,489,493,494
493,556,491,495,493
495,456,491,495,491
494,402,490,494,493
495,372,490,492,493
494,374,490,495,491
494,383,490,495,492
492,409,489,493,493
494,462,491,492,492
492,520,491,494,489
493,593,490,494,490
494,635,490,495,492
494,627,489,494,490
493,602,492,494,494
494,512,491,495,493
494,424,491,495,493
494,390,491,496,492
493,374,489,493,492
494,377,492,494,491
493,388,489,494,490
494,428,490,493,491
493,485,491,494,492
494,549,489,493,491
492,620,492,490,492
494,634,490,496,491
494,625,492,496,492
491,570,493,495,493
493,467,491,496,492
494,408,491,494,493
494,372,494,493,493
492,374,491,493,493
494,382,489,492,493
494,403,489,495,492
493,453,489,492,492
493,512,490,494,490
491,584,489,494,492
492,632,491,492,492
494,629,491,494,490
494,610,491,493,491
495,523,492,496,492
494,433,492,495,491
494,393,492,495,491
493,375,491,495,491
492,379,491,495,491
492,387,491,494,493
492,423,489,493,490
492,479,491,494,492
493,542,490,492,490
494,613,490,493,492
494,634,489,494,492
494,625,490,492,491
493,579,490,495,495
493,476,493,495,494
493,413,492,495,492
494,379,492,494,491
493,371,492,494,490
492,382,491,495,489
495,396,489,496,489
493,448,489,493,491
493,506,490,493,492
493,576,490,494,493
493,630,490,494,492
492,630,489,494,493
492,617,492,495,494
495,535,491,495,493
493,439,491,494,491
493,396,491,493,493
495,370,490,494,489
494,377,490,495,491
493,385,491,493,490
492,417,490,494,492
493,473,491,493,491
492,532,491,494,490
494,607,489,493,490
493,634,490,495,491
492,627,490,493,491
495,585,491,493,493
494,490,493,495,493
493,415,492,494,492
494,384,489,496,493
494,371,489,493,491
492,381,491,494,491
492,396,492,494,490
493,440,491,492,492
492,499,490,494,491
493,566,489,492,491
495,628,491,494,490
494,633,490,495,492
493,621,490,495,493
493,549,493,496,494
494,448,492,493,492
494,401,493,495,491
495,372,493,494,489
494,373,490,492,489
494,383,489,492,489
495,408,491,496,492
492,465,490,493,495
492,524,490,493,495
491,602,489,495,493
492,635,491,495,490
493,627,491,494,494
495,593,489,494,490
494,502,492,496,491
493,418,491,494,492
495,385,490,493,492
496,373,490,494,492
493,378,490,495,492
494,389,491,492,492
492,436,490,492,490
492,491,491,495,491
493,557,491,494,489
493,622,490,491,492
494,631,491,495,490
493,621,489,493,491
493,561,493,497,495
495,458,491,495,493
494,405,491,495,493
492,374,491,495,492
494,372,489,494,491
492,384,490,494,492
493,405,491,492,490
493,459,490,493,491
493,517,490,493,490
494,594,491,495,490
494,633,489,494,490
494,626,491,494,493
492,605,490,495,492
493,515,492,496,493
493,426,491,495,492
492,390,491,493,495
493,373,491,493,490
491,378,490,495,492
494,387,489,491,491
494,427,489,493,490
493,483,490,493,491
492,547,490,493,492
492,618,490,493,489
493,633,490,494,489
493,623,491,494,491
493,574,493,494,493
493,467,490,493,494
493,409,491,494,492
492,376,490,493,492
493,371,489,493,492
494,382,489,494,491
494,402,489,493,490
492,451,489,493,491
492,510,491,492,490
492,583,491,493,492
492,630,491,493,490
493,629,492,492,490
493,611,492,490,494
494,527,491,496,491
493,433,490,495,491
493,393,489,493,493
494,373,489,491,493
492,378,490,496,489
492,384,488,492,489
492,422,491,494,490
493,476,490,495,490
492,539,490,492,491
493,611,491,491,492
494,633,489,493,491
492,625,489,494,493
494,580,493,494,492
493,480,490,495,492
494,413,491,496,491
494,381,490,495,491
494,371,489,494,490
493,380,491,493,492
491,398,491,492,491
493,444,489,493,492
492,505,489,493,491
494,572,489,492,491
494,627,491,491,491
493,632,490,495,490
494,615,490,496,491
492,538,492,494,492
493,442,491,494,491
493,397,493,496,492
493,373,490,492,491
494,377,492,494,491
493,384,490,493,493
493,415,489,494,493
493,470,490,493,492
492,528,489,493,492
491,608,490,492,492
493,633,491,493,490
494,624,490,492,490
494,586,489,492,491
494,493,491,495,493
493,416,489,493,494
494,383,491,495,492
494,373,490,496,490
492,380,491,494,490
492,394,491,494,489
492,438,491,493,491
493,496,491,491,490
494,564,490,495,490
494,623,489,493,492
494,631,490,494,493
492,620,490,494,493
493,548,491,493,495
494,451,491,495,491
494,401,491,495,491
494,373,492,491,491
494,374,490,493,490
493,382,491,494,492
490,407,489,494,491
493,465,490,494,490
493,521,490,494,492
493,600,489,493,493
492,634,491,494,491
494,625,489,495,488
492,597,489,494,493
493,503,492,496,493
494,419,491,494,492
494,386,490,492,491
495,371,490,493,492
494,378,492,493,492
492,392,489,492,489
493,431,490,494,490
493,489,489,494,490
493,554,491,493,488
492,621,490,494,493
492,632,490,492,491
492,622,492,495,491
495,561,491,495,494
495,460,491,494,493
494,406,491,493,493
494,372,491,496,493
493,374,489,493,491
494,382,491,493,491
491,405,492,493,491
492,457,491,492,491
492,516,490,494,491
494,589,488,491,492
493,633,491,494,491
492,629,490,495,493
491,607,489,493,494
492,518,491,496,492
494,428,491,495,492
493,391,492,495,492
494,373,490,494,492
494,375,490,492,491
494,387,489,492,491
495,425,490,493,490
492,482,490,493,491
493,547,490,492,489
493,617,490,494,490
492,633,491,493,490
493,623,491,492,490
492,574,490,495,493
492,471,491,491,492
494,410,491,493,491
494,373,490,495,491
493,372,489,494,491
492,383,490,493,491
493,399,490,495,491
492,449,489,493,490
492,509,490,493,490
492,579,491,493,490
493,629,490,492,491
494,628,489,493,490
492,615,492,493,493
495,528,492,494,492
494,435,490,495,492
493,395,491,496,493
493,374,493,495,491
492,375,489,493,492
492,384,491,493,492
492,419,490,493,490
493,473,489,493,490
494,535,489,492,492
495,610,489,494,490
492,632,490,494,492
492,623,490,492,491
492,584,493,495,494
493,483,492,495,492
493,414,492,495,491
494,379,490,495,489
494,369,489,494,490
492,381,489,490,494
494,395,489,494,493
493,443,489,494,490
494,503,490,493,491
492,567,490,492,491
492,629,491,494,492
493,631,490,493,490
493,616,492,493,491
494,539,491,495,493
494,445,491,495,493
492,399,490,494,493
495,375,493,494,490
492,376,491,494,491
491,384,490,494,492
492,413,491,493,490
493,467,489,493,492
492,527,490,494,491
494,605,491,492,491
494,632,489,493,492
493,624,489,494,493
495,589,492,493,491
493,494,491,495,493
494,417,491,495,492
492,385,492,495,490
492,371,492,493,491
493,378,491,493,491
492,391,491,495,492
492,436,490,491,493
493,496,490,492,491
493,560,489,495,490
494,622,489,495,492
493,633,490,494,493
493,617,490,493,491
492,554,491,495,492
495,453,491,495,490
493,401,492,493,491
493,373,493,493,490
494,373,493,497,489
492,382,491,493,495
492,409,492,493,493
493,461,489,494,489
493,519,488,494,491
492,598,489,495,491
493,632,489,493,489
493,626,489,494,491
493,597,491,492,492
493,506,492,495,493
494,421,491,494,492
494,388,491,493,493
492,372,491,494,493
492,379,490,492,491
494,388,491,495,492
492,431,490,494,490
492,487,490,494,490
494,551,490,494,492
492,618,490,493,492
492,634,491,494,493
493,622,490,493,493
494,565,490,495,494
495,463,492,495,492
493,406,491,495,492
492,374,490,492,493
494,373,491,493,489
492,381,491,494,490
493,402,491,492,491
493,457,490,494,490
493,513,490,493,490
492,589,491,493,491
493,632,490,494,490
492,629,491,495,490
492,610,491,496,494
492,520,491,495,494
494,428,492,495,492
493,392,492,495,491
493,370,492,493,489
494,375,490,493,492
494,386,490,493,490
492,423,492,492,491
493,480,490,490,491
494,545,490,495,491
492,616,491,493,490
494,632,491,486,494
493,625,491,498,492
493,574,491,497,492
493,474,492,495,492
494,409,490,492,495
494,376,489,494,494
492,373,490,494,490
494,380,491,495,491
491,397,488,493,492
493,449,491,493,491
493,507,491,493,491
493,575,491,491,492
494,629,489,493,490
492,631,492,494,493
493,615,492,493,491
493,532,491,495,493
494,436,492,495,492
493,396,491,496,492
492,372,490,493,493
493,375,491,493,492
492,386,490,491,490
494,416,490,493,491
493,472,490,493,491
494,534,489,493,490
492,610,489,493,492
492,632,490,492,492
492,627,492,493,490
492,584,493,495,491
493,486,492,495,493
494,415,491,494,492
494,378,491,495,492
493,373,489,493,493
493,381,490,493,493
492,395,490,494,493
492,441,490,493,491
493,502,491,490,492
492,568,491,492,489
495,626,491,494,491
494,630,490,491,491
494,617,489,493,493
494,543,490,493,493
493,448,492,496,491
493,399,491,495,490
494,375,490,494,492
491,376,492,495,492
491,384,491,495,492
495,411,489,493,490
492,466,490,493,493
493,526,489,492,492
494,603,490,492,492
493,633,489,493,492
493,627,491,492,491
492,592,490,495,493
494,497,492,495,494
493,420,491,494,492
492,386,493,496,491
492,372,492,493,492
493,378,491,494,492
492,392,490,492,491
494,437,490,494,492
493,495,490,492,491
493,558,490,493,493
493,623,490,493,493
493,631,489,492,490
492,620,491,491,494
494,555,492,495,491
493,456,491,493,492
491,402,491,493,491
492,371,489,493,492
492,372,490,493,489
492,384,490,494,490
493,406,489,491,491
493,460,490,492,491
493,518,489,493,490
492,596,491,493,492
491,634,489,492,493
493,629,491,494,492
491,602,491,496,493
492,509,490,494,492
492,422,490,494,492
493,388,490,492,493
491,372,491,492,491
494,376,490,494,491
492,389,489,494,492
491,428,490,493,491
492,484,489,493,490
493,550,490,494,490
494,615,489,492,490
493,633,491,492,489
492,621,492,493,490
491,569,493,493,494
493,465,491,494,492
492,406,490,494,494
490,372,491,491,491
492,372,491,493,490
492,380,491,493,490
492,405,490,493,491
492,453,491,493,491
492,512,492,492,490
493,585,492,492,487
494,630,489,493,489
493,628,489,493,491
493,609,493,495,490
492,522,489,494,494
492,430,489,493,493
492,394,489,494,494
491,374,489,494,492
492,376,490,494,493
494,387,489,494,490
490,423,489,492,492
493,480,489,493,491
492,542,491,492,489
490,614,491,492,490
492,634,490,494,492
494,623,490,491,494
492,578,492,493,493
494,475,491,493,492
493,410,490,493,492
494,375,489,494,489
492,373,490,493,491
493,379,491,493,490
492,398,488,492,492
491,447,489,490,493
492,503,489,492,491
494,573,488,495,489
493,628,490,494,490
492,630,489,492,492
493,618,490,495,492
492,534,493,495,491
493,437,492,494,491
492,395,490,491,493
491,374,492,494,492
491,375,490,494,491
493,384,491,493,489
493,414,491,493,491
492,470,491,493,492
493,533,491,492,490
493,609,490,494,491
494,633,490,493,491
494,624,490,491,491
493,584,491,494,491
493,489,491,495,491
494,415,492,495,492
492,381,490,493,493
494,373,490,492,493
492,381,492,495,491
492,394,491,494,492
492,439,490,491,491
493,500,491,495,491
492,564,489,493,489
494,625,489,492,491
494,630,489,494,493
493,618,490,495,491
493,547,491,496,493
494,446,491,495,492
494,400,491,495,491
492,375,491,494,489
492,372,492,493,490
493,384,490,494,490
493,408,491,495,492
492,464,490,493,493
494,524,490,493,492
494,600,490,493,492
492,633,491,492,492
494,629,491,495,492
494,591,492,494,493
494,501,492,495,492
494,420,491,494,491
493,385,493,494,491
492,370,491,495,490
492,380,490,492,492
494,390,492,491,494
493,435,490,493,490
493,492,490,495,491
491,556,490,494,491
494,620,489,492,490
494,632,492,495,491
493,621,490,490,491
494,558,491,495,493
495,458,492,495,491
494,403,492,495,491
493,374,490,494,493
494,373,491,493,492
492,384,491,494,490
492,409,492,494,490
492,458,490,494,491
494,517,490,491,490
493,592,491,496,492
492,631,489,494,493
494,628,490,494,492
493,603,490,494,493
494,512,492,495,493
494,425,491,494,492
492,391,492,494,492
495,371,491,493,490
493,378,492,492,491
493,387,492,493,489
493,426,490,494,491
493,486,490,493,491
492,548,492,493,493
493,618,489,493,491
492,634,492,494,492
491,623,492,495,492
495,570,489,492,492
494,468,491,494,492
494,407,491,494,493
493,373,491,493,492
495,372,490,492,492
494,382,491,494,491
493,403,489,491,492
493,451,491,495,491
493,512,490,493,491
492,585,491,494,491
491,631,492,493,491
493,627,490,492,493
492,610,491,492,492
492,526,492,498,491
494,432,491,494,492
494,395,492,494,493
494,374,491,495,491
494,375,489,494,491
492,388,489,492,493
494,421,491,493,491
492,479,491,493,490
493,539,491,492,490
494,614,490,494,490
494,634,490,494,489
493,623,491,495,492
493,580,490,495,492
494,480,492,494,492
493,413,492,493,493
495,377,493,493,493
493,373,491,495,493
493,378,490,492,492
494,396,489,492,492
494,445,489,492,491
492,504,489,494,491
493,572,490,494,491
492,630,489,493,491
493,631,491,494,490
493,617,492,494,490
493,536,492,493,493
494,440,491,494,492
495,397,491,494,492
491,374,493,491,494
494,375,489,494,491
494,386,490,496,492
492,416,490,493,491
493,468,490,492,490
493,531,489,493,491
492,607,491,492,489
494,633,490,490,492
494,625,489,492,492
491,588,492,496,493
494,491,491,496,492
493,416,490,495,492
492,382,491,494,493
492,373,492,494,491
493,379,493,492,489
492,391,489,495,491
493,439,491,493,489
492,497,491,492,490
493,562,488,490,491
494,625,489,494,490
493,632,490,493,492
493,618,490,495,495
492,547,490,494,493
493,449,491,495,493
493,401,492,493,491
493,373,493,493,493
492,375,491,494,494
494,383,490,494,489
491,410,489,492,492
493,464,489,494,491
493,524,490,493,491
491,601,490,492,492
494,635,491,493,491
493,628,491,494,491
493,593,491,493,491
494,502,492,494,492
494,420,491,493,495
494,387,490,495,490
493,372,490,494,492
492,378,491,493,491
491,391,490,495,490
492,434,491,493,491
492,491,491,494,491
493,554,489,494,491
493,621,491,492,492
491,633,490,494,492
495,621,489,492,494
495,562,490,495,492
495,460,492,495,492
494,406,491,495,492
495,373,490,492,489
492,373,491,493,489
493,382,491,493,489
493,405,491,492,490
492,458,490,492,491
494,516,491,491,495
491,591,490,491,494
493,632,491,495,492
492,629,492,495,491
492,607,491,495,491
497,515,491,494,491
494,427,491,493,491
493,390,492,494,493
492,372,491,493,493
494,376,490,492,491
494,387,491,495,491
492,426,489,492,491
492,484,490,491,493
492,546,490,494,492
492,617,490,494,491
492,633,491,494,493
493,622,489,492,491
493,572,490,494,492
494,469,492,495,493
493,407,491,494,492
495,374,491,492,494
494,373,492,493,491
492,381,490,495,490
494,400,490,495,490
492,451,490,494,491
493,510,491,493,491
492,581,491,493,489
492,628,490,494,492
492,628,489,492,492
492,615,493,495,493
494,525,491,494,494
494,434,491,493,493
493,395,491,495,492
494,370,490,494,491
492,377,489,493,492
493,385,492,493,491
493,418,491,492,492
493,476,490,491,489
494,538,490,493,491
494,610,489,492,490
492,634,491,494,492
492,625,491,492,495
492,583,491,495,492
493,483,492,495,492
494,411,492,495,492
493,379,489,494,492
494,370,490,490,492
494,379,489,494,491
494,395,489,492,491
494,445,490,493,489
492,503,491,493,492
493,572,490,491,491
494,630,492,494,490
493,631,492,493,490
494,618,494,492,490
493,541,492,495,493
494,443,492,494,491
493,399,493,494,493
495,372,490,494,494
492,376,491,494,493
492,386,491,492,491
494,411,491,494,492
492,469,490,492,492
492,530,491,492,489
493,604,491,492,491
494,634,490,492,492
492,627,492,493,493
494,587,489,493,492
493,494,491,494,494
494,416,491,494,491
492,384,492,495,492
493,373,492,493,490
493,379,490,494,495
492,390,491,491,492
492,439,490,493,488
492,496,490,493,492
494,561,489,493,492
494,625,490,492,490
494,630,491,494,492
492,619,489,492,492
492,552,493,495,492
494,452,491,494,491
493,401,491,493,491
493,375,491,495,491
494,372,489,493,490
493,384,490,493,493
493,409,490,494,492
493,462,490,491,493
492,522,490,492,490
494,599,491,495,490
494,633,490,493,490
493,626,490,492,491
494,595,491,493,492
494,505,491,494,492
494,422,491,494,491
493,387,490,494,494
495,372,491,493,490
492,380,491,494,491
492,390,492,493,491
493,432,491,494,491
493,488,491,493,489
493,551,491,493,491
492,623,491,492,491
494,632,488,492,492
493,622,489,490,495
493,565,491,495,492
494,462,491,495,493
494,405,490,494,491
493,374,493,491,493
493,371,491,494,491
493,380,490,493,491
491,406,491,489,493
493,455,490,494,490
494,515,490,493,491
492,589,490,495,492
492,631,491,494,491
493,628,491,493,491
494,606,490,493,492
493,517,492,494,493
495,429,492,494,491
493,390,491,494,491
495,370,490,493,493
495,378,492,493,490
493,388,490,494,493
494,424,490,493,490
492,483,490,494,490
492,544,491,493,488
492,616,491,493,492
493,634,491,492,493
494,621,491,494,494
491,573,490,492,494
495,472,492,496,492
494,409,491,494,494
493,376,494,493,492
492,374,492,494,492
494,381,488,493,491
491,401,492,492,491
491,448,489,493,488
493,507,490,492,490
494,577,490,493,491
491,629,490,493,491
493,630,491,493,491
493,615,490,495,492
492,530,491,495,493
494,436,491,494,491
494,395,490,494,491
492,373,490,494,493
492,374,490,492,491
493,384,490,492,491
495,417,489,493,492
494,476,491,493,491
493,536,490,494,491
494,609,490,492,492
492,635,492,495,489
492,624,492,494,490
492,583,493,494,493
493,485,492,494,492
494,414,491,494,492
494,378,490,492,492
494,372,490,493,493
493,380,490,492,491
491,396,490,496,489
493,441,490,495,490
493,501,489,493,492
493,569,491,490,492
491,626,491,494,491
494,629,490,494,492
495,620,491,495,491
494,540,491,494,493
494,445,491,494,493
493,399,492,495,492
492,373,492,495,490
492,375,492,493,491
494,384,492,492,489
492,412,490,494,490
493,467,490,493,492
494,526,490,493,493
494,602,489,492,492
493,634,490,492,492
492,626,491,492,492
494,588,491,495,491
493,496,492,495,492
493,418,492,494,494
493,383,492,492,491
493,373,490,496,490
493,377,490,493,491
492,392,491,492,492
494,436,491,493,491
493,493,490,493,490
493,559,489,491,489
493,624,491,493,491
492,630,490,491,493
492,621,492,493,490
494,555,493,497,492
494,454,492,494,492
493,404,491,495,493
494,370,490,495,490
493,375,489,494,492
493,384,490,494,493
492,408,490,494,491
492,461,490,492,490
493,520,491,493,490
493,595,490,492,490
493,633,491,493,490
494,626,491,492,492
494,598,490,492,494
494,509,490,495,493
494,424,491,494,493
493,388,491,493,492
493,374,491,495,492
492,379,491,494,491
492,390,491,494,490
494,430,490,493,490
492,487,490,493,492
493,552,489,491,491
494,618,490,493,492
493,633,490,490,494
492,623,490,493,489
494,569,492,495,493
494,463,492,495,492
493,407,492,495,492
493,374,493,494,491
493,370,490,493,492
492,383,491,492,492
494,401,492,493,491
492,454,489,491,490
493,514,490,494,491
492,587,490,492,492
492,631,490,495,490
494,628,490,493,489
493,608,492,494,494
493,521,491,493,490
493,430,492,494,492
494,391,490,493,493
495,372,492,493,491
493,378,491,495,492
493,385,490,491,492
492,426,491,494,491
491,480,490,494,491
492,542,491,493,491
494,615,489,491,491
493,632,491,493,490
491,623,490,494,492
495,576,490,494,492
494,475,491,495,494
493,411,491,493,492
493,378,492,496,491
494,372,490,493,491
492,381,492,491,490
492,399,492,492,490
493,447,491,493,491
492,505,490,492,491
492,576,489,492,492
491,629,491,493,492
492,631,491,493,493
491,617,491,496,492
492,532,492,493,494
495,438,492,494,491
492,395,491,496,493
493,371,491,493,491
494,375,490,491,493
494,384,489,492,492
494,416,491,492,490
493,473,490,492,490
493,533,489,492,490
492,611,491,492,492
491,633,492,494,489
493,624,491,495,493
493,586,491,493,492
494,487,492,495,492
494,413,490,493,493
494,381,490,494,493
493,373,491,495,491
491,380,491,494,491
494,392,489,494,490
492,441,489,493,491
493,501,491,492,490
493,566,490,492,491
493,625,490,492,493
494,632,491,493,490
493,619,489,493,491
492,543,491,494,495
494,447,492,494,493
492,400,492,494,491
491,373,493,494,493
494,374,492,492,489
492,384,491,494,491
494,408,490,491,491
493,465,491,492,491
493,525,490,491,492
492,601,491,493,491
492,635,490,489,494
494,625,491,493,489
491,592,492,495,492
493,499,493,495,492
493,417,492,494,490
494,386,491,495,493
494,371,490,493,489
493,378,491,492,493
492,391,489,493,492
492,435,490,493,492
492,491,489,492,492
494,557,491,495,490
491,621,490,494,492
493,631,490,492,491
494,619,490,492,491
494,556,490,493,493
493,457,492,495,492
494,404,490,494,491
493,371,490,495,492
492,375,491,494,491
492,383,491,493,490
491,407,489,493,493
493,460,491,493,491
492,518,490,493,491
494,593,489,492,492
493,632,490,493,493
492,628,491,494,493
492,602,490,492,492
496,510,492,493,495
492,422,491,492,491
494,389,492,495,490
492,372,492,493,492
494,376,491,492,492
491,389,491,492,492
494,428,490,494,490
492,485,490,493,491
493,550,490,492,492
493,619,490,491,494
490,632,490,494,492
494,622,492,495,489
495,568,490,495,493
495,465,491,493,492
493,407,491,494,492
494,372,491,491,494
492,373,491,491,494
493,383,491,492,489
492,403,490,495,492
493,454,490,493,491
493,513,490,494,490
491,584,491,492,491
494,631,489,495,490
494,627,490,495,491
491,612,490,492,492
494,522,491,495,493
494,432,491,494,493
494,393,491,494,490
493,374,491,494,490
494,375,491,493,491
492,387,492,494,489
492,422,492,493,490
491,478,491,493,492
492,541,490,491,491
494,612,492,493,490
492,633,489,494,493
493,624,491,494,494
492,579,490,495,492
494,476,491,494,492
493,411,491,494,494
494,377,490,494,492
493,370,490,492,492
493,380,490,491,492
494,397,489,487,492
493,446,490,496,490
492,506,490,494,491
493,574,491,493,493
492,631,491,494,491
491,631,491,493,490
492,616,493,494,494
495,535,490,493,492
493,440,492,495,492
493,394,491,493,493
495,372,490,493,493
494,377,490,494,493
492,384,491,492,491
492,418,491,494,491
493,471,491,494,491
492,532,491,492,490
493,608,491,492,491
494,632,490,494,491
492,626,489,493,492
496,587,493,493,491
494,488,492,493,494
494,416,490,493,493
493,384,492,495,493
491,373,492,495,492
494,379,490,491,492
493,393,490,494,492
491,438,490,493,491
494,499,490,492,490
494,564,489,493,491
494,626,491,493,491
493,633,491,494,491
494,618,490,495,492
491,547,492,492,492
493,450,492,495,492
493,400,491,496,493
493,373,493,493,491
494,376,492,495,490
493,382,490,493,493
494,410,490,493,493
493,465,491,493,492
493,523,490,492,494
491,603,491,492,492
493,633,491,491,490
494,625,491,492,492
494,593,491,493,491
494,501,491,495,493
494,421,492,494,493
495,387,490,491,491
493,371,492,495,491
492,380,491,494,490
493,391,491,495,489
492,434,491,493,492
493,491,490,492,491
493,557,490,492,493
494,620,489,493,492
494,632,489,493,493
494,622,491,493,493
493,559,491,494,492
494,459,491,494,493
493,404,492,495,492
493,374,493,496,491
494,373,491,492,491
494,382,490,494,492
491,403,489,492,492
492,460,490,493,491
493,517,490,494,492
492,592,490,493,493
493,633,491,493,491
492,628,491,492,494
494,603,492,494,491
492,513,492,494,493
494,424,492,494,492
494,389,490,493,493
496,372,490,490,493
493,377,491,493,493
492,390,489,492,489
493,427,490,493,492
492,484,490,493,490
493,549,491,494,487
493,617,489,494,491
491,632,490,492,492
492,624,492,494,492
495,569,489,494,493
493,468,491,495,496
494,409,491,495,494
494,373,491,495,494
492,374,490,493,493
493,381,491,492,489
492,401,491,493,490
494,451,490,492,490
493,511,491,493,491
492,584,492,494,492
494,632,490,492,491
494,628,492,494,492
491,614,491,495,492
493,526,491,495,493
494,433,491,493,493
493,392,492,493,492
493,374,491,495,492
494,375,489,493,493
494,386,489,491,492
494,421,489,493,490
492,476,490,493,492
492,540,490,490,492
494,613,491,492,491
492,632,491,494,491
493,624,491,492,490
493,581,491,495,492
494,479,492,494,493
493,414,492,494,492
494,378,490,493,493
493,372,490,494,492
492,382,491,494,492
491,398,489,491,492
493,445,491,494,491
493,504,489,492,490
493,571,490,492,491
493,628,490,492,492
494,630,489,493,490
492,617,492,493,494
494,538,493,494,493
493,440,492,494,495
492,398,492,495,492
492,375,492,494,489
493,375,490,493,492
493,382,491,492,492
492,416,491,491,491
493,469,491,493,491
494,530,490,494,492
495,607,489,492,491
493,633,492,494,492
491,625,489,491,492
492,588,493,496,490
493,491,492,496,492
494,416,492,494,490
494,382,492,493,491
493,372,492,494,494
494,379,492,493,492
492,392,490,494,495
491,438,490,493,494
493,497,490,494,491
492,560,491,492,494
492,626,492,493,492
492,633,491,492,491
493,616,492,493,492
495,548,491,494,493
496,451,493,495,491
492,401,491,494,494
493,373,492,493,492
493,375,491,493,493
492,383,491,495,490
492,409,492,493,491
493,463,490,493,491
492,522,490,494,491
492,601,490,492,491
494,633,490,494,493
493,627,490,494,492
493,597,490,495,492
493,502,492,494,494
494,420,492,494,494
495,387,491,494,490
492,371,491,493,492
494,376,490,490,494
494,389,489,496,489
491,433,489,491,492
494,491,490,494,491
492,556,490,495,492
492,621,491,494,492
492,633,491,493,491
494,621,490,493,490
492,562,493,495,493
495,460,493,493,491
493,403,492,494,492
493,371,490,492,492
495,374,493,493,490
492,382,491,494,493
493,404,491,492,492
492,458,491,493,491
493,515,491,493,491
492,590,491,494,491
493,631,491,493,493
492,628,491,489,492
494,608,491,496,492
495,513,492,492,492
494,426,491,494,493
495,391,490,495,492
493,372,492,490,493
491,378,491,494,491
493,386,493,492,491
490,425,492,494,491
490,481,490,494,490
493,544,490,494,490
492,614,491,493,491
493,634,492,492,492
493,622,490,493,492
493,572,491,497,496
493,470,491,493,495
493,409,491,495,492
491,376,490,493,492
494,373,492,493,491
492,381,492,492,491
492,399,492,492,492
492,449,491,492,491
492,510,489,494,491
493,579,488,494,490
492,631,490,494,492
492,630,490,494,493
492,614,489,494,493
493,529,493,494,492
492,433,491,494,493
493,393,489,492,491
492,374,492,494,490
492,376,491,493,493
491,386,491,493,492
492,417,489,494,489
491,474,489,492,490
493,539,491,493,490
491,611,491,494,492
492,632,491,493,491
493,624,490,493,493
492,580,493,493,493
493,481,492,491,494
492,412,491,492,492
492,377,491,489,492
492,370,489,493,490
493,380,492,495,490
491,393,489,492,491
492,445,490,493,490
492,502,491,493,491
493,569,490,492,491
495,628,490,492,491
492,631,492,494,492
493,617,492,494,490
492,539,492,493,491
493,441,491,492,491
492,397,491,494,492
493,375,491,492,489
492,375,490,493,491
492,383,490,493,493
492,414,490,493,491
492,467,489,492,493
492,528,490,491,491
492,604,490,493,491
492,631,490,492,492
492,627,491,494,491
492,589,491,495,492
493,492,491,492,493
492,416,490,493,492
493,381,490,495,493
490,371,489,494,491
494,379,491,491,489
493,390,491,490,489
493,436,491,492,491
491,496,491,493,490
493,560,489,493,489
492,625,491,493,492
492,633,491,495,492
491,621,491,496,492
492,553,491,493,493
494,451,492,492,491
492,400,490,496,495
494,371,492,493,492
494,373,489,493,492
493,382,489,493,493
492,409,492,492,492
492,462,490,493,491
493,519,491,493,489
492,600,491,494,491
492,632,491,492,491
493,625,491,492,493
492,600,491,496,493
494,504,491,495,494
494,422,491,493,493
494,387,490,494,493
495,372,490,495,494
493,379,490,493,491
494,387,491,495,491
491,429,490,493,492
493,489,491,493,490
493,551,491,490,490
493,618,491,491,492
492,634,492,494,491
494,621,490,495,490
492,565,490,495,493
494,462,492,494,493
493,406,491,495,492
492,375,490,493,492
495,373,492,492,490
492,382,490,495,491
494,403,490,490,491
494,455,491,491,493
492,514,490,495,491
494,587,489,493,488
493,632,490,494,491
492,627,491,492,492
492,611,493,495,490
493,519,494,495,494
493,428,494,493,495
493,392,492,493,491
493,372,490,493,492
492,377,489,491,493
495,388,489,492,492
494,424,490,493,491
493,481,490,494,490
492,546,489,495,491
493,613,490,494,490
492,634,491,494,489
492,623,491,493,490
492,575,492,495,496
493,473,491,494,494
492,409,491,494,492
492,374,490,493,491
493,372,490,493,492
493,380,490,492,491
494,399,488,492,491
494,449,491,492,492
492,508,491,492,491
493,576,490,494,491
492,631,491,494,490
492,629,492,494,491
492,614,489,489,495
494,530,493,498,491
493,435,490,494,492
493,394,490,492,490
494,371,490,492,492
494,375,489,492,491
492,385,492,494,492
492,419,490,491,491
492,475,489,493,491
492,536,491,494,490
491,610,491,494,490
492,633,490,494,492
494,624,490,492,492
492,583,491,493,492
495,483,492,493,492
494,413,491,493,491
494,379,490,494,493
494,372,492,491,493
493,382,491,494,492
494,392,490,494,489
492,444,491,493,490
492,502,490,493,489
493,566,490,492,492
492,629,491,492,490
494,630,492,493,489
492,618,489,493,493
493,543,492,494,492
493,444,493,494,495
492,398,490,492,493
491,375,492,493,494
493,374,491,491,491
494,382,489,491,491
495,410,489,491,491
493,467,490,492,492
492,527,490,493,493
493,603,491,492,492
492,634,491,494,491
492,627,492,493,491
491,591,493,496,490
493,496,492,497,493
493,418,490,494,490
493,382,491,495,493
491,370,489,493,492
494,379,490,493,492
493,390,490,493,492
493,434,491,492,491
493,496,491,494,492
492,557,489,494,491
492,624,491,491,492
493,631,490,491,489
494,618,490,496,491
492,557,490,494,491
494,454,492,495,491
493,401,490,494,493
493,374,491,494,491
493,375,492,493,490
493,382,489,492,491
491,408,492,494,492
492,459,491,493,492
493,519,490,492,491
495,595,490,490,490
494,632,490,494,492
493,627,490,493,491
492,601,491,495,492
493,506,491,494,494
493,423,492,495,492
493,389,493,494,492
492,371,492,495,493
492,379,490,492,491
494,389,492,494,490
493,430,490,492,492
493,487,491,493,492
492,551,491,494,492
494,617,491,492,490
493,633,492,491,492
493,622,492,493,489
494,566,492,493,490
493,464,492,495,490
493,406,492,495,493
492,373,490,492,494
492,373,492,491,493
491,383,491,494,493
491,406,490,493,491
492,455,489,494,490
492,512,491,493,491
493,586,490,491,490
492,631,491,493,490
493,628,489,493,492
493,609,490,494,493
493,520,491,494,495
494,429,492,491,495
492,393,493,493,490
495,370,491,495,489
493,377,491,494,489
493,387,491,492,490
493,422,490,494,491
493,481,490,492,491
492,544,491,493,492
494,614,489,494,493
493,635,490,494,492
491,625,491,495,491
494,574,490,494,492
494,476,491,493,492
494,410,492,494,492
493,376,492,493,490
493,372,491,492,491
493,380,490,493,491
492,401,491,494,491
493,447,490,493,491
492,506,489,493,491
492,577,489,494,492
492,631,491,494,490
492,629,489,493,491
494,616,492,494,491
493,532,491,495,492
494,436,491,494,491
494,396,490,492,492
495,372,490,492,491
493,375,492,494,492
492,388,491,492,490
493,418,491,492,493
492,473,490,493,490
492,534,491,494,488
492,607,489,493,491
493,633,490,492,491
491,625,492,493,493
494,581,489,494,494
494,487,492,495,492
493,415,491,495,492
492,381,492,493,492
494,374,491,494,491
493,379,490,494,491
492,394,492,492,490
493,441,491,492,491
493,500,490,491,492
492,567,491,493,491
494,626,492,493,490
493,631,491,494,492
492,619,491,493,491
493,545,492,494,491
492,445,492,495,492
492,398,492,491,493
493,373,490,495,490
494,372,489,493,492
494,383,490,491,494
494,411,490,493,490
492,464,490,493,492
493,525,490,492,491
491,603,491,494,491
493,632,491,493,490
494,625,491,492,490
493,590,491,493,492
493,499,492,494,493
494,419,492,494,491
493,383,491,494,494
494,372,491,494,492
492,380,492,494,491
492,388,489,492,492
492,436,490,492,491
493,492,490,492,492
492,556,490,492,490
493,622,489,492,491
494,631,490,494,490
492,620,490,493,494
493,556,492,493,491
493,455,492,495,494
493,404,491,494,492
492,375,492,495,491
493,373,491,494,492
493,381,490,494,492
492,408,490,491,492
493,459,490,493,491
493,517,490,493,492
494,594,489,493,492
492,631,490,491,493
492,629,491,494,492
494,600,490,494,491
492,510,492,495,493
494,424,492,493,492
493,389,492,495,493
492,373,490,492,493
494,378,492,493,490
492,389,489,493,492
492,429,490,493,491
493,486,490,494,491
493,548,489,492,490
492,619,492,492,493
493,634,491,493,491
493,620,490,492,491
494,568,491,492,494
493,466,492,495,492
493,407,490,495,493
494,374,493,489,494
491,374,492,496,491
491,382,491,494,491
491,404,492,493,491
492,453,491,492,492
492,511,490,491,492
493,587,491,494,491
494,630,490,494,493
493,629,490,492,493
492,611,490,494,492
494,520,492,496,493
493,431,491,493,491
494,392,492,494,491
492,372,492,493,493
494,375,491,491,491
494,386,491,495,490
491,421,489,489,493
491,479,491,494,490
492,542,490,495,491
492,614,490,494,491
492,633,491,493,493
492,623,490,492,490
493,576,490,494,492
493,476,492,494,492
493,410,491,493,493
494,377,490,492,493
494,374,491,494,492
493,380,490,492,492
491,400,491,491,491
493,446,491,494,491
492,505,491,493,491
492,574,491,492,489
493,628,491,494,490
492,629,489,493,494
492,617,493,494,493
494,534,490,494,494
494,439,491,493,493
492,398,492,496,491
494,370,491,494,491
492,375,490,493,491
492,384,491,492,490
492,413,490,492,491
493,471,490,492,490
494,533,492,493,490
492,607,489,493,490
493,633,491,493,489
491,626,492,493,490
491,586,492,494,494
492,489,492,495,493
493,416,490,494,492
493,379,491,492,491
492,372,491,493,492
493,378,489,493,492
493,392,488,493,493
493,441,489,492,491
491,498,491,494,492
492,564,489,492,492
494,627,491,492,492
492,629,490,491,491
494,617,490,492,491
495,548,491,494,492
494,447,492,493,492
492,400,492,495,494
492,373,490,495,493
490,374,491,495,492
492,384,491,492,491
494,408,491,493,491
492,464,489,491,491
492,524,490,493,490
493,598,490,492,491
494,632,489,493,492
494,626,489,493,489
491,593,492,494,493
493,501,491,494,492
493,419,490,494,493
492,385,492,495,492
491,371,492,492,491
493,378,490,494,492
493,388,490,491,491
491,435,490,492,490
493,491,490,492,492
493,555,488,493,493
493,621,490,491,491
493,630,491,494,492
491,619,489,492,493
491,559,492,492,493
492,457,492,494,493
493,402,490,492,492
492,375,492,497,491
493,372,489,493,491
493,381,490,493,493
492,406,490,495,492
492,457,490,493,492
492,516,490,493,491
491,591,489,492,492
493,630,491,492,492
492,629,491,492,492
494,601,490,492,493
494,511,491,494,494
494,426,490,494,492
493,389,491,495,495
493,372,490,491,492
