Sensor0,Sensor1,Sensor2,Sensor3,Sensor4

493,494,382,490,492
492,491,411,491,493
492,493,464,493,470
491,493,492,493,529
491,492,491,493,604
490,492,493,494,634
491,494,491,493,627
491,495,493,492,589
492,492,493,494,493
492,494,493,493,417
492,494,492,492,382
493,494,491,492,371
491,494,492,493,376
491,493,493,492,392
492,492,493,494,438
491,493,492,493,496
490,493,493,493,562
491,492,492,493,625
492,494,492,493,631
491,494,494,494,621
493,494,491,493,552
493,494,492,492,451
491,493,491,493,402
491,495,492,494,371
491,494,491,492,372
490,493,493,494,384
491,494,494,492,409
491,494,493,492,462
490,493,492,493,521
490,492,492,492,601
492,494,493,493,634
491,492,492,494,627
491,492,492,494,597
491,492,493,494,506
491,494,492,494,424
491,493,492,493,386
492,493,491,494,373
491,495,492,492,379
492,495,491,492,389
493,494,491,494,431
490,493,492,493,489
492,494,493,493,553
490,492,492,495,621
490,493,493,494,634
490,494,494,493,624
492,493,492,494,568
492,495,493,493,461
491,493,493,492,407
492,493,491,492,375
493,494,491,493,370
492,492,492,493,380
491,494,492,492,406
491,492,492,493,455
492,493,492,494,515
491,493,492,493,591
491,494,493,492,633
492,494,492,494,629
490,493,491,493,611
494,493,494,493,519
492,494,492,493,430
492,493,492,494,391
491,493,492,494,371
493,494,491,493,376
491,493,493,493,385
491,492,493,492,426
491,493,492,493,482
491,494,492,492,544
492,494,493,495,615
490,492,491,494,634
492,495,493,492,623
490,493,493,495,576
491,493,493,493,475
492,494,492,494,410
491,493,493,494,377
493,492,494,492,373
492,493,492,494,379
492,493,492,492,400
493,493,491,493,448
492,494,491,493,506
491,493,492,492,577
490,492,490,492,631
492,493,492,494,632
491,494,492,493,617
491,494,493,493,532
492,494,493,493,437
492,494,493,492,396
490,493,493,495,372
492,493,491,494,373
491,492,491,493,382
492,492,491,494,417
492,494,491,494,472
491,493,491,492,534
492,493,493,493,611
491,494,492,493,636
492,494,492,492,626
493,494,491,492,585
490,493,493,493,487
492,493,492,492,414
490,495,492,494,378
491,492,491,495,370
490,493,492,494,378
490,494,491,493,392
492,494,492,492,442
491,492,491,493,500
490,494,491,492,568
492,493,490,492,628
492,493,491,493,632
491,494,492,494,619
490,492,492,491,547
493,494,492,494,447
491,492,492,494,400
491,494,493,493,372
491,493,492,494,371
491,493,491,492,383
490,493,493,492,408
492,492,491,493,465
492,493,491,493,523
490,492,491,494,599
491,493,491,493,636
492,494,492,493,629
492,492,491,494,595
491,495,493,492,502
492,493,491,492,419
492,494,491,492,384
490,493,494,492,370
492,492,492,491,377
492,493,493,494,387
490,492,493,494,433
490,493,492,493,491
490,493,492,493,555
490,493,492,493,622
490,492,492,492,633
491,493,490,493,622
492,493,491,493,561
493,493,492,493,458
491,494,491,493,403
491,494,491,492,374
490,494,494,494,372
490,494,493,493,382
491,494,492,492,406
491,494,491,492,456
491,493,492,493,518
492,493,492,493,593
490,492,491,494,632
491,492,493,495,629
491,493,493,495,605
491,495,491,493,516
491,493,492,493,425
491,493,490,492,390
491,494,493,492,373
491,494,490,492,376
492,493,490,493,386
489,493,490,493,426
491,493,491,493,483
491,493,492,493,547
490,492,492,494,617
490,493,492,493,635
492,493,491,494,625
491,494,493,495,571
491,493,491,493,470
492,494,493,492,410
491,493,491,492,374
493,492,491,492,370
491,494,492,492,381
489,492,491,494,401
492,493,491,492,451
490,493,492,493,510
491,493,492,493,584
491,495,492,495,630
490,493,490,493,631
493,494,492,493,615
492,493,491,494,526
491,493,493,493,436
491,493,491,493,394
492,494,491,491,370
490,493,493,493,375
491,492,492,491,385
491,494,492,492,420
491,493,491,493,477
491,493,491,493,536
490,493,490,493,612
490,493,492,492,634
490,493,492,494,624
490,493,492,495,582
490,493,492,494,483
491,493,492,492,414
491,493,493,493,380
491,492,490,493,369
492,494,491,493,379
492,493,491,493,395
493,493,490,492,443
491,493,491,493,502
491,492,492,492,573
493,494,492,495,630
491,494,493,493,633
492,494,492,492,621
491,496,492,495,539
491,494,492,493,443
491,492,491,493,396
492,493,491,492,370
492,492,491,494,372
490,492,491,494,383
492,493,491,494,410
490,492,491,493,469
491,493,491,493,528
490,494,492,492,606
491,494,491,492,635
492,493,490,493,626
491,494,493,494,589
492,492,492,493,497
492,495,491,493,415
491,492,492,494,382
490,492,492,494,371
490,494,491,493,376
491,494,491,492,392
489,491,491,494,437
492,493,491,492,495
491,493,490,492,560
491,491,490,493,626
491,493,491,493,633
490,494,491,494,622
493,494,495,493,555
491,495,493,494,454
491,494,493,494,404
492,493,492,494,370
492,494,491,493,373
490,494,493,494,380
492,492,490,493,405
491,492,491,493,460
491,492,491,493,519
490,492,490,491,598
491,492,492,494,634
492,492,491,493,629
491,494,491,491,602
491,495,492,492,510
492,494,492,493,422
491,494,492,492,387
492,492,493,493,372
491,492,492,494,374
490,493,493,494,386
490,493,493,494,429
491,493,491,492,486
491,494,493,493,551
490,492,491,492,621
492,494,491,493,633
492,493,492,494,623
491,493,491,492,571
491,495,491,493,464
491,493,491,492,408
490,493,492,493,371
490,493,493,493,372
491,494,492,493,381
491,494,492,492,399
490,492,492,492,454
491,494,491,493,512
490,493,490,492,585
491,492,491,493,631
491,492,492,494,629
490,493,490,491,614
489,493,492,494,523
492,494,492,493,431
491,494,493,492,393
492,495,493,493,373
492,494,490,494,376
491,494,491,493,383
492,494,493,493,423
491,492,491,492,479
491,493,492,493,540
490,492,492,495,614
492,492,490,493,635
491,495,492,495,623
490,492,491,492,580
493,494,491,492,477
491,494,492,492,412
491,492,492,492,376
493,494,493,492,371
490,493,493,494,381
492,493,491,494,396
490,493,493,493,445
491,493,493,494,505
491,494,492,494,573
491,492,492,492,630
492,493,493,494,633
492,493,490,493,616
493,493,491,493,535
491,493,492,494,440
491,494,491,492,395
491,493,493,492,373
492,492,492,492,375
491,494,491,492,384
491,495,492,491,415
492,493,491,493,469
491,493,491,492,530
490,493,493,492,608
491,492,492,494,634
491,493,493,494,626
490,494,494,495,588
490,493,493,493,491
493,494,492,493,415
491,492,492,494,380
492,494,490,492,371
492,493,491,493,377
491,492,491,493,391
490,493,491,491,436
490,492,491,492,498
490,493,491,493,564
489,492,492,493,625
490,493,492,492,633
491,493,491,494,618
490,495,491,491,550
490,493,492,494,450
491,493,490,492,399
491,492,490,493,370
491,492,492,494,374
491,493,490,493,381
490,493,490,492,408
491,493,492,493,464
491,493,491,492,522
491,494,491,492,601
492,494,491,494,634
491,494,493,493,626
491,492,492,492,599
491,494,491,493,502
491,493,491,492,419
490,492,492,493,386
490,493,490,492,370
492,494,491,491,378
490,492,492,494,389
492,494,489,491,432
491,492,490,492,488
490,492,490,492,555
489,493,492,492,619
491,492,492,492,634
492,493,492,494,622
490,493,493,494,563
491,494,492,494,460
491,493,491,493,405
491,494,492,492,371
490,492,492,492,373
492,492,489,493,381
491,492,490,492,402
491,492,491,493,456
490,492,490,492,516
491,493,491,493,590
492,493,490,494,635
491,494,491,492,629
492,494,491,492,610
492,495,491,493,517
491,493,491,492,428
491,493,492,493,391
490,491,490,493,369
490,492,491,493,374
490,493,492,493,386
489,492,489,493,423
490,493,492,492,482
491,492,491,493,546
492,493,490,492,617
492,493,490,493,632
491,492,491,493,625
492,494,490,494,573
491,494,491,493,473
491,493,491,493,408
491,493,492,493,374
490,493,493,493,371
491,493,492,491,379
490,492,491,491,400
492,494,492,493,447
490,492,491,493,508
492,492,489,493,577
491,492,491,494,629
490,493,491,492,631
490,494,492,493,615
492,493,490,493,530
492,494,492,493,435
491,494,492,492,395
491,495,492,494,370
491,493,490,493,373
492,494,493,492,385
491,491,490,494,416
491,492,490,492,472
491,492,491,493,534
491,492,490,492,610
490,493,491,493,632
490,491,491,491,628
491,493,491,491,585
492,494,491,492,485
492,493,492,492,414
491,493,492,492,380
491,492,491,493,371
491,493,491,494,378
490,493,492,493,392
489,493,492,492,441
489,493,493,493,500
491,492,491,492,568
492,492,492,495,627
491,493,491,494,631
492,493,491,494,618
491,493,492,495,543
492,493,492,492,447
491,492,491,491,399
491,492,492,493,372
490,493,492,491,375
491,494,491,491,383
491,494,492,495,409
489,492,490,492,466
490,493,491,493,525
491,491,490,494,602
490,491,491,493,633
490,493,492,493,627
490,493,494,492,593
493,492,492,492,499
491,493,492,494,418
491,494,491,492,385
493,494,490,492,369
492,492,491,493,376
491,494,492,492,388
490,492,491,492,434
492,493,492,493,494
490,492,492,493,558
490,493,492,492,624
491,494,492,493,632
490,493,490,493,621
490,493,493,493,557
491,492,491,493,456
491,492,490,492,402
490,492,492,494,374
491,496,490,494,372
490,493,490,492,379
490,494,493,492,408
491,494,491,493,459
491,493,491,492,518
491,493,490,492,593
489,493,493,493,632
491,492,491,491,629
492,494,492,494,603
489,492,492,493,513
491,493,491,493,425
490,493,490,493,389
491,494,492,492,372
490,493,492,494,377
492,493,490,493,388
492,492,490,492,426
490,492,491,492,485
490,494,492,493,548
490,492,490,492,619
492,493,493,493,636
492,495,493,492,625
493,495,493,492,573
492,493,492,494,468
491,494,491,492,406
491,493,493,493,372
492,492,491,493,370
490,492,491,493,379
489,492,491,494,400
489,492,490,492,452
491,492,491,492,510
491,492,491,493,586
490,493,491,492,632
492,493,490,492,629
492,492,490,493,614
490,493,493,493,524
492,493,492,493,432
491,492,491,493,393
490,493,491,494,371
491,494,493,492,376
491,492,491,494,383
492,495,491,491,419
490,493,492,493,477
491,493,491,493,538
491,492,490,493,612
492,493,492,492,635
492,493,492,494,625
490,492,490,492,581
490,494,492,493,480
491,493,491,492,414
491,493,491,491,378
491,495,491,492,370
489,493,492,492,378
492,492,491,491,395
490,491,491,494,443
490,492,490,492,502
490,492,491,493,569
489,492,490,492,629
490,494,491,492,629
490,492,492,492,619
492,495,491,492,539
492,494,491,493,442
491,494,491,493,397
491,494,491,494,370
491,494,491,492,373
489,493,492,493,384
490,493,491,493,412
490,493,491,492,468
490,492,491,492,530
490,493,490,493,604
490,492,490,492,634
491,492,491,493,626
491,492,490,493,588
492,492,490,493,493
491,493,491,492,418
491,492,491,493,384
491,494,491,494,369
489,492,491,493,378
490,493,492,493,391
490,494,492,493,435
491,492,492,493,496
490,492,490,494,559
491,494,490,492,626
492,493,490,492,632
492,492,490,493,618
490,494,493,492,551
491,493,491,492,453
491,493,491,493,400
490,492,492,494,373
489,493,491,493,374
490,493,490,493,380
490,493,491,491,410
489,492,490,493,462
490,493,490,492,521
491,492,490,492,598
491,492,490,493,632
491,492,492,492,630
492,494,492,495,599
490,495,491,492,507
490,493,492,493,422
491,493,491,492,388
491,494,493,492,371
490,492,492,494,378
491,493,490,493,386
489,492,489,492,430
491,492,490,492,487
491,492,490,492,551
490,491,491,491,620
490,491,490,493,633
492,493,490,492,622
490,493,493,493,566
491,493,492,493,463
490,493,492,492,405
490,492,491,492,375
492,495,491,493,370
490,492,490,492,379
491,492,490,492,402
492,492,491,493,453
491,493,491,493,512
491,493,492,492,588
490,493,491,492,632
492,492,492,492,631
491,494,492,491,613
491,495,491,492,521
490,494,491,493,429
490,493,490,492,392
489,493,492,494,371
492,492,491,493,375
491,492,490,493,384
490,491,490,494,424
490,493,491,493,480
491,492,490,492,541
491,492,492,493,614
489,493,492,492,635
491,493,491,491,624
492,492,491,495,576
492,494,491,493,475
491,493,491,492,410
492,493,492,493,375
492,492,490,493,370
491,492,492,493,379
490,493,491,491,399
492,491,491,493,446
491,493,490,492,506
489,493,491,492,577
490,493,492,492,630
491,493,491,492,629
489,493,492,493,617
493,493,493,493,533
491,493,491,493,437
490,492,491,493,396
490,492,490,493,371
490,494,491,492,375
489,492,492,493,384
492,493,489,492,415
490,493,492,494,472
490,493,492,493,534
491,494,491,494,607
490,492,490,493,635
492,493,492,493,628
491,492,491,493,584
491,492,491,493,489
491,493,490,492,415
491,493,491,493,381
491,494,490,493,371
490,493,490,492,376
490,494,491,492,394
490,495,490,491,441
490,493,490,492,498
491,493,492,494,564
492,493,490,491,627
491,494,491,494,630
491,493,492,495,619
490,493,491,495,547
491,494,491,492,449
490,494,491,493,400
490,492,489,492,371
489,494,492,491,374
490,494,491,492,383
491,494,490,491,410
489,492,492,493,465
491,493,491,493,523
491,493,490,493,600
491,492,491,494,632
489,492,492,493,627
489,493,492,494,594
489,493,491,492,501
491,492,492,493,419
492,493,491,492,385
491,495,492,492,371
492,493,490,492,378
492,493,490,493,388
489,493,490,493,431
491,493,491,493,490
490,493,491,493,554
489,491,491,494,622
490,493,491,492,633
491,492,491,494,623
492,494,493,494,560
491,493,492,492,458
491,492,492,492,406
491,493,490,492,374
492,494,492,492,372
491,491,491,493,380
490,493,490,491,401
489,493,491,493,456
490,492,491,493,516
490,492,491,493,592
490,494,493,493,631
491,492,492,491,630
492,492,492,494,605
493,495,492,493,516
491,494,492,493,427
492,494,490,492,390
490,493,493,493,370
490,491,491,492,377
492,493,492,494,386
489,493,493,493,425
490,492,491,493,482
490,493,490,493,544
490,493,491,492,618
490,492,492,493,633
492,493,491,493,623
491,492,490,493,574
492,492,490,493,471
490,493,491,492,408
490,492,490,491,377
492,492,491,493,371
490,493,493,493,381
490,493,492,492,402
491,494,491,491,449
491,492,491,493,510
490,493,491,494,581
490,492,490,492,629
492,493,491,494,629
490,492,491,494,614
491,492,492,492,530
492,493,492,493,436
491,493,490,492,393
490,493,493,493,371
490,493,493,492,376
491,494,491,491,383
490,492,492,491,419
491,493,491,493,474
491,493,491,492,535
491,492,491,494,610
492,492,491,494,634
491,494,490,492,626
490,494,494,495,583
492,493,492,492,483
491,493,492,493,414
491,494,492,492,381
492,494,491,493,372
493,493,493,493,378
491,492,491,495,393
491,495,491,492,442
490,492,492,493,501
490,492,491,493,569
490,492,492,493,628
490,492,492,492,632
491,493,492,494,619
490,493,490,492,540
492,493,491,493,445
491,492,492,493,398
491,494,492,492,373
490,492,492,494,374
491,492,490,492,383
490,494,493,492,411
490,493,491,493,468
490,492,491,494,526
490,493,490,493,605
492,493,493,493,636
491,493,493,495,625
491,493,494,495,590
491,493,493,494,498
491,492,492,493,418
492,493,492,492,385
490,494,490,493,369
490,493,490,492,378
492,492,490,492,390
492,492,490,492,435
491,492,492,492,494
491,492,491,494,561
491,493,489,494,623
490,493,492,492,632
491,493,492,492,622
491,494,493,494,554
491,493,492,492,455
492,492,492,494,402
492,493,492,493,370
492,493,492,494,371
490,492,492,494,382
492,494,490,492,405
490,493,493,493,460
492,493,492,493,520
491,494,492,491,597
491,494,492,492,634
491,493,490,493,628
492,494,492,492,602
492,492,492,494,511
491,494,492,492,422
491,493,492,493,388
490,492,493,494,373
490,493,493,493,375
491,492,492,492,388
490,491,491,494,428
491,494,491,492,486
490,493,491,492,550
491,491,489,492,619
490,493,492,491,632
490,492,492,491,625
492,493,492,494,568
490,493,493,493,465
490,492,493,493,408
490,494,491,493,371
491,495,491,492,372
489,493,493,494,380
492,492,491,492,400
491,491,491,493,452
490,492,490,493,512
490,492,492,492,587
492,493,493,493,633
491,492,491,494,629
492,495,491,491,614
492,496,492,492,524
491,494,491,492,433
491,493,492,492,390
490,492,491,492,373
491,494,491,493,374
490,493,492,493,384
489,492,492,493,421
490,493,490,491,477
490,493,492,492,540
490,491,491,494,615
492,493,490,491,633
491,493,490,493,623
491,492,490,493,581
491,494,491,493,476
491,493,491,492,413
492,493,493,493,376
490,493,493,492,371
491,494,492,492,380
491,493,490,491,397
490,492,491,493,444
491,493,491,492,505
490,493,490,493,572
490,492,490,494,628
490,492,492,494,631
490,493,491,493,615
493,494,494,493,537
490,493,491,493,440
491,494,491,491,396
492,494,491,491,372
492,493,490,493,374
491,494,492,493,381
490,492,491,491,415
491,492,491,493,468
491,492,491,493,529
490,493,492,493,607
490,491,491,493,633
491,494,491,492,625
489,493,492,492,587
493,493,491,492,490
491,493,491,493,415
491,492,491,494,381
490,492,491,492,371
492,493,492,493,378
491,492,490,493,392
490,494,492,491,438
490,493,491,492,497
491,493,490,492,562
490,492,492,492,624
491,493,491,492,633
492,492,492,494,619
490,493,493,495,549
491,493,493,493,451
491,493,490,492,400
490,494,492,492,370
490,492,492,492,374
492,493,489,492,381
492,493,490,492,407
491,492,491,493,463
490,493,491,492,520
490,493,490,492,602
489,492,491,493,633
490,494,492,492,628
490,494,492,492,599
491,495,492,492,503
491,493,491,492,421
491,494,492,493,386
490,493,490,492,368
491,492,491,494,375
490,492,492,494,387
489,493,490,491,431
490,493,492,493,490
490,492,491,492,555
491,494,491,491,622
491,494,491,492,632
491,493,491,493,623
491,494,491,493,563
491,494,492,492,461
491,493,491,493,404
490,493,492,493,371
489,492,492,493,373
491,491,490,493,381
491,494,491,494,402
489,492,490,492,456
491,493,491,492,513
491,492,490,492,588
491,492,490,494,631
491,494,490,491,629
489,493,492,494,610
492,494,491,493,518
491,494,492,492,428
491,494,491,492,392
491,494,492,494,370
490,493,491,492,375
492,493,493,492,387
491,492,490,493,422
490,492,491,492,481
490,493,491,493,543
492,493,490,492,615
490,493,493,494,634
491,492,491,492,625
493,495,491,492,577
492,494,491,493,473
491,493,492,493,409
491,493,491,493,373
490,494,492,492,370
490,492,492,494,379
490,493,492,493,397
489,493,491,493,447
490,492,491,492,507
491,492,491,491,579
491,491,491,495,630
492,492,490,493,628
491,492,491,493,613
491,492,491,495,531
492,494,491,492,436
491,493,492,492,394
492,492,493,492,372
491,494,491,492,374
492,494,491,492,384
491,494,492,494,416
490,492,490,492,471
491,492,492,494,534
490,491,491,494,608
490,492,492,494,634
491,494,493,493,626
491,492,490,492,584
491,495,492,493,485
491,493,491,492,416
491,493,490,492,378
492,494,491,492,369
491,492,491,493,378
491,493,491,491,390
490,492,492,492,442
491,493,491,493,500
491,492,491,492,567
489,493,492,493,627
491,493,491,494,630
490,493,489,492,618
489,493,493,494,543
492,493,491,493,446
491,493,491,492,398
490,493,492,495,375
492,493,490,492,373
490,494,491,493,381
490,494,492,492,411
491,494,491,492,465
490,493,492,493,524
491,493,492,493,603
492,492,490,494,634
491,494,492,494,627
490,493,492,494,592
491,494,492,493,499
491,493,492,493,419
490,493,492,493,384
490,495,491,491,371
490,492,492,493,378
492,493,490,493,388
492,492,490,492,433
490,492,491,492,494
490,493,490,493,556
489,492,490,491,625
491,493,492,492,634
491,494,492,491,622
492,495,493,491,561
491,493,491,494,456
491,493,490,491,402
490,493,493,493,372
492,492,491,494,371
490,492,491,493,381
490,493,492,492,407
492,492,492,493,458
491,493,491,493,517
490,493,490,493,596
492,494,490,492,633
492,493,492,493,628
492,492,491,494,607
491,495,492,494,511
491,493,492,493,426
491,492,491,493,389
490,493,492,493,370
490,494,492,492,377
491,492,491,494,385
492,495,490,492,426
490,492,492,492,484
491,493,490,492,547
491,492,490,493,615
491,492,492,492,635
492,493,492,493,623
490,493,490,492,571
490,494,492,493,468
491,493,491,493,408
491,494,491,492,375
490,492,492,494,371
492,492,491,492,380
491,494,491,494,399
490,491,490,493,451
490,492,491,493,509
490,493,492,494,583
490,491,490,493,630
491,494,491,491,629
490,493,493,493,615
493,494,490,492,525
492,493,491,492,433
491,493,491,492,395
491,494,492,494,370
490,494,491,492,375
490,493,492,493,386
490,494,492,492,419
490,494,492,492,475
491,492,491,493,538
492,492,490,494,611
489,493,491,493,633
491,492,492,494,623
490,492,491,494,579
490,493,491,493,482
492,493,491,493,412
491,493,491,493,379
490,494,493,492,372
492,494,490,492,379
492,494,491,492,394
492,492,491,493,445
490,492,491,493,502
490,493,491,492,573
490,492,492,494,629
490,493,492,493,631
491,495,493,492,619
491,492,492,494,540
492,494,492,494,441
491,492,491,492,397
492,493,491,492,370
492,492,491,493,372
490,492,492,492,385
492,493,492,494,411
492,493,491,492,469
490,492,492,493,529
490,493,491,491,606
490,494,491,492,634
489,493,492,493,626
491,492,493,493,589
490,492,492,494,494
492,493,491,493,416
491,493,492,493,382
490,492,493,494,371
492,492,491,494,378
491,494,491,494,388
489,491,491,492,438
491,493,491,492,496
492,493,491,493,559
491,492,493,493,626
492,492,492,494,632
492,493,491,493,621
490,493,493,494,553
491,494,492,492,451
491,493,492,492,401
490,492,491,492,374
492,494,492,493,372
490,492,490,493,380
491,492,490,493,405
490,492,491,493,460
490,493,491,493,522
490,492,491,493,598
492,493,490,492,635
491,494,491,492,629
491,494,490,491,601
492,495,490,492,507
491,494,493,493,423
490,493,491,493,385
491,495,493,492,370
490,492,491,494,376
490,493,492,492,386
489,493,493,492,429
491,492,490,492,488
491,494,491,494,550
489,493,490,492,622
492,492,490,494,632
491,492,491,494,621
490,495,492,492,570
490,493,492,493,464
491,493,491,494,407
490,493,492,492,374
490,494,492,491,372
492,494,491,494,380
489,493,490,492,403
493,494,492,493,453
491,492,491,493,513
491,492,491,493,586
490,492,491,494,630
490,493,493,493,629
492,491,490,492,611
491,495,491,494,520
491,494,492,493,431
492,494,490,492,392
493,494,490,492,371
492,494,492,492,377
490,493,491,493,385
492,495,490,495,422
490,493,491,493,479
491,493,492,492,541
490,494,492,494,613
490,493,490,492,635
492,494,493,493,625
492,492,491,493,578
492,492,491,493,476
492,493,491,493,410
491,494,492,492,376
490,492,492,492,370
491,492,493,492,381
491,494,492,491,400
492,495,491,492,446
491,493,491,492,505
491,493,492,493,576
492,492,490,492,629
491,493,491,494,630
489,492,492,493,615
490,493,493,493,533
491,494,493,492,438
491,493,492,492,396
492,493,492,494,368
492,494,490,492,374
492,492,490,492,382
491,492,490,493,412
491,494,492,492,471
491,493,491,492,532
492,493,493,493,609
490,493,492,493,636
492,495,492,492,627
492,495,493,495,584
490,494,491,493,490
491,493,492,493,415
491,492,491,493,379
491,491,491,493,370
490,492,492,493,377
490,493,492,492,393
492,493,492,492,439
490,493,491,492,498
490,493,491,492,567
491,494,490,491,627
492,494,490,492,631
491,494,493,492,619
492,492,490,492,548
492,494,492,494,449
490,493,491,493,400
491,493,493,493,371
490,493,491,493,372
490,494,492,492,383
490,493,492,494,410
491,493,491,492,465
491,493,491,492,523
491,493,491,494,602
491,495,492,495,633
490,494,491,493,626
492,495,494,493,597
490,495,492,492,503
491,494,492,492,420
491,493,491,492,386
489,493,492,495,370
492,492,490,491,377
491,495,492,494,387
490,491,491,494,432
490,492,491,493,490
490,493,491,493,554
491,493,492,492,623
490,492,491,493,634
491,493,490,493,622
492,494,490,492,563
492,494,491,492,459
491,493,493,493,404
491,491,491,491,374
492,490,492,494,372
490,489,494,493,382
491,491,491,492,404
490,488,491,494,455
491,489,491,493,515
490,491,492,492,591
492,493,490,494,632
491,495,491,494,628
490,496,491,494,605
490,495,491,492,517
491,495,492,493,428
492,495,491,493,391
491,495,492,492,373
491,495,490,492,375
492,494,490,492,386
490,494,493,492,424
491,493,491,492,482
490,493,491,493,546
489,492,491,494,615
490,493,492,493,634
490,492,491,494,623
491,494,492,492,572
491,494,492,493,472
491,494,492,493,410
491,493,491,493,375
493,493,491,492,372
491,494,492,494,379
490,494,491,491,400
489,493,493,493,450
490,492,491,493,509
491,493,491,491,581
491,495,491,492,630
490,493,492,493,631
492,492,493,492,615
491,491,491,495,527
491,490,491,493,436
492,488,491,493,393
490,488,489,492,373
490,488,492,492,373
491,488,491,492,385
491,492,491,492,419
492,492,491,492,474
491,495,490,493,536
490,497,490,493,610
491,498,491,491,634
490,496,493,493,625
490,495,493,494,583
490,495,492,493,484
492,494,492,493,415
491,494,491,494,377
490,492,491,493,370
492,492,491,494,379
491,491,491,494,393
491,491,490,493,441
490,494,491,492,502
490,494,491,493,569
492,494,490,492,629
491,496,491,492,633
492,495,490,492,619
493,496,491,494,542
491,494,491,493,445
491,495,492,492,398
491,493,492,493,370
490,493,492,493,374
490,494,491,492,383
491,492,491,493,413
491,494,491,493,466
491,493,491,492,527
491,493,490,492,604
492,493,490,493,633
491,493,491,491,627
491,492,492,495,590
493,495,491,492,496
491,493,492,492,418
490,493,492,493,385
491,494,492,491,371
492,494,491,493,376
490,493,490,493,389
492,493,492,492,435
491,491,491,493,495
491,491,491,494,558
490,490,492,494,622
491,491,491,494,635
491,492,491,494,619
490,490,492,492,558
492,492,492,493,457
491,491,491,492,403
492,491,493,492,373
490,491,491,495,371
492,493,491,492,380
490,493,493,494,406
490,493,492,493,460
490,494,491,492,518
490,493,491,491,597
491,495,491,493,632
490,494,492,493,627
491,492,491,493,602
492,492,492,493,511
492,493,491,492,424
491,494,492,492,389
490,494,492,492,371
493,493,492,491,378
490,493,491,492,389
491,493,491,492,428
492,492,492,493,485
490,491,491,493,549
491,492,491,491,617
490,492,493,494,633
490,493,493,494,624
491,494,493,493,568
491,494,492,493,467
491,494,491,493,406
491,495,491,492,374
492,494,491,493,372
491,491,491,493,379
491,493,492,491,403
489,490,492,494,454
492,492,491,493,511
490,492,492,492,586
489,493,493,492,633
491,491,491,492,629
492,490,492,493,611
490,489,490,493,523
492,490,493,492,431
491,489,492,494,393
490,489,491,495,371
491,491,492,492,375
492,495,491,492,387
491,498,489,493,419
490,496,491,492,479
490,495,491,492,540
492,495,490,492,613
493,495,491,492,635
490,494,492,494,626
493,495,491,494,579
490,494,493,494,479
490,494,492,493,412
491,495,492,493,375
491,493,491,492,372
492,494,492,494,379
492,494,491,493,395
492,494,491,493,445
491,493,491,492,504
491,494,491,493,573
492,494,490,494,630
490,494,490,493,629
490,495,491,492,618
491,494,492,492,538
492,492,491,492,441
492,490,492,493,396
492,488,492,494,373
491,490,491,495,372
491,484,493,495,384
490,483,493,495,414
490,486,492,494,469
491,486,492,493,531
491,487,491,494,606
492,492,491,493,633
492,493,491,493,626
490,499,491,493,586
492,502,492,492,492
491,498,492,492,417
492,496,492,492,381
490,495,494,492,371
490,495,491,492,379
492,492,491,492,391
493,487,493,493,436
491,486,492,493,496
491,488,491,493,560
490,488,491,494,624
490,491,492,493,633
490,495,492,493,618
492,499,493,492,553
492,503,491,493,451
491,504,492,492,401
492,500,491,492,372
493,496,491,493,371
491,495,492,491,380
489,493,492,491,409
493,493,492,493,461
490,493,492,493,520
491,493,495,491,600
491,495,492,494,631
490,488,491,494,627
491,494,492,494,596
492,491,492,495,504
492,489,492,494,421
491,487,493,494,387
490,489,492,492,371
492,491,492,492,379
491,492,490,493,386
491,496,492,491,432
491,493,491,491,489
491,488,490,491,551
490,484,493,492,620
491,482,491,491,633
493,484,492,493,621
491,484,494,494,566
491,488,493,494,463
491,493,491,493,405
490,497,492,492,375
489,495,491,494,371
492,493,490,493,379
491,494,490,492,401
490,494,491,492,456
491,496,492,492,514
490,497,490,493,589
492,499,492,492,633
491,501,492,492,630
492,500,490,493,612
494,498,491,494,519
493,495,491,495,429
494,492,492,494,392
494,493,491,495,369
491,490,494,494,376
490,491,492,493,387
490,494,489,492,421
489,496,492,492,481
490,494,491,493,544
491,491,490,491,614
492,490,491,493,633
491,489,491,493,624
492,490,494,494,574
489,490,491,493,475
492,492,492,494,409
491,492,493,493,377
490,489,492,492,372
493,489,492,495,378
495,488,491,493,399
492,486,492,493,447
490,485,491,493,505
487,492,491,493,576
487,494,492,494,630
490,496,491,494,630
490,499,493,493,619
490,499,492,495,533
492,500,492,492,438
491,498,491,492,397
492,496,490,493,373
491,492,491,494,373
491,481,491,492,385
494,481,493,494,415
492,481,493,493,472
491,484,492,493,534
491,486,490,494,607
491,493,492,492,635
490,497,493,492,625
491,497,490,492,583
490,496,491,493,487
491,497,492,492,416
492,497,493,494,378
491,494,490,493,370
492,493,493,492,378
491,495,491,492,394
493,496,491,492,441
494,496,491,492,499
493,496,493,493,564
493,492,494,492,629
494,496,493,494,630
491,495,495,494,620
489,494,494,493,547
490,492,492,492,446
490,491,493,493,398
490,491,491,492,373
493,492,490,493,371
492,489,491,493,381
492,488,491,492,410
492,487,492,493,464
492,486,491,493,524
491,487,493,493,602
489,488,493,493,635
490,490,492,493,628
490,495,492,495,594
492,496,491,494,500
491,495,491,493,418
491,492,492,492,383
490,489,491,493,370
490,484,493,493,377
491,483,491,491,387
489,489,493,492,433
490,496,491,491,492
490,493,491,492,557
491,496,489,491,623
491,493,490,493,634
492,494,492,495,620
491,494,492,493,562
491,493,494,494,457
492,497,493,494,405
490,498,493,493,374
489,496,491,494,373
491,497,491,493,381
491,495,491,491,405
493,491,491,493,456
490,481,491,493,516
490,481,491,491,593
491,487,492,493,631
491,494,490,493,630
490,499,492,492,605
491,500,493,492,514
492,498,493,493,426
493,495,491,493,388
492,493,491,492,372
494,495,492,492,377
494,490,491,494,384
494,481,492,494,425
493,475,491,493,482
494,474,491,492,547
492,477,493,493,618
493,486,492,492,634
490,492,491,491,624
489,499,492,492,575
490,498,493,493,468
490,497,493,492,408
489,497,493,493,372
491,491,492,492,369
490,494,491,494,378
489,497,490,495,402
491,491,489,493,449
490,478,492,492,510
492,471,492,491,582
491,474,493,492,630
493,479,493,493,630
494,489,491,492,615
491,499,493,493,525
491,490,491,493,434
490,493,491,493,391
488,491,492,494,369
489,491,493,494,375
489,488,490,493,383
492,482,494,492,419
491,480,491,492,476
492,486,492,491,537
491,497,491,492,613
491,508,491,493,635
490,510,492,493,623
493,506,493,491,584
493,508,490,492,480
496,503,491,492,412
497,497,494,494,378
497,493,491,492,370
496,490,494,492,378
490,483,492,491,395
488,487,490,491,442
488,490,494,492,501
488,495,492,492,571
490,496,492,494,627
489,490,491,493,629
489,492,491,492,616
489,486,492,495,539
490,485,493,495,443
491,482,493,493,398
492,478,491,494,372
489,486,491,495,373
487,490,491,492,383
489,496,491,493,412
489,499,492,493,468
487,496,492,493,527
487,490,491,492,607
492,488,492,494,633
494,489,495,493,626
492,487,493,494,589
490,485,493,493,495
492,489,493,492,416
490,493,491,493,381
492,496,492,491,370
492,503,490,492,377
491,498,491,492,390
491,485,489,492,435
490,483,491,492,493
492,477,492,492,560
490,478,491,493,621
490,480,493,494,631
490,484,494,494,622
490,493,491,492,554
492,494,495,494,454
493,493,493,494,403
495,502,493,491,373
495,504,492,491,372
494,489,490,492,381
489,493,485,491,404
489,497,489,491,460
495,490,492,492,517
496,487,493,493,595
493,490,492,493,633
493,495,490,493,629
490,505,492,495,599
484,506,493,493,509
487,500,495,492,422
490,494,492,492,387
491,488,491,492,370
491,479,493,491,376
489,471,492,492,387
490,475,491,493,428
491,474,493,493,485
494,477,493,493,550
494,483,492,491,619
497,487,494,490,634
495,490,498,492,622
495,503,491,492,570
495,518,491,492,466
492,513,492,492,407
492,505,494,491,369
494,494,494,492,371
494,493,492,494,380
492,489,493,494,400
491,486,493,494,452
489,474,492,492,510
490,468,493,491,585
490,462,493,495,632
492,479,492,493,629
490,492,491,492,610
490,496,492,492,522
489,501,491,491,431
490,501,492,492,392
492,507,493,491,374
494,515,493,492,376
494,512,493,491,386
493,504,492,492,422
491,493,490,493,477
491,484,492,493,540
488,474,490,492,612
490,476,492,493,632
490,481,493,494,623
489,496,492,493,581
495,500,493,493,477
492,501,491,492,411
491,496,492,492,376
490,488,494,490,370
491,480,493,489,376
492,475,494,491,395
495,475,494,491,445
491,482,491,493,505
491,487,491,494,573
487,504,493,495,629
486,507,493,494,633
490,507,492,494,619
490,503,493,495,533
491,490,494,494,440
492,485,494,494,395
493,487,494,494,372
496,488,492,493,376
497,503,493,494,383
496,507,491,491,415
494,502,491,491,470
495,498,493,491,531
493,497,493,490,606
490,468,493,490,632
487,465,494,492,625
487,464,492,492,584
490,481,494,495,490
488,512,495,495,417
486,517,493,492,383
487,514,492,493,370
490,505,491,492,380
491,499,489,492,393
493,490,491,491,437
491,476,491,491,497
492,475,493,492,563
493,474,492,493,623
492,481,494,493,632
490,495,495,493,620
490,500,496,492,549
489,512,494,493,450
491,509,490,492,399
492,502,492,494,370
491,496,491,493,371
493,494,490,492,380
493,485,491,493,405
492,477,492,492,464
493,476,492,494,522
490,459,493,493,600
489,463,494,493,635
492,486,492,494,629
492,501,491,495,597
491,513,490,492,504
492,517,493,492,421
491,509,492,491,385
488,503,491,493,368
489,500,491,491,377
492,499,493,491,386
494,494,491,491,431
493,490,492,493,490
491,476,492,493,554
493,468,491,492,620
492,469,492,494,632
491,479,492,493,624
491,503,494,495,566
493,504,491,492,461
490,506,493,492,405
490,497,493,491,373
489,486,491,495,371
487,478,491,492,379
493,476,494,492,405
496,481,491,492,456
500,496,493,492,515
496,506,491,492,590
496,517,491,492,633
495,515,492,493,628
491,499,491,492,610
492,498,492,493,516
488,479,492,493,427
489,477,492,494,390
489,484,496,495,373
490,497,496,495,378
489,499,495,493,387
486,506,493,490,425
487,514,491,490,480
488,489,491,492,543
491,485,492,491,617
493,476,494,493,634
493,466,493,493,622
494,463,493,494,572
493,476,494,494,473
490,499,492,492,409
491,518,490,492,375
491,527,491,492,373
490,516,489,492,380
491,498,490,491,400
492,490,493,493,448
490,487,492,492,506
491,488,493,492,578
493,490,491,493,629
494,497,493,492,629
494,500,494,492,615
493,493,495,493,528
492,492,494,492,435
492,485,493,493,393
493,477,493,491,370
494,467,491,493,371
494,474,493,496,383
494,488,493,494,416
491,487,491,495,475
488,495,489,494,537
488,511,491,493,612
490,523,490,489,634
493,505,491,491,624
492,505,491,491,583
490,502,493,492,483
491,491,493,493,412
491,478,493,493,375
490,463,492,491,369
493,455,492,492,378
492,475,493,494,391
491,503,491,493,443
491,526,489,492,501
489,521,490,492,567
490,504,490,492,626
486,483,490,490,628
487,482,490,491,618
494,492,496,497,543
492,493,494,496,446
492,493,494,494,399
492,496,492,495,371
494,493,493,492,373
494,486,494,493,383
494,497,490,493,410
492,506,491,493,465
489,492,491,493,527
490,505,489,493,603
489,506,492,492,633
490,502,493,491,629
492,497,492,490,593
494,486,492,489,497
492,475,493,492,416
493,472,491,492,382
494,479,494,493,368
493,483,493,494,376
493,496,492,493,389
493,501,494,493,434
494,497,491,493,493
494,498,491,490,558
490,497,491,494,625
490,493,492,492,632
489,493,491,493,619
486,501,492,494,561
488,511,495,492,456
494,504,494,492,403
499,499,494,492,372
498,483,493,490,372
500,478,494,491,380
499,467,494,495,403
491,465,492,493,456
489,475,492,494,518
490,493,489,494,595
491,507,490,494,633
490,523,495,493,630
486,513,492,492,605
487,506,491,491,510
489,505,493,492,425
490,497,491,491,389
492,479,490,492,370
492,473,492,494,377
491,463,494,495,385
493,474,494,494,430
494,494,492,495,487
492,500,491,493,550
489,510,492,491,619
488,507,490,491,633
489,507,488,490,622
489,506,493,491,573
494,500,492,493,467
492,489,491,492,407
491,491,493,493,375
491,494,492,494,370
491,496,492,491,379
490,503,493,490,401
491,479,491,489,450
491,490,492,493,510
494,498,493,495,585
501,500,489,492,632
501,495,490,493,628
497,489,491,494,610
488,481,490,494,523
485,488,492,493,432
488,485,495,493,392
490,493,493,492,369
496,495,491,491,376
496,493,491,492,385
496,492,491,492,418
492,483,492,494,477
489,490,491,495,538
488,502,490,492,614
484,501,489,494,637
493,515,491,491,627
503,500,492,490,582
509,495,494,493,481
511,489,496,493,410
499,479,494,494,376
497,476,491,494,369
499,481,492,495,377
496,493,492,494,398
489,498,490,494,444
487,497,491,492,504
487,505,491,490,573
485,502,491,490,629
485,498,491,490,630
488,495,492,492,618
495,491,490,492,536
497,499,495,492,441
492,496,491,492,395
490,496,491,493,369
493,494,494,493,374
499,484,492,494,384
494,479,492,494,409
490,462,492,493,470
490,479,490,493,529
490,501,491,493,605
491,514,493,494,636
489,533,493,497,628
491,532,489,492,589
489,522,492,493,494
491,495,491,491,415
491,476,492,491,379
493,492,492,490,372
503,490,492,489,377
500,481,491,488,387
498,475,490,490,436
504,479,492,492,495
503,486,494,494,561
508,497,491,492,626
496,502,491,494,629
482,496,492,492,621
481,487,494,491,552
488,474,495,492,450
487,461,493,493,399
486,458,493,495,370
488,487,492,494,373
489,515,490,495,384
492,533,491,494,408
492,522,488,491,462
495,507,489,490,521
500,501,492,491,597
497,494,495,491,634
498,489,493,491,626
490,489,490,492,596
481,491,493,493,507
492,493,492,493,422
497,485,492,494,387
495,494,495,496,372
495,496,490,492,378
494,496,490,491,388
488,492,492,493,427
484,484,490,490,487
492,481,492,491,551
500,479,493,491,619
497,494,491,493,632
491,507,492,495,622
487,500,491,494,568
487,506,491,493,462
491,489,491,495,406
490,501,491,494,374
492,500,490,494,371
497,512,493,496,383
494,519,491,494,405
491,499,490,490,452
489,484,492,491,512
488,486,493,491,587
492,483,493,491,630
499,485,492,491,630
501,487,493,492,607
494,489,491,491,518
484,488,491,492,429
490,489,491,491,389
492,497,491,493,373
495,505,491,493,375
496,498,490,492,384
496,494,492,491,422
488,489,492,493,478
489,480,491,492,540
492,469,491,495,613
493,473,491,494,634
493,490,495,494,623
489,500,491,494,576
487,509,492,492,475
489,504,492,490,410
492,492,493,492,377
498,491,492,494,370
505,494,492,492,381
509,490,492,492,399
508,495,490,492,447
499,491,492,492,506
494,497,491,490,578
486,495,491,492,627
478,482,493,493,630
484,484,493,493,617
488,489,492,495,533
492,496,491,496,439
490,512,488,493,394
484,501,492,489,369
485,502,494,489,372
487,501,494,490,381
491,497,490,489,414
495,493,490,492,470
493,488,492,493,531
488,489,493,492,610
488,495,491,493,634
492,500,491,493,625
495,505,493,492,584
490,500,491,490,486
489,500,492,492,412
487,500,492,493,378
487,486,492,493,370
490,491,491,493,376
490,490,491,493,394
490,483,491,495,440
493,483,491,494,499
495,487,491,493,566
493,484,491,491,625
492,481,493,489,632
491,482,493,492,618
487,483,492,491,545
488,497,496,493,448
490,510,491,492,400
491,504,491,491,372
490,497,492,492,372
492,494,491,491,382
491,491,491,492,406
488,497,490,494,464
489,496,492,494,523
491,497,492,493,602
493,498,494,494,636
494,492,493,495,629
492,490,489,492,596
491,487,491,492,502
489,487,492,492,419
488,492,494,493,383
488,499,492,493,372
489,498,492,494,375
489,490,492,495,391
488,503,492,493,434
488,496,490,492,490
490,488,491,489,556
496,472,494,491,620
499,483,492,494,632
493,494,491,494,621
487,508,490,493,561
489,514,491,491,460
491,513,493,492,404
492,490,491,491,371
492,483,492,489,372
493,486,491,490,381
491,489,491,490,401
487,491,493,493,457
488,491,491,493,515
489,487,491,494,591
489,487,491,494,632
491,493,492,494,630
492,500,491,493,605
489,498,491,492,514
489,496,489,492,426
490,496,490,492,390
492,499,491,491,373
494,491,491,492,375
494,484,493,491,386
493,490,491,494,425
492,495,490,491,482
486,498,491,494,546
485,495,492,493,617
488,494,491,491,631
489,490,493,491,624
491,492,492,494,572
485,498,491,493,469
492,495,492,492,409
496,492,491,494,373
496,496,491,492,372
496,493,493,493,380
497,487,490,490,399
491,481,492,491,449
492,476,491,492,508
496,476,488,494,580
492,494,488,493,630
486,508,491,492,631
487,505,492,493,613
491,504,494,494,528
494,499,493,492,435
495,494,493,492,394
495,495,491,491,373
491,494,492,492,373
488,485,491,491,383
490,480,490,492,417
489,471,491,492,475
489,491,492,492,536
488,500,491,492,613
490,506,489,492,634
490,495,491,492,626
491,495,492,492,583
494,493,493,493,481
496,483,492,492,413
492,479,493,494,377
492,481,493,494,368
491,492,494,495,378
490,502,492,494,393
491,509,488,490,442
490,503,490,490,502
491,503,491,489,570
492,502,492,491,628
495,496,491,491,631
495,495,490,491,617
494,494,494,493,541
491,494,493,493,443
493,494,494,493,395
494,493,492,495,370
494,496,492,494,374
493,493,491,493,381
496,493,492,492,413
496,492,491,494,467
494,485,494,492,527
491,484,490,491,604
491,482,489,493,632
488,491,491,491,626
486,499,492,490,592
489,496,492,493,494
487,494,492,493,417
486,494,491,492,384
489,497,488,491,368
489,491,489,489,376
489,488,492,490,386
493,481,491,492,433
491,480,492,492,494
491,486,492,494,559
489,493,492,492,625
494,500,492,492,634
497,499,491,493,620
499,508,494,492,556
496,505,493,492,455
496,498,492,492,401
494,492,493,492,370
494,491,492,491,372
489,490,492,493,379
487,490,493,494,404
488,488,493,494,460
490,494,491,493,518
491,492,491,492,598
489,481,489,494,634
491,486,491,493,628
492,487,490,494,602
492,498,489,494,511
492,507,491,492,423
493,505,490,490,389
493,499,491,492,369
491,497,492,492,377
491,494,493,491,386
489,493,491,490,428
490,491,490,492,486
491,494,490,492,549
490,496,491,491,617
491,491,493,493,631
490,482,494,494,621
489,480,492,491,569
493,484,495,494,465
492,500,494,493,407
492,507,492,492,373
494,498,490,491,371
492,493,489,490,379
489,483,493,491,399
490,492,491,492,452
488,496,490,491,510
485,498,490,494,584
485,499,491,494,632
489,497,490,493,627
490,492,493,493,610
491,481,492,494,523
492,486,493,493,430
493,479,492,493,392
493,493,491,492,372
492,509,491,491,376
490,503,491,491,384
491,497,490,489,420
490,492,492,492,476
492,492,491,492,541
494,492,492,491,611
494,490,495,492,634
495,488,494,493,626
492,491,491,493,576
489,489,492,493,477
488,490,492,494,411
488,496,490,492,377
487,502,493,493,370
489,504,491,492,380
491,502,492,491,398
493,498,491,492,446
491,492,490,493,504
490,495,490,493,572
491,494,492,493,631
489,491,492,494,630
490,489,494,493,617
491,488,493,494,536
490,489,492,494,440
490,492,493,493,396
490,494,492,495,370
490,490,490,492,373
490,490,491,491,383
491,493,491,490,413
490,501,491,491,470
489,492,491,493,532
491,496,490,493,608
489,499,492,493,635
490,502,493,492,628
490,500,492,495,585
489,489,491,492,489
491,486,492,493,416
492,495,491,492,379
490,495,489,492,369
489,494,491,493,377
492,494,490,492,389
489,491,493,493,439
489,490,492,493,498
489,490,492,492,563
489,486,494,492,627
490,487,491,493,632
491,494,493,493,620
490,498,490,493,551
490,506,492,493,449
491,500,492,493,399
490,490,493,494,370
489,488,491,492,372
491,492,492,492,383
491,492,489,492,406
492,497,490,491,463
492,497,492,492,522
491,500,490,492,599
489,499,493,492,631
488,492,493,492,628
490,494,492,495,594
488,493,493,493,503
489,492,492,493,420
490,492,491,493,385
490,494,492,492,371
488,493,492,494,378
491,496,489,491,387
491,495,489,492,430
490,493,490,492,489
489,493,490,492,554
489,494,493,493,620
489,492,490,493,633
490,491,492,491,622
491,490,493,492,565
491,491,492,493,462
491,493,492,493,404
491,496,492,494,373
489,498,490,493,370
490,500,491,493,378
488,501,492,495,403
488,501,490,492,456
490,493,491,492,514
490,487,491,494,593
490,494,491,492,633
491,494,491,493,629
492,494,490,494,609
490,494,492,493,517
490,494,491,493,429
490,493,492,493,390
490,493,494,494,370
490,494,495,493,377
490,494,494,492,387
490,492,490,493,425
490,494,492,493,482
490,492,491,492,545
491,493,490,491,615
491,492,491,493,632
490,492,492,491,625
492,492,492,495,574
492,494,492,494,472
491,494,492,494,409
492,496,492,493,375
491,496,492,493,371
492,494,492,493,379
493,493,493,494,400
491,495,493,494,448
492,496,495,494,508
491,497,493,495,578
489,493,488,491,631
490,496,494,493,630
491,493,497,492,619
491,496,496,492,531
491,494,493,493,435
491,495,492,493,395
491,494,491,493,372
491,492,489,494,372
491,492,494,492,384
489,490,492,494,415
489,485,492,493,473
490,491,491,494,535
490,494,488,491,612
489,496,491,492,634
489,492,489,491,625
492,496,491,491,584
493,498,493,493,486
491,499,494,493,415
491,496,494,494,380
492,497,493,494,371
490,494,493,493,379
490,496,492,494,394
489,498,493,496,441
489,494,493,493,501
490,494,493,494,568
492,491,488,493,628
492,495,489,494,632
492,496,493,494,619
493,495,494,494,546
495,497,493,493,446
493,500,491,493,399
491,501,491,492,373
489,492,490,492,372
490,488,491,493,382
490,492,492,493,411
489,493,491,493,466
488,493,492,493,526
489,492,491,494,601
488,491,492,494,634
489,494,492,494,627
490,494,490,493,594
491,496,490,496,499
492,498,491,494,420
494,497,495,493,384
496,496,493,494,370
494,495,493,492,376
494,494,500,492,390
495,493,501,494,436
491,491,497,493,492
490,492,493,492,558
488,494,493,493,624
489,494,487,493,632
490,495,487,494,623
489,495,494,494,557
490,495,494,493,455
490,492,491,494,402
489,492,487,493,374
491,495,489,493,372
490,493,491,494,380
490,494,493,492,407
491,496,489,492,458
490,494,491,492,517
490,495,493,493,594
491,497,491,492,634
491,499,492,494,629
489,497,493,494,604
491,496,494,494,512
490,496,491,493,426
490,494,491,492,389
489,489,491,495,372
491,491,488,493,377
491,490,489,493,386
491,492,490,494,427
490,491,492,492,487
490,494,494,493,548
490,493,493,493,620
490,494,493,492,635
492,495,494,492,625
492,496,497,492,574
489,493,493,493,468
490,493,489,494,408
489,492,492,493,373
490,492,489,493,370
489,493,494,494,381
489,494,494,492,402
492,494,496,492,452
490,493,490,493,513
489,496,492,492,586
491,494,495,492,631
491,498,496,494,632
490,497,493,494,611
490,494,499,492,527
491,496,494,494,433
490,494,488,493,394
490,495,492,494,372
490,497,493,492,377
489,495,491,494,385
492,497,489,494,420
490,490,492,492,478
490,487,489,494,537
490,488,491,495,611
490,493,492,492,636
492,496,495,494,626
491,493,492,494,583
490,497,492,493,482
490,497,490,493,412
491,496,491,493,378
489,493,495,493,370
491,494,496,492,380
491,496,498,494,395
491,496,495,494,444
490,492,493,493,503
489,492,493,492,572
490,493,493,493,627
489,493,499,493,633
492,496,501,493,620
492,494,497,493,538
492,492,488,493,443
490,492,484,493,398
491,492,485,494,370
491,493,485,493,375
489,492,489,493,384
489,495,492,492,413
489,494,489,493,468
489,493,488,493,529
490,492,492,494,607
488,492,491,495,634
491,493,488,495,625
490,494,490,495,587
489,496,491,493,495
490,493,488,493,417
491,492,490,493,383
490,494,493,492,372
491,495,492,492,378
490,496,495,495,391
489,494,500,493,437
491,493,506,493,496
491,492,500,494,561
490,494,503,495,624
490,494,491,493,632
491,495,490,493,620
491,494,487,492,554
492,496,490,494,452
492,495,490,492,402
492,495,486,492,372
492,495,489,494,371
489,496,489,493,383
490,495,491,495,408
492,496,490,494,462
490,493,491,494,520
491,492,492,492,599
490,495,493,495,633
489,495,490,493,628
492,496,492,494,599
493,495,490,494,507
493,496,491,494,421
492,493,490,494,386
493,490,490,492,372
490,489,491,494,376
491,491,493,492,390
488,494,493,492,432
490,493,491,493,487
490,493,491,493,552
491,493,492,494,621
492,494,490,494,634
490,494,492,495,621
489,491,491,495,566
490,494,492,494,462
490,494,492,493,406
490,492,492,492,374
490,492,492,495,370
492,493,490,493,381
492,493,491,493,402
492,490,491,493,453
490,494,490,493,514
489,493,492,492,589
490,493,494,494,633
490,495,491,493,631
491,496,491,492,611
491,496,491,496,520
491,495,490,493,430
490,493,491,493,390
493,491,489,493,372
493,493,490,494,375
492,493,492,494,385
492,492,492,492,424
493,493,492,493,480
489,492,492,493,542
490,494,491,492,617
491,494,491,492,634
490,494,490,493,624
488,494,492,494,576
490,494,490,493,475
490,494,491,494,411
490,492,495,494,376
490,493,491,493,371
491,495,491,494,379
491,494,493,492,399
490,492,493,494,449
490,493,491,494,508
491,493,490,493,576
490,493,490,494,631
490,494,489,495,631
489,494,490,493,617
493,494,494,494,534
491,494,494,494,438
490,494,494,492,396
490,495,495,492,373
490,493,496,493,374
491,493,494,492,384
490,494,491,494,414
491,492,483,493,471
491,493,488,494,532
490,492,489,493,610
492,493,491,493,636
491,492,490,494,628
490,493,492,492,588
491,495,492,493,488
491,495,493,492,415
489,493,493,493,380
490,492,493,492,371
491,493,492,494,379
489,492,492,494,393
489,493,493,493,440
489,492,494,493,501
490,494,490,492,565
489,493,491,492,629
491,493,492,493,632
491,492,493,494,619
491,493,491,494,546
490,493,491,494,450
491,493,491,494,400
491,493,490,493,374
489,493,493,492,375
491,494,489,492,384
491,494,490,492,408
489,493,492,493,466
491,493,491,493,524
490,492,491,495,602
490,492,490,494,634
490,493,492,494,628
490,492,491,493,596
491,493,493,493,500
493,494,493,494,421
491,494,492,493,387
491,494,489,492,371
491,493,491,493,378
489,494,491,494,388
489,495,491,492,435
489,493,491,494,494
490,493,492,494,558
490,494,493,493,624
491,494,492,492,633
489,493,492,494,623
492,495,493,495,561
490,494,492,493,460
491,493,492,492,404
491,492,491,494,371
490,496,491,493,375
490,494,492,493,381
491,493,491,493,407
489,494,492,493,459
490,493,491,492,517
490,494,491,495,592
488,492,490,493,633
491,494,492,492,630
490,492,492,495,605
490,492,492,495,515
490,494,492,493,428
491,494,492,494,392
490,494,493,493,371
490,492,492,492,378
491,494,491,492,388
492,493,489,492,426
490,493,490,493,483
490,493,493,493,548
490,492,491,494,619
491,495,490,494,635
490,494,493,493,625
491,495,492,493,575
490,496,491,494,469
491,494,490,493,409
490,494,493,494,374
492,494,491,494,371
490,492,491,494,379
489,493,491,495,398
491,494,491,493,451
490,492,490,493,510
491,493,491,494,583
490,494,492,493,632
491,494,491,492,630
492,494,494,494,613
489,494,492,493,528
491,495,493,493,434
491,492,492,494,394
489,493,491,495,372
490,494,492,494,376
490,494,494,493,384
491,493,492,492,421
490,493,491,493,475
490,494,492,493,539
491,494,490,493,612
492,494,491,494,633
491,495,493,493,626
490,493,492,492,584
492,495,494,494,484
490,494,492,494,414
490,494,491,493,380
490,494,491,494,370
489,493,491,492,381
490,494,490,494,395
492,494,493,493,443
490,493,492,493,502
491,493,491,494,570
490,495,492,495,629
489,493,490,493,631
491,494,493,493,620
490,495,494,493,542
492,495,492,493,445
491,495,492,493,398
490,493,493,495,374
493,493,490,492,374
491,495,491,495,381
490,492,491,495,410
490,493,491,493,466
491,493,491,493,527
491,494,494,493,607
491,493,493,495,635
492,494,492,494,628
492,494,491,493,591
492,494,492,493,496
491,494,493,493,419
491,493,492,492,384
491,493,492,495,370
489,493,493,493,379
490,494,492,493,390
489,492,491,494,435
490,494,492,493,495
490,492,490,492,559
491,493,491,493,625
491,492,490,494,631
490,492,491,494,619
489,492,492,493,558
492,494,492,495,455
491,494,491,492,402
490,494,493,492,374
490,494,493,493,374
492,495,492,492,381
489,493,494,492,407
492,493,492,493,460
489,494,492,493,519
490,493,491,495,596
490,492,492,494,633
490,493,492,494,628
491,495,494,493,600
491,492,492,493,510
491,494,493,494,425
491,494,491,492,390
492,494,490,494,371
490,494,491,494,376
490,494,491,492,389
490,492,492,494,429
490,493,493,494,487
491,492,492,493,551
490,494,493,492,618
491,492,492,492,635
492,493,492,494,622
490,493,491,493,569
492,494,491,494,467
492,494,490,493,406
491,494,493,493,375
490,492,493,495,372
492,493,492,493,381
491,494,495,493,405
490,493,493,492,454
491,494,492,493,511
490,493,490,493,586
492,494,492,494,632
491,493,492,495,629
490,493,493,495,611
490,493,493,495,524
492,494,493,493,432
490,493,493,493,392
491,492,493,492,374
491,494,492,493,376
492,492,490,493,386
492,492,492,492,420
491,494,492,493,479
490,493,491,493,542
492,494,491,494,614
489,493,493,494,636
490,494,493,492,626
492,495,493,494,576
491,493,492,494,479
492,493,492,494,411
491,493,492,494,376
492,492,491,493,370
490,492,492,494,379
492,494,491,493,398
490,493,493,493,447
491,493,491,493,506
490,493,491,493,577
491,494,492,491,631
492,494,493,494,632
491,492,493,495,617
491,495,494,493,533
491,494,492,494,440
491,493,492,494,398
490,493,492,495,372
489,493,494,494,373
491,492,492,493,386
491,492,492,495,413
492,493,492,492,473
491,493,491,493,532
492,492,490,492,607
490,493,492,492,634
490,492,492,492,627
493,493,495,496,586
490,494,494,494,491
491,494,493,493,417
491,494,492,494,379
490,495,492,493,372
490,493,493,493,378
492,493,491,493,391
492,492,491,494,440
490,492,491,493,499
491,494,492,494,564
490,493,491,493,627
492,494,493,493,634
492,495,493,493,622
492,495,492,492,553
493,494,492,493,450
491,493,493,494,401
491,493,490,492,373
490,494,492,494,371
489,492,492,494,383
490,492,492,496,409
490,493,491,493,464
492,492,492,494,523
490,492,491,494,601
491,495,492,492,635
491,493,491,493,628
492,492,491,492,596
490,494,495,495,504
492,493,492,493,422
491,493,493,494,385
490,492,493,495,372
490,493,493,493,378
491,492,492,494,386
490,495,492,492,432
490,493,491,492,491
491,493,492,493,554
491,492,491,493,622
491,492,492,494,633
490,493,492,492,622
492,492,493,496,565
492,493,492,493,460
490,494,493,493,406
491,494,493,492,375
491,494,494,491,370
489,493,492,493,381
492,493,492,493,404
490,492,491,494,455
490,493,491,494,514
490,492,491,494,590
490,494,491,493,632
490,493,493,493,629
491,492,492,492,610
491,495,493,493,518
491,494,492,494,430
491,494,491,493,390
490,493,492,493,371
491,494,492,492,378
490,493,492,494,385
489,492,493,495,425
490,493,492,493,482
490,493,493,493,543
490,492,492,492,619
491,493,492,494,634
490,493,491,494,623
492,492,492,494,575
492,493,492,493,473
492,493,492,493,411
490,493,491,495,377
492,494,490,493,371
490,492,492,493,381
490,494,492,493,401
491,494,491,493,447
490,493,491,493,509
491,492,492,493,579
491,492,492,493,628
490,492,493,494,629
490,492,493,494,616
492,494,491,493,530
490,493,492,493,437
491,493,492,493,395
491,494,491,492,373
491,494,489,493,375
493,493,491,493,384
492,494,496,493,417
491,491,494,494,475
491,493,492,493,534
490,493,493,495,610
490,493,494,494,636
491,494,494,495,623
491,492,493,493,586
492,492,493,494,485
492,494,493,493,414
491,493,491,493,380
492,492,490,494,370
491,494,492,492,377
490,492,493,492,396
492,493,493,493,441
490,493,492,493,500
489,493,492,493,569
490,494,490,494,625
490,494,490,493,632
490,493,492,493,617
492,493,492,494,542
492,493,493,494,448
491,493,492,494,399
490,492,493,492,374
492,493,493,493,375
491,491,491,494,382
491,494,493,492,412
491,493,492,493,467
491,493,491,492,525
490,493,494,493,602
491,492,492,493,636
492,495,492,495,626
490,494,494,496,592
490,494,493,495,500
491,493,492,493,419
491,493,493,493,386
490,492,492,495,372
492,493,490,493,377
492,493,491,494,389
492,492,491,493,436
490,494,492,493,493
490,492,491,493,559
491,492,492,494,623
490,494,493,493,633
490,494,493,492,623
491,494,492,492,560
490,493,492,494,457
491,493,492,494,403
490,493,491,493,371
492,492,491,494,371
489,492,492,495,381
490,493,491,491,407
492,493,493,494,459
491,492,491,493,517
490,493,494,492,595
491,494,492,493,634
491,493,490,494,629
490,494,493,494,603
491,492,493,493,513
491,493,492,493,424
491,492,494,494,389
490,492,493,495,372
490,492,490,493,375
490,494,493,493,387
490,491,491,492,430
492,493,492,493,485
491,493,491,493,549
491,492,490,493,619
492,492,493,492,635
491,493,492,495,623
492,493,491,492,570
490,494,493,494,468
491,493,492,493,409
491,494,492,492,372
491,492,491,492,373
492,493,492,494,381
491,492,491,493,400
491,492,491,494,451
490,493,491,493,512
491,494,490,492,584
489,491,494,495,633
492,493,491,493,632
492,495,492,492,615
492,495,490,493,527
491,494,493,493,433
490,493,493,492,393
491,494,495,494,373
491,492,492,494,373
489,492,493,494,384
489,492,493,495,420
490,492,492,494,477
491,493,492,493,540
490,494,491,494,612
491,494,491,492,634
492,493,490,493,625
491,492,491,493,582
493,495,493,493,481
491,493,492,494,414
491,493,491,494,377
490,493,493,493,371
490,494,493,493,381
491,494,492,494,394
491,492,492,492,446
491,492,492,493,504
491,493,491,493,572
491,492,491,494,629
490,492,493,495,631
492,494,490,493,618
490,493,494,493,539
492,493,494,493,442
491,494,492,493,398
491,495,493,492,374
491,494,491,492,375
492,493,492,493,382
492,492,491,493,414
490,493,492,493,469
491,493,491,493,527
490,492,492,495,606
490,492,492,493,634
491,492,493,492,628
491,491,492,494,588
491,494,494,493,493
491,495,492,493,418
491,494,491,493,384
490,492,492,494,368
490,490,491,492,381
491,495,492,493,389
490,493,493,493,437
490,493,493,493,498
491,494,492,494,560
491,495,492,492,627
490,493,492,495,634
492,493,490,494,619
492,493,489,494,552
492,493,490,494,453
492,493,489,493,402
492,494,496,494,372
490,493,493,493,373
491,494,494,492,382
491,494,495,492,409
491,494,492,492,463
491,492,491,494,521
491,492,491,494,600
490,493,491,494,633
491,492,492,494,627
490,492,493,495,599
490,493,491,493,508
492,494,492,494,422
491,493,491,494,388
491,495,493,492,371
491,494,491,492,376
492,493,491,493,388
489,492,493,493,429
491,492,493,493,489
491,493,491,494,552
490,493,491,495,618
489,493,493,494,635
491,495,493,493,624
491,493,491,495,569
492,494,493,494,464
491,494,491,493,405
491,493,491,493,371
492,493,491,494,371
490,492,491,492,382
492,493,492,494,402
492,493,490,493,455
490,493,491,493,513
490,494,492,492,588
491,494,491,493,631
490,493,492,493,628
491,492,493,492,612
490,492,490,494,518
492,494,492,493,430
490,493,492,494,392
490,494,491,492,373
490,494,493,492,374
491,492,491,492,387
492,495,491,491,423
492,494,491,493,479
491,494,491,494,542
491,492,493,493,615
490,493,492,495,633
492,494,491,493,624
490,494,494,495,576
490,494,494,494,475
491,493,492,493,411
490,492,491,492,376
491,495,491,495,370
490,493,490,492,379
492,493,492,494,396
492,492,492,494,446
490,493,492,493,507
491,492,492,494,577
491,492,491,494,632
490,495,492,492,630
491,494,492,492,617
491,495,494,495,532
491,494,491,493,437
492,493,492,493,396
491,492,490,493,370
490,492,491,494,372
490,492,494,494,384
490,493,493,495,415
492,492,491,493,471
490,494,492,494,532
490,494,492,492,610
492,495,491,493,634
492,493,492,494,625
492,495,494,493,587
492,492,492,494,489
492,494,492,494,415
492,494,493,493,380
491,493,493,493,371
492,494,493,494,378
492,492,492,491,395
493,492,492,494,439
491,493,491,493,499
491,493,491,493,564
491,492,491,493,626
489,494,491,492,630
489,493,493,493,619
494,495,494,495,546
493,494,493,494,448
493,494,493,493,399
491,494,493,493,375
490,493,491,494,372
490,493,491,493,382
488,494,494,494,408
489,492,491,493,463
490,493,492,494,523
489,492,493,493,603
491,493,493,494,635
491,492,492,495,627
493,494,491,492,596
496,495,492,493,502
497,494,493,493,422
498,493,493,493,384
500,492,492,493,372
500,494,492,494,378
494,492,493,493,388
489,492,493,493,433
490,492,491,493,491
487,493,491,492,555
485,492,492,496,625
488,493,491,494,632
489,491,491,494,621
490,493,490,494,562
491,493,491,494,461
491,494,490,494,404
491,494,490,493,375
490,492,494,493,374
491,494,492,492,382
491,494,492,492,407
490,492,491,494,458
489,493,492,492,516
488,493,491,494,592
491,492,491,494,631
490,493,493,495,629
489,493,491,493,609
492,494,494,494,516
491,493,492,493,427
490,494,492,492,392
491,495,492,492,373
491,494,491,493,378
489,493,492,493,386
491,492,493,492,427
490,492,491,493,484
490,492,491,493,545
489,492,492,494,616
489,494,493,493,636
491,492,491,494,624
492,494,493,496,573
489,492,493,492,472
491,494,490,492,409
491,493,491,494,375
492,493,492,492,373
491,493,492,494,380
492,493,492,492,401
489,493,493,492,450
490,493,492,492,509
489,494,492,492,580
490,492,491,492,631
492,493,494,493,632
491,492,492,494,614
492,492,492,494,527
491,494,492,493,435
490,494,492,493,396
490,493,493,494,372
491,493,492,493,377
491,494,492,492,386
491,495,491,491,419
491,494,491,493,475
490,493,493,494,537
490,492,491,493,609
490,494,492,493,634
490,492,492,494,625
489,493,493,495,581
490,494,493,494,484
491,493,491,493,413
490,494,493,494,377
490,495,491,492,372
492,493,490,493,378
491,492,492,493,393
491,495,492,493,445
491,493,491,493,502
490,493,491,494,571
489,493,493,494,629
491,494,492,493,632
491,495,492,496,618
490,492,493,493,542
492,494,493,494,444
490,493,491,493,398
491,492,490,493,371
491,493,492,494,373
489,492,493,495,385
492,493,490,494,411
489,493,492,493,469
491,492,492,493,528
491,494,492,491,605
490,494,491,493,634
491,493,492,494,628
492,492,491,493,591
490,494,493,495,495
491,493,492,493,417
490,493,492,494,382
490,493,492,492,370
492,491,493,492,379
490,492,492,494,388
491,494,491,492,437
491,493,491,493,494
491,494,492,493,558
490,493,494,493,624
490,492,492,493,633
492,494,493,495,622
490,493,493,495,557
491,494,492,493,453
490,493,494,493,403
490,492,493,495,371
491,494,491,492,372
489,493,494,493,381
490,492,489,493,404
491,493,489,493,459
491,493,489,493,521
491,493,491,494,596
490,493,490,494,634
491,494,495,492,630
491,494,495,492,604
492,496,494,493,510
491,494,493,494,424
492,493,491,492,388
490,494,491,494,371
490,492,493,494,376
490,493,493,493,387
489,493,491,493,429
491,493,492,493,487
491,493,492,494,552
491,494,492,492,621
492,493,491,493,633
492,493,491,493,622
491,492,492,493,573
492,494,493,494,465
491,494,492,493,408
491,492,494,493,374
491,492,495,492,372
491,495,492,492,381
489,492,491,495,404
492,494,490,494,451
490,492,491,493,513
491,491,491,493,584
491,492,491,494,630
490,492,491,493,631
491,493,493,493,612
492,493,492,494,524
491,493,493,493,433
490,494,491,492,394
492,494,492,491,371
490,493,492,493,375
491,493,491,492,386
491,492,491,495,421
490,493,491,494,478
491,493,493,493,540
490,493,494,494,614
491,492,492,494,635
492,494,492,495,624
490,494,492,493,581
493,493,492,493,479
492,494,492,493,412
491,493,492,493,379
491,492,491,494,370
492,494,491,493,380
490,493,492,493,398
490,494,493,492,446
490,494,493,493,504
490,492,492,492,574
492,493,492,494,629
490,493,492,494,630
491,491,491,494,616
491,492,490,495,535
490,494,494,493,443
491,493,494,493,396
492,493,491,493,373
490,494,492,492,376
491,494,491,492,384
492,493,490,492,413
492,492,492,493,470
490,493,491,493,529
491,494,491,492,607
490,492,492,494,635
490,494,492,493,627
492,495,493,493,586
491,492,493,493,492
492,494,493,493,415
490,493,492,493,384
492,493,490,493,370
492,492,492,494,378
490,494,492,492,395
489,492,492,494,439
492,493,491,493,498
490,492,493,493,565
490,493,492,492,627
492,494,491,494,631
489,493,490,493,620
492,493,494,493,550
492,493,492,493,451
490,493,491,493,400
490,493,492,494,371
490,493,492,494,374
492,493,489,492,383
491,494,489,494,406
490,494,493,492,465
491,493,492,492,523
492,493,491,492,599
492,494,495,493,636
491,492,493,494,629
492,494,492,495,597
490,493,494,494,506
491,493,492,493,421
490,494,493,493,386
490,492,493,492,373
492,493,493,493,377
492,493,491,493,388
492,492,490,493,431
491,493,491,492,488
490,493,492,493,555
490,492,491,492,623
492,493,493,493,635
490,494,493,492,624
491,495,493,491,566
492,495,492,492,462
490,493,492,494,405
492,493,491,493,372
490,494,493,495,371
489,492,493,494,381
490,493,492,495,403
490,493,493,492,456
491,493,491,494,515
491,492,492,494,589
491,494,494,493,634
492,493,490,494,629
492,492,491,494,608
490,495,493,493,518
491,493,493,493,429
491,494,494,494,391
490,494,493,495,372
490,494,492,492,378
491,495,493,495,385
490,495,492,492,426
491,493,492,493,482
492,494,492,494,545
491,492,490,493,616
491,493,492,494,633
490,493,493,493,626
492,493,494,495,577
491,494,492,493,474
491,494,492,494,412
491,494,492,492,377
491,496,492,493,372
490,494,494,494,380
492,493,492,493,400
490,495,492,494,448
490,493,492,494,508
491,493,492,494,578
490,493,491,493,630
491,494,493,493,633
491,493,492,496,618
492,495,491,493,532
492,494,492,493,437
492,494,493,493,396
491,494,494,494,371
491,492,492,492,375
492,493,494,494,384
489,493,493,494,417
490,493,493,493,472
491,493,493,493,534
490,492,492,495,612
492,494,491,494,634
490,494,492,494,625
491,492,491,494,583
492,493,491,494,486
492,494,492,493,416
491,493,492,494,380
492,494,492,493,372
491,494,493,493,380
491,494,491,492,395
492,495,491,492,440
490,493,492,493,501
492,493,492,493,568
491,492,492,495,626
490,493,493,495,632
491,494,493,494,619
490,494,491,493,544
491,494,493,493,447
492,494,491,493,398
491,495,491,492,374
492,493,491,493,373
492,493,490,493,381
492,492,494,492,411
491,492,492,494,465
491,493,491,492,524
490,492,493,494,604
490,492,492,493,634
492,494,492,492,626
489,493,493,492,595
492,495,493,494,498
491,494,493,493,419
492,493,492,493,384
492,492,491,493,370
490,495,492,492,379
490,493,493,494,389
493,493,490,493,435
490,493,492,493,494
491,494,492,493,559
492,494,491,495,623
491,494,491,494,633
493,495,493,492,623
491,493,492,495,557
491,493,492,494,458
491,493,492,494,405
491,494,493,493,373
493,493,492,493,374
491,495,492,494,380
490,495,491,492,407
492,494,491,493,460
492,493,490,492,517
492,493,493,493,594
491,492,492,494,635
492,493,492,494,628
490,494,493,494,605
490,493,494,494,514
492,494,494,493,425
491,493,493,493,391
492,493,492,495,371
493,494,491,493,376
492,492,492,494,387
492,492,490,494,427
492,494,493,492,486
491,493,492,493,550
493,494,493,493,619
490,495,494,493,636
492,495,492,493,625
493,495,492,492,574
493,494,493,494,469
492,494,492,493,408
491,495,491,493,372
491,493,492,494,371
490,492,492,494,381
491,493,492,492,402
493,493,493,494,452
491,493,491,493,511
490,494,492,492,585
491,494,494,493,632
492,494,491,493,630
490,494,493,493,613
493,492,492,493,527
492,495,492,494,433
491,494,492,494,393
490,492,493,496,372
491,494,491,494,374
492,494,493,492,387
491,492,492,494,422
492,494,491,493,477
491,493,492,493,539
491,492,489,493,612
493,493,492,493,636
492,494,494,495,626
490,494,491,493,582
491,495,494,494,481
491,494,493,494,414
491,494,492,493,380
492,492,491,494,372
492,493,491,494,380
490,494,490,493,395
492,493,491,493,444
491,493,491,493,503
491,493,491,492,572
491,493,493,495,629
492,494,490,494,631
491,494,492,493,619
490,495,494,493,540
492,494,494,493,442
492,493,492,492,397
492,493,494,494,372
490,493,492,494,372
490,492,492,494,382
490,492,493,495,412
490,491,493,493,468
491,494,491,492,529
491,494,492,494,606
491,493,491,492,635
492,494,491,493,627
492,493,491,493,590
493,493,493,493,495
491,494,493,493,418
491,494,491,492,382
490,492,492,495,370
489,493,494,493,379
491,494,493,492,388
491,492,492,492,438
491,493,492,494,496
491,494,491,492,561
492,492,490,493,624
491,492,491,494,632
491,494,491,492,621
490,492,492,495,555
492,494,492,494,452
491,493,493,493,402
491,494,494,492,373
491,495,492,492,374
493,494,492,494,380
490,493,491,493,407
490,493,491,493,460
492,493,491,494,519
490,493,492,495,597
491,492,493,493,634
492,493,493,493,629
492,494,493,495,598
491,495,492,492,507
492,494,493,493,422
491,493,491,493,388
493,494,494,493,372
491,493,492,494,377
492,494,492,494,387
490,492,493,494,429
490,493,492,494,487
491,492,492,493,552
491,491,493,492,621
490,492,491,494,633
492,493,491,492,622
492,493,491,493,567
493,493,493,493,465
492,494,492,493,407
491,494,492,495,371
490,492,491,493,373
492,494,493,493,381
491,494,494,492,404
491,493,492,493,455
491,493,491,493,512
492,493,491,492,588
490,493,492,493,631
492,493,491,494,628
490,493,492,495,610
491,493,492,493,523
492,494,494,493,431
491,493,493,493,392
492,494,493,492,373
491,495,492,492,376
492,494,491,492,387
490,493,493,493,421
491,493,492,493,480
491,493,491,493,543
491,492,491,493,613
490,493,493,494,634
490,493,493,493,626
491,492,490,493,575
491,495,493,493,475
491,493,491,492,412
491,494,491,492,377
493,494,491,493,371
491,492,491,492,381
491,494,492,494,395
490,494,491,492,448
491,492,491,493,505
491,493,493,493,577
490,494,493,493,632
491,493,492,494,630
493,494,491,494,618
490,494,491,493,532
492,494,492,492,438
491,493,492,493,396
490,492,490,491,374
492,493,493,493,373
491,492,491,493,386
491,495,493,493,416
491,494,492,492,472
491,493,492,492,532
492,493,490,493,607
490,493,491,493,633
491,494,492,492,628
490,492,492,495,583
490,492,493,493,488
491,493,492,493,416
492,492,490,492,381
490,494,493,494,369
490,492,490,492,379
492,493,490,492,391
492,492,490,493,439
490,492,492,492,500
490,492,492,494,563
492,493,491,492,626
490,493,493,492,633
492,494,493,492,620
492,494,494,492,546
491,493,491,492,447
491,494,492,493,400
490,492,490,492,371
492,492,491,493,371
490,492,492,494,382
489,492,491,495,408
492,493,489,492,463
490,493,490,492,524
490,492,489,491,602
491,494,489,492,634
492,494,492,492,627
492,492,494,494,595
490,493,491,493,501
491,494,491,492,419
491,492,493,493,384
490,492,493,494,370
489,493,492,492,376
492,491,491,491,389
491,494,493,494,432
490,493,492,492,492
492,493,492,493,554
492,492,491,493,621
490,494,492,492,634
490,493,493,493,621
492,494,491,495,562
491,494,493,493,458
491,493,492,492,404
491,494,492,492,374
491,495,492,494,372
490,493,491,492,379
490,493,492,492,403
491,492,491,493,455
490,493,492,493,515
490,492,492,494,593
492,493,490,492,632
490,493,492,494,627
490,494,491,491,608
492,495,491,492,514
492,494,493,493,427
491,492,492,493,391
491,492,490,493,371
491,494,492,494,375
489,493,492,493,386
489,493,494,492,425
490,493,492,493,484
491,492,491,492,546
492,492,493,494,616
492,492,491,493,633
491,492,491,494,621
491,492,491,495,572
491,493,492,494,473
491,493,491,493,408
490,493,492,493,375
493,493,492,492,372
492,494,491,491,380
491,493,492,492,400
492,492,492,493,449
492,493,491,492,508
490,493,492,493,579
490,491,491,493,629
490,493,492,493,629
489,493,493,493,615
493,492,494,493,529
491,493,492,493,435
491,493,491,492,396
492,494,490,491,372
492,493,490,493,373
491,494,493,492,383
491,491,491,491,418
492,493,492,494,475
491,492,491,493,537
491,493,492,492,610
490,494,493,492,635
492,492,493,494,624
492,494,491,492,581
490,493,493,493,483
492,493,492,492,412
491,493,492,493,377
490,491,491,492,372
492,492,493,493,378
490,492,491,493,394
490,494,492,492,442
491,493,492,492,500
491,493,492,492,569
489,491,492,494,627
492,493,491,492,632
491,494,492,494,617
491,492,491,494,540
491,493,493,493,444
491,493,492,492,399
491,493,493,493,372
492,492,492,494,375
492,493,491,492,383
492,493,490,491,411
492,493,493,492,466
491,492,492,493,527
491,493,491,493,602
490,494,491,492,634
491,494,493,493,627
492,494,493,493,591
491,495,493,493,497
491,492,492,493,418
491,493,491,493,381
489,492,491,492,370
491,491,491,493,376
491,492,491,493,388
490,491,491,492,437
491,492,491,492,494
491,493,491,493,561
490,492,492,492,626
492,494,491,492,632
492,493,491,492,622
490,492,494,492,555
492,492,493,493,454
491,492,492,493,403
490,492,492,494,371
490,492,492,493,372
490,494,494,493,383
491,492,490,493,407
491,494,492,494,459
491,492,492,493,520
491,493,491,492,595
492,493,490,494,632
491,492,492,492,630
492,493,493,494,601
493,494,491,492,510
491,493,492,493,424
491,493,493,492,389
491,495,494,492,370
490,492,492,492,377
492,493,492,493,387
489,492,491,493,428
491,492,491,492,485
490,492,491,493,548
489,493,490,492,621
489,493,492,492,632
491,492,491,492,625
491,494,492,492,572
492,494,492,492,467
491,494,493,492,407
491,493,493,493,374
490,492,491,493,369
492,494,492,491,380
490,492,494,494,401
490,493,493,493,452
490,492,492,493,512
491,492,491,492,586
491,494,492,494,631
490,493,491,493,630
492,492,491,494,611
493,492,491,493,523
491,494,494,493,433
492,493,492,493,392
492,493,491,494,372
490,493,493,492,377
491,494,492,491,386
491,495,492,495,419
489,492,491,492,478
491,493,492,492,541
491,492,491,493,613
491,492,491,493,633
490,493,493,494,623
490,493,493,494,581
493,493,491,493,478
491,493,492,492,411
490,493,492,492,379
491,495,491,492,371
492,493,491,493,378
492,494,493,492,397
491,492,491,493,446
491,494,492,493,506
491,492,492,493,574
490,493,493,493,629
491,494,493,494,629
491,492,491,492,618
492,493,493,495,534
492,494,492,492,440
492,493,491,492,396
491,492,490,492,370
490,494,492,492,374
490,492,491,492,383
492,494,493,494,414
490,493,492,493,470
491,493,492,493,530
491,493,493,491,607
491,491,492,494,633
492,493,490,492,625
490,494,493,493,585
492,492,492,494,490
492,494,492,492,415
491,493,492,492,383
492,494,492,494,370
491,492,492,493,377
491,494,492,492,392
492,494,491,492,437
491,493,491,493,496
490,493,492,494,563
492,492,490,493,626
491,494,493,495,631
490,493,493,494,619
490,493,493,494,549
491,494,492,493,450
491,493,492,492,401
491,492,491,493,373
491,494,490,493,372
492,492,490,493,381
492,493,489,492,405
491,492,490,492,463
490,493,489,492,521
490,494,489,491,600
489,492,493,493,634
491,493,494,492,628
491,495,493,492,598
490,492,493,494,505
492,494,492,492,419
490,493,492,493,386
492,492,491,492,370
491,492,491,493,375
491,492,491,492,390
492,492,492,494,432
491,493,491,492,490
491,493,493,493,554
491,494,492,492,621
492,494,492,492,633
491,494,494,494,621
492,492,493,492,564
491,493,492,493,460
491,493,491,493,405
491,492,492,494,371
490,492,493,493,372
491,492,491,493,382
491,494,492,493,401
490,492,492,492,457
491,492,493,492,515
491,493,490,492,588
492,493,493,492,633
491,492,492,494,628
492,494,491,491,607
490,492,493,494,518
492,493,492,493,430
491,494,492,492,390
491,492,491,492,374
492,494,491,493,375
490,493,492,493,386
492,492,490,492,424
492,492,490,492,481
491,494,493,493,546
491,493,493,494,617
494,493,491,493,635
492,494,493,493,625
493,494,493,492,578
493,495,492,492,473
492,494,492,494,409
491,493,491,493,374
490,494,493,492,369
490,492,492,494,379
490,492,491,495,397
490,492,492,493,448
491,493,491,493,507
491,493,491,493,576
491,494,493,492,632
491,493,491,492,631
492,493,490,492,615
493,493,494,494,532
492,493,492,493,436
491,493,493,493,394
490,492,492,495,371
490,493,492,493,375
491,493,493,492,384
491,492,493,492,418
491,492,491,493,472
490,493,492,492,535
491,492,490,493,610
493,492,491,494,633
491,493,492,494,626
492,494,492,495,583
491,493,491,493,486
492,494,492,493,414
491,493,492,492,381
492,495,492,491,371
492,493,493,494,378
492,493,491,492,393
490,494,492,493,440
491,492,491,493,501
491,492,491,493,566
490,492,491,491,628
492,493,492,493,632
491,491,490,493,617
490,495,493,492,545
492,494,492,492,447
491,493,491,492,398
490,493,493,493,372
493,492,491,491,374
492,495,492,494,381
489,492,492,494,409
490,492,492,493,465
491,493,491,493,525
491,492,491,493,601
491,494,491,492,633
491,493,493,493,627
492,492,491,493,593
493,492,492,493,499
491,494,492,493,420
491,494,491,494,384
491,494,490,491,371
490,494,492,492,379
491,494,491,492,391
491,495,491,492,434
490,493,492,493,493
491,493,491,493,558
490,493,490,492,622
490,491,491,494,632
490,492,492,494,621
490,492,491,492,560
493,493,493,494,457
492,493,491,492,403
491,494,493,492,373
491,494,491,492,373
493,493,491,492,381
492,493,490,493,405
490,494,491,493,458
492,493,490,492,517
490,493,492,494,594
489,492,492,493,634
491,494,492,492,629
491,492,493,495,607
492,495,492,494,511
492,493,492,493,425
492,493,492,493,390
492,493,489,492,371
491,492,492,492,377
492,492,492,494,386
493,494,490,492,427
490,493,492,494,484
490,493,491,493,549
491,492,491,492,615
490,493,492,492,634
492,493,492,495,623
490,492,490,493,570
491,493,490,494,469
492,493,489,493,408
491,493,488,494,373
492,495,488,493,373
491,494,493,493,379
491,492,498,492,403
491,494,494,493,452
491,494,492,492,510
492,493,493,493,582
490,492,491,493,630
491,494,491,492,628
490,493,493,494,612
490,493,494,495,527
491,494,493,493,433
491,493,492,492,395
491,495,491,494,370
490,494,491,492,375
492,493,491,493,385
492,492,490,492,419
492,494,492,493,476
491,493,492,493,540
491,494,490,494,611
490,493,493,493,635
490,494,492,492,626
491,495,493,492,582
492,496,492,494,480
491,494,492,493,413
490,493,492,493,376
492,493,490,493,369
490,492,491,494,378
491,493,492,494,396
492,494,491,494,444
490,493,490,492,503
492,494,492,493,573
490,495,492,492,630
492,494,491,493,630
493,494,493,493,619
493,493,491,494,539
492,495,492,493,440
491,493,491,494,396
490,493,492,495,371
490,493,492,492,373
491,493,492,492,384
491,492,491,494,410
491,494,491,492,469
491,493,491,493,528
492,492,490,492,605
492,492,490,494,634
491,494,492,494,626
490,492,490,491,590
493,493,493,494,493
491,493,493,493,418
490,493,492,492,383
491,492,491,493,369
492,494,491,492,377
490,493,492,492,389
493,492,491,493,436
491,492,491,493,497
491,493,491,492,561
492,494,493,495,624
490,493,491,494,631
491,495,493,492,620
491,495,493,492,554
492,494,492,493,452
491,493,492,493,400
491,493,491,493,373
491,494,490,494,370
490,492,491,494,380
490,492,491,495,406
490,493,492,493,460
491,493,492,492,520
490,493,492,493,597
492,492,490,491,635
492,494,491,492,629
492,493,491,492,601
493,493,491,493,507
491,494,492,493,422
492,493,492,492,388
490,492,492,494,371
490,493,493,494,378
491,494,494,492,389
492,492,491,493,431
491,494,492,493,489
492,493,492,492,552
492,493,491,493,621
492,492,491,494,634
491,493,492,492,623
493,492,492,496,566
493,494,492,492,463
492,494,494,493,406
491,494,493,493,375
491,494,492,492,373
492,494,491,493,379
490,493,490,492,403
493,493,492,493,453
492,493,492,493,512
