Sensor0,Sensor1,Sensor2,Sensor3,Sensor4

193,494,494,378,492
493,492,493,383,491
494,492,492,392,492
495,492,491,427,492
493,491,493,481,491
492,494,493,543,491
491,492,492,612,491
493,493,494,628,489
493,493,493,620,490
493,493,494,571,490
493,492,492,473,491
494,492,493,410,491
493,491,492,379,492
495,491,493,378,492
493,490,493,385,492
492,491,492,401,492
492,492,493,450,491
492,491,493,506,491
493,491,492,575,490
493,493,494,625,491
494,492,492,626,492
495,494,491,609,490
492,495,492,529,492
493,495,493,437,491
494,492,493,395,491
493,491,494,376,490
492,492,493,380,490
494,491,492,389,489
493,493,494,419,491
493,492,493,474,491
495,494,494,534,491
494,491,492,607,492
495,491,494,628,490
494,491,494,619,491
494,493,492,581,491
493,493,493,483,491
494,493,493,415,490
493,493,493,383,490
493,493,492,376,491
492,491,492,386,491
494,492,494,395,490
494,492,492,444,491
494,491,493,501,491
493,491,492,564,492
494,493,492,623,490
492,492,494,627,492
494,490,493,614,489
493,494,494,542,491
494,493,494,447,491
494,493,492,399,491
493,493,492,379,491
493,493,493,379,492
492,492,493,386,491
492,491,493,412,490
492,491,493,466,491
494,492,493,524,490
493,492,493,601,492
494,492,492,629,491
494,493,491,623,491
494,491,491,590,492
495,491,492,497,491
494,493,492,417,491
493,491,492,387,491
494,493,492,374,490
493,493,494,382,490
493,492,494,394,489
492,493,492,435,491
493,493,493,493,490
493,491,493,554,491
494,491,491,619,491
493,492,493,628,492
492,490,493,615,491
494,494,493,553,491
492,493,493,457,491
494,492,493,403,491
494,493,494,376,490
494,493,493,380,491
494,491,494,385,491
494,492,492,411,489
492,492,494,460,492
493,493,492,516,492
493,492,493,590,491
493,491,494,626,491
493,493,492,625,492
494,494,494,599,490
493,491,492,511,491
494,493,493,425,490
494,492,492,393,490
494,492,492,379,490
493,492,493,382,492
493,490,493,392,489
494,490,492,428,490
493,492,493,485,490
493,492,493,547,489
492,490,492,614,492
494,494,493,629,490
491,491,494,620,492
495,494,492,568,492
495,493,492,468,491
494,492,492,408,491
493,494,492,376,492
492,493,492,380,491
492,492,494,383,491
494,493,495,403,489
493,493,493,452,491
494,493,494,509,492
493,492,493,582,490
494,493,494,625,491
493,491,492,623,492
493,492,493,608,492
493,492,494,523,492
493,493,492,432,490
493,492,493,395,492
494,491,491,376,490
494,493,492,382,490
494,493,492,391,491
494,492,492,420,491
493,491,492,477,490
493,491,494,538,490
492,490,492,607,492
492,491,493,627,491
492,492,494,619,489
494,491,491,578,490
494,493,493,479,492
493,492,492,413,491
494,492,491,381,491
495,494,492,378,491
493,491,492,385,492
493,491,492,398,490
492,491,493,444,491
494,493,493,503,491
493,493,494,567,491
491,494,494,624,491
493,492,493,624,491
492,491,491,614,491
496,492,495,535,491
494,492,492,441,492
494,492,492,398,491
493,491,492,377,493
494,493,491,380,490
492,493,494,389,491
494,490,494,415,490
493,491,493,468,491
493,493,493,528,490
494,492,493,600,491
492,491,492,628,492
492,493,493,622,492
491,491,492,583,493
494,492,494,491,492
493,492,493,417,492
492,493,494,387,493
495,491,494,376,490
494,491,493,383,492
494,492,491,397,491
495,492,492,439,491
494,493,494,497,492
493,492,493,559,492
493,491,493,621,492
494,492,493,625,491
492,492,493,614,490
492,493,494,549,491
493,493,492,452,492
493,493,493,402,491
492,491,494,376,491
494,491,491,379,493
494,491,492,386,492
493,491,492,411,490
492,491,492,460,491
492,492,492,520,491
494,492,493,594,490
493,491,493,627,491
494,493,492,623,491
494,493,492,595,492
493,493,494,503,492
495,493,493,423,490
493,492,492,388,493
492,491,492,376,491
492,492,493,381,490
493,492,492,394,492
494,494,493,432,490
493,492,493,489,492
494,493,493,552,491
495,493,492,616,491
494,492,493,628,490
493,493,493,616,491
493,491,492,563,491
494,491,493,461,491
493,491,493,406,490
493,492,494,375,489
492,491,492,378,491
494,493,492,386,490
493,492,494,409,491
494,491,492,457,491
493,491,492,512,491
492,491,492,584,491
492,491,492,628,491
494,492,494,623,490
494,491,493,608,491
494,495,495,517,491
493,493,493,431,490
494,493,494,395,491
493,491,494,379,492
495,491,494,382,490
494,492,493,391,491
493,490,493,424,491
494,492,494,481,491
493,492,493,544,492
492,492,494,610,492
492,491,493,631,491
494,492,492,621,491
494,492,491,574,491
494,492,492,473,491
493,492,492,411,491
493,493,493,378,489
492,491,492,376,490
491,492,493,383,490
493,492,494,399,489
492,492,494,448,491
493,491,492,505,490
493,492,493,573,490
491,492,492,626,492
493,491,492,625,492
493,490,493,612,492
493,494,493,531,491
493,492,492,438,490
493,494,492,396,490
493,492,494,376,490
494,492,493,380,490
494,493,493,389,491
492,490,491,420,491
494,493,494,471,491
493,492,493,533,492
493,490,492,604,492
493,492,493,627,490
494,492,491,623,490
493,492,494,581,492
494,492,493,486,490
493,492,493,415,490
494,492,492,383,490
494,493,492,377,491
494,492,494,383,490
493,491,492,397,489
493,493,493,441,491
492,491,492,499,491
493,490,493,561,490
492,490,495,623,492
493,490,493,627,491
494,491,494,613,491
494,494,492,545,492
494,493,492,447,491
494,493,492,400,492
493,494,494,377,493
492,491,493,379,491
495,492,494,386,489
491,492,494,411,490
493,492,494,464,491
494,491,493,523,491
492,491,492,601,491
493,491,494,626,491
493,490,493,623,492
492,491,492,590,493
493,493,492,498,491
493,493,493,421,490
493,492,494,386,490
492,491,491,377,492
493,493,492,384,490
494,492,491,394,490
494,493,491,435,490
493,492,493,491,491
493,490,492,553,489
493,493,493,617,490
492,492,494,626,490
492,492,493,615,490
493,493,492,559,492
493,492,494,456,491
494,492,492,404,490
494,493,492,379,491
494,491,491,379,492
494,491,492,386,490
494,494,493,408,492
492,491,493,459,491
494,492,494,515,490
492,492,494,590,489
492,492,493,628,490
493,492,492,624,491
492,492,494,600,492
495,492,492,510,491
493,492,493,427,491
494,491,492,392,492
493,491,492,377,491
492,492,491,384,491
494,492,493,391,489
494,491,492,428,489
492,492,493,485,490
493,492,492,546,491
494,492,491,613,489
492,492,494,629,491
493,491,494,619,491
495,492,494,567,491
493,492,493,468,492
493,493,493,408,491
493,492,492,379,492
493,492,493,379,491
492,491,492,386,491
494,493,492,407,491
493,490,493,452,492
494,492,493,508,491
493,491,494,579,490
494,490,494,623,490
494,491,491,625,489
493,492,494,609,490
492,494,493,525,490
494,493,492,434,491
493,491,493,397,491
494,491,494,375,490
493,491,493,381,492
492,491,493,390,492
492,491,493,420,491
493,492,492,477,490
491,492,493,537,491
494,489,492,608,489
493,492,492,630,491
494,492,491,622,492
495,492,491,575,490
493,493,492,481,491
493,492,492,412,490
493,491,493,379,491
492,492,494,376,490
492,492,494,383,490
493,492,493,398,492
492,491,492,446,490
493,492,493,501,492
493,492,492,571,491
494,491,492,623,492
493,490,493,625,491
492,492,492,615,490
492,490,494,536,492
494,491,492,442,491
492,493,493,399,490
494,494,494,377,490
493,493,492,378,490
492,492,492,390,491
493,492,494,413,490
493,492,492,469,490
493,491,493,526,491
491,490,493,600,491
494,491,492,629,489
492,492,494,622,492
492,491,494,585,490
495,494,493,493,490
493,492,493,419,491
494,492,492,386,492
495,492,495,376,489
492,491,493,383,491
494,492,492,391,490
491,491,494,437,490
492,492,494,496,491
493,493,493,558,491
492,491,493,621,491
493,492,494,626,490
494,491,492,616,492
493,492,491,552,492
493,492,492,453,491
493,493,492,403,490
492,492,494,378,491
494,490,493,377,490
493,493,493,387,490
493,493,493,410,490
493,491,492,459,490
492,492,492,519,490
492,492,494,593,491
493,491,493,626,490
492,492,494,621,490
492,492,494,593,491
493,493,494,507,491
494,493,493,425,490
493,492,493,389,492
494,494,492,378,491
494,491,492,383,491
493,491,492,392,492
493,494,493,431,491
492,491,493,488,491
494,493,493,548,490
491,493,494,613,490
491,496,493,629,491
494,492,493,616,491
493,493,492,566,491
492,491,493,463,491
494,492,492,407,491
493,491,492,377,492
493,491,493,376,490
494,492,491,384,489
492,492,491,408,492
493,492,493,453,490
492,492,493,511,490
492,493,492,584,490
494,492,492,626,491
493,493,494,623,492
492,490,493,606,491
495,495,494,517,491
493,492,493,432,491
493,492,494,394,491
492,492,491,379,491
493,493,493,382,490
492,491,493,389,491
494,492,491,425,491
494,492,494,480,491
493,493,492,541,490
492,493,494,609,492
493,491,493,630,491
495,492,494,617,489
493,492,495,572,490
493,493,493,476,491
493,491,492,412,491
494,493,492,381,491
491,491,493,378,492
494,491,491,384,491
493,491,492,402,492
492,490,492,447,491
492,490,492,503,490
494,490,494,571,489
494,489,492,624,490
494,494,493,625,490
494,493,492,613,490
495,494,493,533,491
493,493,493,439,490
493,493,493,397,490
493,491,492,376,492
492,491,494,378,490
491,491,494,388,490
491,491,491,419,491
493,493,494,471,491
493,491,493,531,490
494,492,492,604,490
494,492,492,628,491
493,490,492,620,490
493,493,492,581,492
492,493,493,487,491
494,491,492,414,491
493,492,493,382,489
492,492,494,377,489
492,493,493,385,491
493,490,493,397,490
494,492,494,440,490
492,491,492,498,490
494,491,492,562,491
492,490,492,621,491
492,492,491,626,492
492,493,494,613,492
494,491,492,543,490
493,493,493,447,491
493,494,493,402,490
495,492,492,374,491
492,491,492,379,492
494,493,493,388,490
492,489,493,410,491
492,490,493,464,491
494,492,494,522,490
493,488,492,598,490
493,493,494,628,491
493,491,492,624,491
494,491,492,591,491
495,492,492,501,491
494,491,493,422,491
493,492,493,387,490
493,491,492,375,490
493,493,492,380,490
492,492,493,391,489
492,492,494,433,490
492,491,493,490,491
493,490,492,554,489
493,490,494,615,490
493,490,492,627,491
493,491,493,616,491
493,491,493,559,492
494,493,493,460,491
494,492,494,407,492
494,491,494,376,490
492,493,493,378,490
494,493,492,387,490
493,492,494,406,490
492,491,492,457,491
493,493,494,515,492
492,490,492,588,492
492,490,494,625,491
492,493,494,624,490
492,493,494,603,493
494,491,493,513,490
493,492,493,428,491
493,492,492,393,491
494,493,491,378,491
493,491,492,382,491
493,492,493,391,492
492,490,493,429,490
493,491,493,482,491
493,491,493,543,489
492,493,494,610,489
492,493,493,627,492
492,491,491,620,492
493,492,496,568,493
494,491,493,470,492
493,491,492,410,491
493,490,493,377,490
493,491,492,375,490
492,492,491,386,490
493,492,494,403,489
493,493,492,451,491
494,494,493,507,490
493,493,492,579,492
491,492,495,624,492
493,491,493,626,490
493,493,494,608,492
492,491,494,525,490
494,492,493,436,490
492,492,492,398,492
493,493,494,376,490
492,491,493,380,491
494,491,491,391,491
495,491,491,420,491
493,492,492,476,490
492,492,493,533,491
492,490,492,607,490
494,492,494,628,490
493,492,494,619,490
494,493,494,578,489
494,491,493,482,491
493,492,492,414,490
492,492,494,383,492
493,491,492,377,492
492,490,492,383,491
493,491,494,397,490
491,491,492,445,492
494,492,493,502,490
493,491,493,567,490
493,493,493,623,491
494,492,491,626,491
494,491,492,615,490
492,492,494,539,492
493,492,493,444,490
492,491,493,399,491
492,492,493,375,490
492,492,494,378,489
492,491,492,389,491
493,493,493,414,490
492,491,493,469,490
492,491,492,527,491
493,490,491,600,491
493,491,493,630,490
493,492,494,620,491
493,492,492,588,491
492,493,494,494,491
493,492,493,418,490
493,493,493,387,490
493,494,493,378,490
492,491,494,383,491
493,491,494,393,489
491,491,492,437,492
492,492,493,494,491
493,490,494,556,490
492,491,493,621,492
493,492,493,627,491
492,491,494,618,490
494,493,492,552,491
494,492,492,454,490
492,494,493,403,490
491,492,492,377,492
494,492,492,379,490
492,491,493,385,490
492,490,494,407,490
492,491,493,459,490
492,491,492,518,490
493,492,492,591,491
492,491,492,629,491
493,490,492,624,492
493,490,492,597,493
494,492,494,507,492
494,493,493,426,490
493,491,493,389,491
494,492,492,377,490
493,492,493,383,490
494,492,492,391,489
494,493,492,429,491
493,492,493,486,491
494,492,493,547,489
492,490,493,615,492
492,491,494,626,491
492,492,494,617,489
494,492,492,568,490
493,492,493,465,491
493,491,493,408,490
493,492,492,378,490
494,491,491,377,491
494,491,494,384,489
492,490,491,405,492
493,493,492,452,491
492,492,492,510,491
491,492,493,580,490
492,491,494,625,489
493,492,493,624,491
492,491,492,608,491
496,493,495,520,491
494,492,493,433,491
493,491,492,395,492
494,490,492,377,492
494,491,492,382,491
492,490,494,390,492
495,490,496,423,491
493,493,494,479,491
493,494,493,538,491
494,494,494,607,491
492,492,492,629,492
493,493,494,619,491
492,491,493,575,492
492,492,493,478,492
494,492,492,411,491
493,492,492,380,489
491,491,492,377,492
493,493,493,385,490
494,493,492,402,490
494,492,491,446,491
493,492,493,503,490
492,491,494,569,492
492,490,492,623,490
493,493,494,624,489
492,492,494,611,490
492,492,494,532,490
493,492,492,441,490
493,492,492,398,490
492,491,493,374,490
494,493,493,380,491
491,491,492,387,491
493,490,492,414,489
494,492,493,470,491
494,490,493,529,491
495,492,495,602,490
492,493,494,629,491
493,492,491,621,491
494,492,494,580,490
495,492,492,490,491
494,492,492,416,491
494,491,492,384,492
492,490,492,375,491
492,492,493,381,490
492,492,492,397,491
494,492,493,439,490
493,490,492,496,490
493,492,492,563,490
494,491,492,621,491
494,491,492,625,489
493,493,493,614,492
493,490,493,546,491
494,492,493,448,491
493,491,493,400,490
492,492,494,374,490
493,491,493,377,491
494,492,492,387,490
492,490,494,412,491
494,491,492,464,491
493,492,493,520,492
492,490,493,596,490
493,493,495,627,490
492,490,492,622,492
493,493,495,591,489
493,495,493,503,491
493,491,493,421,490
494,492,492,389,490
492,490,494,378,492
493,490,493,381,489
494,491,493,391,491
491,490,494,432,490
492,490,493,489,490
493,491,492,552,491
492,492,494,616,492
492,490,493,628,491
494,492,492,618,492
495,492,492,562,493
495,492,492,458,491
493,492,493,406,492
493,493,492,376,490
493,491,495,375,489
492,492,494,385,490
493,492,494,406,490
493,490,492,456,490
493,492,494,513,491
493,490,492,588,492
494,491,493,627,492
493,491,494,623,491
492,492,493,602,492
492,494,492,517,491
493,492,493,428,491
494,492,492,392,489
493,494,495,377,490
493,493,492,382,491
494,492,491,388,489
491,492,491,427,491
493,491,493,481,490
492,492,493,543,490
491,490,494,610,491
491,491,493,628,490
494,491,492,620,490
493,494,496,572,493
493,492,493,472,491
493,492,493,411,490
493,492,492,381,491
495,490,494,376,490
494,490,493,384,491
493,491,492,403,490
492,491,493,449,490
492,493,494,507,491
492,492,494,576,490
493,494,494,624,491
491,494,492,627,491
494,491,494,609,490
496,491,492,529,491
494,492,493,437,491
493,491,492,396,492
494,493,492,378,489
492,492,494,382,492
494,490,493,388,489
492,493,494,420,490
493,492,493,473,490
492,491,492,532,490
492,490,492,608,491
492,492,493,629,491
492,491,493,619,490
491,491,494,579,491
492,492,493,485,491
494,492,492,415,490
493,492,493,383,492
493,493,492,377,490
494,492,492,385,491
493,491,492,400,492
494,490,492,442,491
493,492,494,500,492
492,491,493,567,491
493,492,495,621,490
491,493,494,626,490
493,491,494,615,490
494,492,493,540,492
493,494,493,446,491
493,491,493,399,491
494,491,491,378,492
493,491,493,378,491
491,490,493,386,491
495,493,492,411,489
492,491,493,468,490
493,491,493,524,489
492,493,494,599,489
492,492,492,630,491
494,491,494,620,489
494,491,493,590,490
493,493,494,497,492
494,492,493,419,492
493,492,494,387,490
491,490,494,377,490
492,492,492,384,492
493,493,493,395,489
492,489,493,436,490
493,493,493,494,490
494,492,493,558,491
494,492,492,620,490
494,493,493,627,491
491,491,492,619,491
494,492,494,553,490
493,492,494,456,491
493,492,494,406,490
492,491,492,377,492
493,493,492,379,490
492,491,493,387,492
494,490,491,410,492
493,491,492,460,491
492,491,492,516,490
493,492,493,589,490
491,492,493,629,491
493,492,493,624,490
494,493,493,598,490
493,494,494,512,491
494,493,493,428,491
492,492,494,392,492
493,492,495,378,490
494,490,493,380,492
492,491,493,391,490
491,490,494,429,490
492,491,493,486,491
493,492,494,548,491
492,491,493,615,490
494,493,493,629,491
494,492,492,619,492
493,491,492,566,490
493,495,492,468,491
493,493,493,409,491
492,491,493,375,490
491,492,494,377,489
492,492,494,386,490
492,490,492,405,489
493,493,492,453,490
492,491,492,511,491
493,491,491,582,491
493,491,492,625,491
492,491,494,624,491
492,493,493,610,492
493,492,495,522,492
493,493,493,434,491
493,493,494,395,490
493,494,494,378,490
493,494,492,379,490
492,491,492,390,492
494,492,494,423,490
492,491,493,477,491
494,492,494,536,491
491,491,494,608,491
494,491,493,630,490
493,493,493,620,491
490,491,493,578,490
494,493,492,479,490
494,492,492,415,490
493,491,494,380,489
491,491,492,377,491
493,493,493,386,491
491,491,493,398,491
491,492,494,445,490
492,491,493,505,490
492,492,493,570,492
492,490,493,625,490
493,491,494,626,490
493,491,492,614,492
494,492,491,536,492
493,491,492,443,491
493,491,493,399,491
492,491,493,378,490
494,491,494,378,489
492,493,493,387,489
492,494,494,415,489
493,492,493,470,491
493,492,492,528,491
492,492,495,602,492
493,491,493,628,491
491,491,493,619,490
491,492,494,584,490
495,491,492,491,491
493,492,492,418,491
493,492,493,385,490
492,493,493,376,490
494,492,491,383,490
493,492,492,396,491
489,493,493,436,491
493,491,492,496,489
493,491,493,558,490
491,490,493,618,490
492,492,494,627,489
492,492,493,616,492
493,494,494,549,490
493,492,493,452,490
492,492,492,402,491
494,492,491,378,491
493,491,492,378,490
493,493,493,384,491
492,491,492,412,490
493,491,494,462,491
493,492,493,518,489
492,492,494,594,489
492,490,494,627,490
494,491,492,624,489
492,492,495,596,492
494,491,492,505,491
493,492,492,422,491
493,492,493,389,491
491,491,492,378,491
493,492,494,380,489
493,491,493,393,489
492,493,492,433,490
493,492,493,488,490
493,492,492,552,489
491,491,494,617,491
492,491,493,629,490
493,491,494,617,490
492,492,494,561,491
493,493,493,463,491
493,492,493,409,492
494,492,494,376,493
492,491,494,380,491
493,491,492,386,491
493,490,491,407,492
493,491,492,456,490
492,493,492,513,491
491,494,492,586,490
491,492,494,626,490
493,492,493,624,490
494,493,492,604,489
493,494,493,519,491
493,491,492,429,490
494,492,493,393,489
492,491,491,379,491
493,490,492,380,491
492,491,493,389,490
491,492,492,427,490
492,491,493,480,490
493,491,492,542,490
492,492,492,611,490
494,492,492,629,491
493,494,492,619,489
492,493,492,575,494
494,493,494,473,490
493,492,493,411,491
493,492,494,377,491
491,490,493,376,489
492,491,492,386,490
493,492,493,400,491
491,492,493,451,491
493,493,493,508,491
493,492,493,575,492
493,491,492,624,491
492,492,492,627,491
491,492,493,609,491
495,492,492,529,490
493,491,493,437,491
492,492,492,397,490
493,493,494,376,491
491,490,491,380,492
494,493,493,388,489
493,492,492,418,491
492,491,492,472,490
493,491,492,530,490
493,492,492,606,490
491,492,493,628,491
492,491,493,623,491
494,492,493,582,491
494,493,492,486,490
493,492,493,414,491
493,490,492,383,492
493,493,492,376,490
492,491,494,382,491
492,491,494,395,489
492,491,494,441,490
493,492,494,502,491
493,490,492,565,490
494,491,494,621,489
493,491,492,628,492
493,490,492,614,492
493,491,492,543,491
493,493,493,448,491
493,491,493,401,491
494,492,495,375,489
492,492,493,380,490
493,493,492,387,490
494,493,494,411,490
491,491,492,466,490
492,491,493,523,490
491,491,492,599,491
493,489,493,627,491
492,491,494,621,491
494,491,492,589,490
493,493,492,499,491
493,492,493,420,490
493,492,493,389,491
493,492,492,377,491
494,491,492,383,491
493,493,494,393,492
492,490,492,434,489
493,493,494,492,491
492,492,494,553,490
492,492,495,616,489
493,492,494,627,491
490,492,492,619,491
492,491,494,554,491
493,492,492,458,491
493,491,492,406,491
493,491,492,376,489
492,492,492,377,490
492,491,491,386,491
493,492,495,407,489
492,493,493,459,490
492,491,493,514,490
492,491,493,588,490
493,491,492,629,489
493,492,493,623,491
490,491,493,601,492
492,491,493,512,492
494,492,492,428,491
493,493,492,394,491
494,491,495,376,490
492,491,493,380,490
493,492,491,393,490
494,492,491,429,491
494,493,493,483,490
492,492,494,546,491
492,490,493,613,490
494,492,494,627,489
492,492,494,618,490
492,492,494,568,489
493,492,493,469,491
492,491,493,410,491
493,492,494,378,490
494,491,492,377,492
492,490,492,385,491
492,491,492,404,489
493,492,494,451,490
491,490,492,509,490
492,492,493,578,489
492,493,494,625,490
493,492,492,625,491
494,492,492,610,490
492,493,495,526,492
494,492,493,434,490
493,493,493,394,491
491,492,492,376,490
492,491,494,378,489
493,491,492,390,491
492,493,494,421,491
492,491,492,475,491
492,494,493,538,491
493,491,492,608,491
494,491,492,628,490
493,493,494,619,490
491,492,492,578,491
492,491,493,479,490
493,490,494,413,490
493,490,493,381,490
493,489,493,375,490
494,491,492,383,490
492,494,491,400,491
493,493,492,445,490
492,492,492,501,491
492,491,492,565,490
491,493,492,623,491
491,493,494,625,492
492,492,493,614,489
494,493,494,538,491
494,492,493,443,491
494,492,492,397,490
493,493,492,378,492
493,494,492,378,490
492,492,493,385,490
491,491,494,413,489
492,491,494,467,491
493,492,493,526,490
493,493,493,601,491
492,492,492,628,491
493,491,492,622,491
492,490,492,586,492
493,491,493,492,490
493,492,492,417,491
493,491,491,386,490
492,491,494,375,489
492,493,493,384,489
492,491,492,394,489
494,492,491,435,490
492,491,493,495,490
493,491,493,556,489
492,490,492,619,490
491,491,494,626,491
491,492,494,614,490
494,493,491,552,490
492,492,493,452,491
493,491,493,402,490
494,493,492,377,490
493,492,491,379,492
494,490,494,385,489
493,490,492,409,491
493,492,492,461,492
494,493,494,517,490
492,491,495,592,489
492,491,493,627,491
492,490,493,623,490
493,492,494,593,491
492,493,492,506,491
494,492,493,423,491
493,491,492,391,492
493,490,492,376,492
494,493,491,383,490
492,492,493,393,492
493,491,493,430,490
491,492,493,487,489
492,491,492,549,491
493,491,493,612,490
492,491,492,629,491
493,492,493,618,492
494,491,493,563,491
492,492,493,464,492
492,491,493,407,491
493,491,491,375,489
492,493,493,378,491
491,492,492,386,491
493,492,491,408,490
493,491,492,455,491
494,492,493,510,490
493,491,493,583,490
493,493,493,624,491
493,493,494,622,489
492,494,494,605,489
491,492,494,520,491
492,491,492,430,491
490,491,493,395,491
490,490,494,375,491
497,490,493,380,491
494,490,493,390,491
492,489,493,423,490
494,492,492,479,489
492,492,492,542,491
492,492,493,608,490
493,493,493,629,490
493,493,492,621,492
495,491,495,571,490
494,491,493,477,491
493,490,494,412,491
493,489,493,377,491
492,490,494,377,490
491,493,495,386,492
492,493,495,401,488
491,491,493,449,491
492,493,493,506,490
493,493,491,575,490
497,491,492,625,492
495,489,493,625,490
493,492,492,611,491
491,490,492,532,491
494,491,493,438,491
493,492,493,397,489
492,493,494,376,490
492,491,492,378,491
491,493,492,391,490
491,490,494,419,491
492,491,492,472,490
492,492,492,530,491
491,490,492,605,490
493,491,494,627,489
492,491,492,622,492
492,493,494,581,489
493,494,493,488,491
493,492,493,417,490
493,491,493,382,491
495,492,493,376,490
492,494,492,384,491
490,491,492,395,491
490,491,494,441,490
493,492,494,500,491
493,490,492,564,492
493,493,495,622,492
493,491,493,629,491
495,492,492,616,491
496,492,492,547,492
494,492,492,448,491
494,492,492,401,490
492,493,493,377,490
492,491,494,377,490
491,492,494,387,489
492,492,495,412,489
492,491,492,464,490
492,492,493,523,489
490,491,492,599,491
494,492,492,629,491
494,489,493,622,491
493,489,493,592,490
495,490,494,500,491
494,491,493,423,490
492,492,493,388,489
492,493,494,377,489
493,493,492,384,491
494,493,491,391,490
491,491,492,435,491
493,492,494,492,491
493,491,492,553,490
493,491,493,616,490
493,492,494,627,489
494,490,492,617,489
493,493,495,559,492
494,492,493,459,490
494,492,493,406,490
494,492,492,379,490
495,491,494,378,490
493,491,492,385,491
493,493,493,409,491
493,490,493,457,490
494,491,494,514,489
495,491,495,588,491
495,490,492,627,490
492,493,493,623,490
492,492,491,604,491
496,492,492,514,491
494,493,492,429,491
495,491,493,393,492
494,493,492,377,491
492,492,494,383,491
492,491,493,390,489
492,493,494,427,489
493,493,495,483,491
493,493,493,544,490
492,492,492,613,490
491,491,494,628,491
493,491,493,618,491
493,492,493,569,491
495,493,494,473,491
495,492,492,409,490
493,492,492,380,491
492,488,493,378,490
493,492,492,385,489
493,493,492,404,490
492,492,493,449,491
492,492,492,507,490
492,494,493,578,492
491,490,492,623,491
492,492,493,623,490
491,494,494,610,491
492,493,493,528,492
494,492,494,437,490
492,491,494,397,491
494,491,492,378,491
497,491,492,381,492
497,491,493,390,492
495,493,493,419,494
494,492,493,476,496
492,491,494,535,495
492,491,494,605,490
493,490,494,629,490
493,490,494,618,489
495,492,492,581,488
496,493,494,483,491
492,491,492,415,491
492,491,493,382,492
493,490,493,379,491
494,491,494,383,489
494,490,492,400,492
494,490,494,444,490
494,489,493,501,490
495,489,493,565,490
493,491,492,623,490
490,493,494,625,492
492,493,493,615,491
494,493,493,538,492
497,494,493,445,490
499,494,495,400,489
498,492,493,380,491
495,494,493,379,490
488,491,493,390,490
494,492,491,416,490
494,491,493,467,491
492,492,493,526,491
491,492,493,599,492
493,493,492,629,491
496,493,494,621,489
494,493,494,585,490
493,494,493,496,490
489,491,493,419,490
492,492,492,384,490
493,492,492,379,491
493,492,492,384,491
494,492,492,394,490
489,490,493,436,490
490,488,493,495,490
494,492,493,556,492
494,492,492,619,490
493,493,493,628,491
493,493,492,617,491
497,495,493,552,490
497,493,493,455,491
497,494,495,404,491
496,492,494,377,492
491,486,494,377,489
489,488,494,386,488
490,490,491,412,488
493,493,493,461,492
493,493,494,519,491
492,494,492,594,491
495,490,493,627,491
495,489,494,624,490
496,490,493,596,492
494,493,492,508,491
492,492,493,424,490
490,491,494,390,489
493,492,495,378,489
496,493,493,383,491
493,490,492,393,491
494,491,494,430,490
492,490,491,488,490
493,490,491,547,490
491,490,492,613,491
493,491,492,629,490
494,492,494,618,493
495,491,494,567,491
495,492,495,466,492
498,490,493,409,490
497,490,495,377,490
493,488,492,378,494
492,491,493,387,491
488,489,493,404,492
488,493,493,454,491
493,492,492,510,489
490,492,492,583,489
492,495,493,625,489
492,492,493,627,494
496,493,494,611,496
498,496,494,522,492
496,496,493,433,487
493,494,492,397,485
496,487,493,379,494
494,492,494,383,492
496,492,493,392,491
494,490,492,423,489
489,492,493,479,490
491,490,494,540,490
494,491,496,609,491
493,491,495,629,492
491,491,494,619,490
493,494,494,575,491
488,492,491,478,491
489,491,491,413,492
492,492,493,383,492
498,492,493,380,495
498,490,493,386,495
493,492,494,401,491
487,490,492,446,491
486,492,492,504,490
491,492,494,571,487
494,492,494,624,489
495,493,493,626,491
494,492,494,611,492
492,490,492,535,490
493,490,494,440,490
498,490,495,400,491
497,489,494,378,492
496,492,496,379,490
494,494,493,389,490
489,493,491,418,491
487,488,492,470,489
490,489,493,530,489
493,491,493,604,489
493,491,494,628,489
494,491,493,622,490
494,497,494,583,493
494,497,494,490,493
495,489,494,416,491
495,491,494,386,491
496,493,494,378,489
490,490,492,381,490
486,490,492,397,490
492,491,492,440,491
494,491,493,497,492
498,492,495,560,491
498,492,497,621,493
498,491,495,628,491
493,494,496,616,490
485,497,494,548,490
487,496,492,450,492
488,494,491,402,489
492,489,492,378,488
497,489,495,380,493
497,487,494,387,489
499,489,494,411,486
497,488,495,465,484
496,488,494,521,487
491,492,491,597,490
487,494,492,629,490
488,491,491,624,491
490,491,491,594,492
493,493,495,503,493
495,491,494,423,491
497,493,496,388,490
502,491,496,377,488
498,493,494,383,488
497,493,492,392,488
489,493,492,433,490
489,492,494,491,492
490,488,494,553,493
489,487,491,618,493
487,486,493,627,493
495,493,496,620,491
497,492,498,561,492
499,493,495,463,494
500,494,495,407,491
493,492,493,378,493
489,491,490,380,493
490,493,493,385,487
487,489,492,405,485
489,492,494,456,488
492,491,494,515,492
487,494,494,585,494
482,498,491,628,493
485,495,494,624,489
495,483,493,603,488
502,492,492,517,492
502,495,494,431,492
497,491,493,395,492
495,489,493,377,488
495,491,495,382,490
498,491,492,393,491
497,493,494,426,490
491,492,494,482,491
487,490,494,543,490
488,486,495,611,488
491,488,493,628,487
490,492,492,620,492
495,493,492,573,493
495,493,494,474,491
496,491,494,411,490
498,491,495,378,489
496,491,493,379,489
495,494,494,386,489
489,493,493,405,489
491,489,492,450,489
490,490,494,508,491
496,493,495,577,490
494,492,492,623,491
491,492,493,624,489
485,493,496,610,491
481,492,498,530,492
491,491,497,441,491
504,491,495,398,490
502,489,492,378,489
489,494,490,382,491
493,491,492,390,491
493,490,494,419,489
493,492,494,474,490
496,493,494,535,489
501,488,497,606,489
508,489,499,632,490
501,490,496,623,491
489,491,494,583,491
493,494,493,484,493
484,493,491,416,496
479,491,492,383,498
486,494,492,378,496
495,495,490,384,490
492,493,496,395,486
492,487,494,443,487
499,491,495,500,488
498,492,494,567,489
500,495,492,624,492
500,495,493,625,489
490,495,494,615,492
488,491,493,541,491
485,490,494,446,491
492,490,496,401,490
495,487,498,377,492
502,488,498,383,491
517,497,498,390,492
511,493,493,416,490
488,492,491,468,487
487,491,490,524,485
492,489,491,599,488
491,492,495,628,493
495,492,492,622,493
492,495,494,588,493
487,493,493,498,490
488,490,493,419,489
494,491,493,389,490
495,492,496,377,488
492,490,494,382,489
492,490,494,393,489
491,491,494,436,489
487,495,492,493,490
486,495,492,556,488
490,495,494,619,490
492,491,492,628,491
496,492,492,618,493
498,496,494,559,494
493,496,496,456,490
489,489,495,406,488
499,489,493,375,488
489,489,493,377,490
493,493,492,388,490
494,491,493,408,492
497,490,493,460,491
496,490,495,517,490
487,487,494,592,491
495,491,494,627,491
493,493,493,623,491
485,492,491,600,491
489,494,495,513,492
500,494,494,426,490
500,492,494,393,489
496,494,494,379,489
496,491,492,384,490
494,494,494,390,487
497,492,494,431,490
506,495,492,485,491
497,491,491,545,490
489,491,494,611,490
485,494,495,628,492
498,491,498,622,491
507,488,502,568,490
500,489,497,470,491
495,496,492,411,492
485,499,495,380,495
483,497,491,379,489
488,492,490,387,490
495,492,493,403,488
491,492,493,452,489
492,491,496,510,489
492,487,496,580,490
494,487,495,627,491
488,492,493,626,493
490,492,492,608,492
502,497,495,524,492
506,501,495,436,491
501,487,494,397,491
479,485,496,377,489
491,492,492,381,492
489,494,489,390,491
490,490,490,424,490
496,490,495,478,490
495,494,494,537,491
500,494,493,609,490
500,495,493,627,489
498,490,494,618,487
497,489,497,577,488
497,492,496,481,491
499,494,495,414,490
487,492,492,380,490
491,492,492,378,493
496,490,493,385,492
486,486,495,400,490
484,491,493,444,491
488,495,494,504,492
492,496,494,569,490
497,493,493,624,490
505,494,495,628,491
511,493,497,616,490
502,494,497,535,492
492,494,494,442,490
482,488,492,398,491
497,492,491,376,492
492,491,494,380,490
496,491,492,390,491
486,490,494,415,489
488,492,492,471,491
493,495,492,528,491
492,492,492,603,491
489,488,492,628,490
486,491,492,619,491
494,492,494,586,491
495,492,495,491,491
494,492,493,415,489
496,491,494,385,488
495,490,493,376,491
496,494,491,385,491
488,495,493,398,493
486,484,491,438,494
484,489,494,495,492
484,489,494,559,492
492,494,494,622,492
499,494,493,627,490
501,490,492,615,489
498,493,493,549,487
495,497,494,452,492
496,502,493,405,492
500,496,494,378,489
514,489,493,379,487
502,486,493,385,490
488,489,493,408,490
480,489,495,462,490
492,490,495,522,491
505,493,497,596,493
488,489,494,630,498
480,491,490,624,497
489,490,490,595,495
486,491,493,505,487
486,491,492,423,489
501,493,492,391,491
505,492,497,378,489
507,496,494,383,487
499,493,493,393,487
487,485,490,432,491
474,488,492,487,494
479,493,494,551,493
483,491,492,616,495
495,493,495,627,493
503,491,497,618,486
501,488,497,567,489
501,490,496,463,489
495,490,489,408,490
493,495,490,377,490
486,492,490,378,490
488,490,491,385,489
492,494,491,407,492
490,498,494,456,490
492,493,493,512,489
485,487,491,582,488
500,494,495,626,489
500,493,496,624,490
497,491,491,604,492
496,493,491,519,492
494,495,491,431,491
494,490,491,393,491
493,494,492,378,489
493,487,493,383,489
492,488,496,389,491
491,491,493,425,489
487,494,495,481,491
495,495,495,542,490
496,493,495,610,490
479,487,489,627,492
478,488,493,619,492
492,490,493,573,493
494,492,492,474,493
498,493,494,412,490
505,494,493,382,488
501,492,494,378,491
488,489,491,387,491
494,493,490,403,490
501,488,493,449,488
498,489,494,505,489
496,490,493,573,492
491,492,492,624,490
491,493,493,624,489
487,492,495,611,490
488,492,494,530,491
485,492,493,440,491
492,490,491,398,490
494,489,493,375,490
495,487,493,381,491
501,489,494,389,489
500,492,495,417,490
492,493,494,475,493
498,490,494,533,492
497,493,496,606,487
496,495,493,630,486
491,495,490,621,491
493,496,493,580,491
487,490,492,487,492
487,490,495,414,491
486,488,495,383,490
496,486,494,376,490
502,494,495,383,491
489,491,491,397,489
483,493,489,441,491
483,492,491,500,490
486,490,492,565,491
491,490,491,621,491
491,490,493,626,491
493,492,493,616,492
495,491,495,544,492
499,489,497,449,490
494,490,495,401,489
497,493,495,376,490
490,493,495,379,491
476,489,489,388,492
488,493,492,411,487
497,490,491,466,487
492,489,493,522,493
488,488,494,595,491
493,489,493,627,489
493,491,492,622,492
491,494,494,590,490
497,496,492,500,491
495,493,492,420,490
497,494,493,386,489
487,486,490,377,490
499,493,493,382,491
503,492,495,394,490
508,494,496,435,490
492,489,495,491,490
478,487,493,556,492
486,494,493,618,492
491,492,493,626,490
498,490,490,619,493
501,490,491,558,493
488,491,492,458,490
483,492,493,405,490
493,493,493,378,490
493,491,498,380,488
503,491,496,388,489
497,489,492,408,489
494,488,493,457,489
490,489,495,516,489
494,492,495,591,491
491,494,494,627,491
488,496,494,623,490
486,500,495,604,492
497,496,495,513,490
489,488,492,426,491
497,488,495,394,489
500,488,493,379,490
491,492,491,383,492
491,490,490,390,490
489,491,492,427,493
491,488,494,484,490
494,486,495,546,488
498,489,495,612,490
498,491,495,629,489
501,492,496,619,495
497,495,493,573,494
494,494,498,472,491
486,489,496,413,495
483,488,491,379,496
503,492,492,380,490
504,496,496,387,490
495,488,493,405,489
484,485,493,452,485
485,485,493,510,490
490,486,490,579,494
487,491,494,625,495
490,493,492,626,489
488,495,493,607,489
489,491,495,525,490
491,492,493,435,492
489,492,494,396,488
486,491,492,379,489
488,496,492,383,489
496,492,493,392,490
499,491,490,423,492
503,494,490,476,491
489,490,492,536,490
488,492,495,607,489
501,495,495,630,493
502,496,494,621,491
491,492,494,578,489
482,489,493,482,491
490,490,495,414,490
497,488,492,380,486
492,492,492,376,489
486,490,493,384,490
482,493,492,398,493
485,494,489,446,491
494,489,493,503,490
499,486,493,568,489
500,492,494,624,490
500,492,494,628,490
503,490,493,614,492
499,490,492,538,490
489,492,493,444,492
485,493,493,399,491
487,494,495,375,489
487,495,494,380,488
493,489,493,388,489
498,487,493,414,490
503,494,494,468,490
490,493,494,526,491
483,497,492,601,491
477,494,492,626,492
481,491,488,622,490
497,492,493,584,490
508,493,491,494,492
499,493,492,417,491
483,491,492,386,491
486,490,492,377,489
490,488,496,384,489
496,486,496,395,488
496,487,495,437,489
495,490,494,496,491
492,492,494,558,489
492,493,494,618,490
489,492,493,626,490
487,495,491,615,489
487,489,490,552,491
490,489,492,454,491
491,489,492,404,491
498,488,494,377,489
502,490,498,379,489
499,491,492,388,489
484,494,493,409,489
479,493,490,461,489
485,491,492,517,489
487,491,493,595,490
494,494,492,627,492
494,492,493,622,494
487,494,493,596,494
498,491,495,508,491
505,492,495,426,488
501,490,495,392,491
502,491,490,377,491
495,495,491,383,491
486,490,492,394,492
496,492,492,431,492
499,492,495,487,488
505,490,495,549,489
504,490,495,616,488
491,490,494,627,489
481,488,493,618,490
478,490,494,565,491
484,491,493,465,494
495,493,492,408,496
500,495,491,378,497
483,493,491,376,489
477,489,493,385,486
487,494,492,408,487
494,492,494,454,489
498,491,492,511,490
493,488,493,583,493
494,486,495,627,494
494,489,492,622,489
492,494,492,606,486
493,491,495,519,484
494,490,496,432,488
495,490,494,394,490
496,491,495,378,489
496,492,494,382,492
483,490,491,391,490
494,496,491,424,491
503,497,493,480,490
493,492,493,541,491
481,488,493,610,493
476,493,493,628,492
488,486,494,619,492
512,491,493,573,490
505,493,494,476,488
493,490,493,412,489
487,493,490,378,490
486,491,490,378,490
484,492,493,384,493
483,492,491,401,497
489,491,492,447,494
493,488,493,504,493
497,489,492,573,491
497,493,495,625,489
495,488,494,626,488
491,491,492,613,489
492,492,494,534,492
495,494,492,442,493
492,496,492,397,490
487,492,492,376,490
488,491,491,377,487
491,487,495,387,486
502,487,496,418,487
504,493,494,472,490
495,493,494,530,491
481,493,493,602,493
479,491,490,628,495
482,488,490,620,492
497,491,492,583,491
500,492,493,489,488
498,492,494,419,489
508,490,495,384,488
508,488,496,378,488
500,490,495,386,491
498,497,494,396,492
493,494,491,442,492
471,490,490,498,489
478,492,489,560,490
491,490,491,619,489
488,489,493,625,489
487,491,494,614,492
492,490,496,546,490
494,492,495,450,491
494,493,494,402,490
486,491,493,378,491
486,495,495,380,493
497,501,493,388,492
495,487,491,413,489
497,485,491,463,491
499,493,495,520,489
497,493,495,597,489
496,488,496,627,490
500,488,495,624,491
499,490,497,591,493
492,494,491,501,496
485,497,491,420,496
483,493,491,388,493
488,491,490,373,485
489,490,491,382,489
491,492,491,394,489
494,494,491,433,489
493,492,493,490,489
491,491,493,553,490
491,487,494,615,491
489,487,494,629,490
492,488,494,615,489
487,493,494,557,489
487,492,493,459,490
493,491,491,405,491
495,491,492,377,488
493,489,494,377,491
494,488,493,386,492
496,490,493,408,491
501,491,495,458,490
498,493,493,514,490
492,493,490,589,491
488,491,492,626,490
493,493,492,624,490
494,493,493,603,490
494,496,496,513,489
484,492,493,427,486
484,489,495,393,491
500,488,494,378,493
505,489,495,381,491
495,493,493,392,492
489,492,489,428,492
488,494,491,481,488
486,489,492,543,487
496,489,490,612,494
493,491,491,628,495
489,491,493,619,491
490,493,494,568,490
494,493,493,472,489
500,492,493,410,490
497,492,494,377,489
490,496,492,379,491
488,495,492,384,491
494,497,491,405,491
497,490,495,453,493
506,490,493,508,492
491,490,492,575,488
479,487,492,625,488
484,490,493,623,490
488,491,493,611,492
492,492,495,527,491
492,492,495,435,490
492,493,495,398,490
489,492,494,380,488
489,494,492,379,491
492,489,491,391,489
496,488,491,418,489
479,491,491,472,490
480,487,493,533,489
490,487,491,606,492
500,490,492,629,490
504,491,495,623,493
503,491,492,581,493
497,489,495,483,488
492,490,493,415,492
487,492,491,380,495
485,495,491,377,495
488,493,492,384,489
491,491,492,397,486
494,489,492,443,491
501,491,494,501,491
506,491,494,565,488
498,491,494,624,490
488,487,493,625,490
493,492,493,612,491
493,494,494,540,490
488,493,492,445,491
482,492,492,400,491
485,491,491,378,490
488,492,491,380,492
494,491,492,388,491
496,493,495,414,489
497,491,494,467,489
490,488,493,526,488
488,487,493,598,489
494,489,493,627,488
491,492,491,622,490
487,489,492,586,491
495,492,491,494,492
493,492,493,420,492
493,490,492,386,492
494,493,490,375,490
491,491,492,383,490
492,491,492,392,489
496,491,491,437,490
495,493,493,494,490
493,492,492,557,490
494,496,492,618,491
487,494,492,626,489
491,490,492,615,491
491,491,493,554,491
492,490,492,454,491
492,490,492,402,490
490,492,493,375,489
493,492,491,378,490
490,495,491,384,491
490,487,492,411,490
493,488,492,460,490
491,490,491,517,491
489,490,493,591,489
489,490,492,625,491
492,492,491,623,489
493,492,495,597,490
493,492,493,508,491
493,492,492,426,491
492,491,493,392,491
494,491,493,375,489
491,490,492,382,492
491,489,492,391,492
490,489,493,428,490
492,491,494,485,490
490,492,492,549,490
487,493,494,615,492
493,488,493,629,491
495,491,491,619,491
494,490,491,567,491
492,491,493,465,490
493,492,491,408,491
492,493,491,376,491
490,491,492,376,489
490,492,492,384,489
488,492,494,403,492
486,490,493,454,490
490,489,492,509,490
492,489,491,583,491
493,490,491,626,491
495,490,493,623,491
492,492,492,610,491
489,490,494,521,491
491,492,492,432,491
490,492,493,395,490
494,492,493,376,490
494,492,491,381,490
493,492,494,389,489
492,490,492,423,491
492,492,494,477,491
493,491,493,538,491
490,490,493,607,490
493,492,495,628,491
496,489,493,622,491
496,490,492,575,492
493,491,494,479,490
492,489,492,414,491
487,490,492,382,491
497,492,495,378,489
495,490,492,384,490
494,490,490,398,489
494,489,493,446,489
499,490,492,503,490
497,492,492,569,491
483,490,493,624,490
479,493,492,623,489
488,493,492,612,492
492,492,492,535,492
490,491,492,441,491
489,490,493,397,490
493,492,491,375,490
491,492,491,379,492
492,492,493,389,490
493,492,492,417,491
494,492,492,468,492
492,492,493,528,491
492,490,491,603,490
491,493,491,627,491
490,493,493,620,490
489,492,493,581,490
491,491,492,491,491
494,491,492,416,490
493,491,492,383,491
493,493,493,379,491
493,491,492,385,492
492,490,491,396,492
490,493,493,439,491
491,490,493,496,490
492,491,493,559,488
489,492,494,619,490
491,492,494,627,490
491,493,492,616,491
496,491,494,546,491
495,493,492,451,492
494,493,494,402,491
493,491,493,378,493
492,488,493,377,491
491,489,493,388,491
493,491,495,410,489
491,490,492,463,492
493,492,494,521,490
493,493,492,598,491
494,492,492,628,492
492,492,493,622,492
492,490,492,593,490
494,493,493,502,491
492,492,493,422,490
492,492,494,389,490
492,492,491,376,492
492,492,492,384,490
491,491,493,390,491
494,491,492,435,490
492,490,492,490,490
492,490,492,550,491
491,490,492,616,490
493,493,494,627,490
492,492,491,617,493
491,493,495,561,491
493,492,494,462,492
492,492,492,407,491
492,491,494,374,491
494,490,492,378,490
493,492,492,385,491
492,491,492,405,491
491,491,492,455,491
493,492,493,513,491
493,492,495,587,490
492,491,493,626,491
493,493,492,625,492
495,490,491,606,492
495,490,492,517,491
493,492,492,429,492
492,491,492,394,491
494,491,492,374,490
492,492,494,380,489
492,492,493,391,490
491,492,493,425,490
492,492,492,481,490
492,492,492,541,490
491,491,491,612,492
492,491,493,628,491
491,491,493,618,492
491,491,492,573,492
494,492,494,473,492
494,492,492,411,491
493,493,493,379,489
492,494,492,379,491
494,491,491,385,490
493,493,493,404,492
494,490,493,448,491
493,492,492,506,492
492,492,493,573,491
490,491,494,623,490
491,492,492,625,491
492,493,493,612,492
493,489,493,528,491
495,493,492,436,490
494,492,492,398,491
495,491,491,379,492
494,491,492,379,490
494,490,493,387,491
495,491,491,420,490
493,490,493,472,491
492,491,493,533,490
493,492,493,604,492
492,493,493,630,491
493,493,493,619,491
493,494,492,580,494
493,492,493,485,492
494,491,492,415,492
492,491,491,383,491
492,490,493,376,492
494,490,492,383,490
493,493,493,396,489
492,494,493,442,491
494,494,493,498,491
494,493,492,566,492
494,493,494,621,491
493,490,493,623,490
492,491,494,612,490
492,491,495,541,491
494,491,493,447,491
494,491,492,401,490
493,495,493,376,492
493,494,491,380,491
494,494,491,388,492
494,491,492,414,492
494,491,492,464,490
493,491,492,523,491
493,491,491,597,490
492,492,493,627,490
493,493,493,623,490
495,494,494,587,494
493,493,493,498,492
494,494,493,420,492
496,491,492,387,493
495,491,491,376,492
492,491,493,382,491
495,491,491,394,490
492,491,494,437,491
493,492,493,493,491
494,493,493,555,490
494,494,493,619,492
494,492,491,627,492
493,493,493,615,489
493,491,492,556,491
495,492,493,455,492
494,492,492,403,490
493,492,494,376,490
492,492,494,378,492
493,491,493,387,490
493,490,493,407,491
494,491,491,460,490
493,492,492,517,491
493,490,493,591,492
493,493,491,627,491
493,492,494,625,492
495,492,495,597,491
494,494,494,511,491
494,493,494,428,491
493,493,492,392,492
493,494,492,378,491
493,492,494,382,492
494,490,492,392,493
494,490,492,428,491
493,492,493,486,492
493,491,493,547,492
495,491,495,611,490
493,494,493,629,492
494,495,492,619,491
495,494,493,570,492
495,492,493,469,492
493,491,493,407,492
493,492,492,378,490
493,494,493,376,491
494,492,493,384,490
493,491,495,404,489
493,491,492,452,491
493,492,492,509,490
493,491,493,579,491
495,492,491,625,492
494,492,492,624,492
494,491,493,609,491
495,494,493,522,492
494,494,493,435,491
494,493,494,395,490
494,492,494,376,490
495,493,493,381,490
494,492,492,391,491
492,491,494,420,491
494,492,493,476,492
494,492,493,537,492
494,491,493,606,492
493,492,494,627,490
492,492,492,621,492
495,492,495,576,490
494,491,493,481,492
495,493,493,413,491
496,493,491,382,491
495,492,492,379,490
492,493,493,383,492
494,491,493,400,490
495,491,493,445,491
494,491,492,500,491
493,492,494,567,490
493,490,491,623,492
495,492,492,626,491
493,492,495,615,493
496,492,492,537,493
496,493,493,443,492
495,492,493,399,492
493,491,493,377,490
494,492,494,378,490
495,491,492,390,490
493,493,494,414,490
493,493,493,468,491
494,493,494,528,491
493,491,494,603,492
494,493,494,628,490
494,490,493,620,492
493,491,493,583,492
494,492,494,492,492
494,492,493,419,492
493,492,493,384,493
494,492,492,377,491
495,493,492,383,491
495,493,492,395,492
496,492,492,438,490
493,492,492,495,491
494,492,492,559,490
492,490,493,618,491
493,491,493,625,490
494,492,494,615,491
494,494,495,551,493
494,494,493,451,492
494,495,494,402,491
493,492,491,378,492
495,491,492,377,492
493,491,493,386,492
492,494,492,411,491
493,493,493,460,492
494,494,493,519,491
494,492,493,593,490
494,492,492,628,491
495,492,492,622,490
493,492,491,595,493
496,494,494,504,491
495,492,493,422,493
494,493,492,388,492
493,492,493,375,490
494,492,492,383,490
494,493,493,391,493
493,492,492,433,491
493,493,492,488,491
493,493,492,549,491
494,492,492,615,492
492,493,493,628,491
492,490,494,615,492
495,494,493,561,492
494,494,493,462,493
496,493,493,407,491
495,493,493,377,493
494,491,491,378,491
495,492,493,384,490
495,490,491,408,493
494,491,492,454,493
495,493,492,512,491
494,493,492,585,491
493,491,494,626,492
494,492,494,624,491
494,493,492,605,491
495,495,493,518,492
495,494,494,431,492
493,492,492,394,493
494,493,495,375,492
493,491,493,381,492
492,491,493,389,491
492,492,494,424,490
493,493,493,481,491
493,492,492,541,490
493,491,493,610,492
495,492,492,629,492
495,491,491,620,493
495,493,492,575,494
494,494,494,475,494
495,493,492,411,491
495,494,494,378,491
492,491,493,376,490
494,493,493,384,490
494,493,492,402,492
492,493,492,449,491
494,493,494,505,491
494,492,492,575,493
494,491,492,624,492
493,491,493,624,491
494,492,492,610,491
493,493,492,532,492
494,495,494,438,491
493,494,493,399,491
496,493,493,377,490
495,493,492,381,491
493,492,493,388,492
495,491,491,417,490
493,494,492,473,490
493,491,492,530,491
493,492,493,602,490
493,493,492,629,492
494,493,493,622,492
494,492,493,581,491
496,494,493,488,492
495,493,492,416,492
494,491,492,384,490
493,493,494,376,493
492,491,492,384,491
495,491,494,395,490
493,491,494,441,492
494,493,494,499,491
494,492,493,562,492
494,493,492,623,490
493,495,493,627,492
494,492,493,614,493
494,492,492,544,493
494,493,493,448,491
494,492,493,403,491
494,492,494,375,490
494,492,492,379,490
493,493,493,388,491
495,494,492,413,491
495,492,492,464,491
492,491,493,523,491
493,490,493,596,490
493,491,494,627,491
493,492,494,621,491
493,494,495,588,491
493,494,493,502,492
494,493,493,422,492
494,491,493,389,492
495,493,492,378,492
495,490,492,383,492
494,491,492,394,490
493,495,493,435,492
492,494,494,490,491
494,493,494,554,490
493,493,495,617,491
493,494,492,627,491
494,493,492,617,491
494,491,494,560,492
496,493,493,457,492
494,493,492,406,492
494,491,493,377,493
493,491,493,377,491
493,493,492,387,491
493,493,494,406,493
495,491,492,458,490
494,491,493,515,491
493,492,492,589,491
495,493,492,625,490
492,493,493,624,493
493,494,493,601,491
495,492,493,512,492
495,493,493,430,492
494,492,493,392,490
495,491,492,380,490
492,493,493,382,492
491,494,492,392,491
495,492,492,430,491
496,492,493,484,491
496,492,492,544,492
494,493,494,612,490
493,491,493,626,492
495,492,491,618,490
493,493,495,569,490
494,493,493,469,492
494,492,493,410,492
493,491,492,380,491
495,491,493,375,490
494,491,492,386,492
493,492,492,404,493
493,492,492,450,491
493,492,492,508,491
493,491,494,579,492
494,491,494,624,490
493,493,493,625,491
495,491,492,610,492
497,493,495,524,492
495,493,493,436,492
494,492,493,395,492
494,492,492,376,491
493,493,494,379,490
493,493,493,389,490
492,493,494,421,492
493,492,493,475,491
494,492,493,534,491
495,493,492,608,492
495,492,492,630,493
494,491,492,620,492
494,495,494,579,492
493,491,493,482,491
495,493,493,413,491
493,493,494,382,490
493,493,493,378,490
494,493,493,383,491
493,493,491,402,491
492,492,494,442,491
494,492,493,502,491
493,491,492,567,492
492,490,493,622,492
494,492,492,625,489
493,493,492,614,494
495,495,494,538,491
493,495,494,445,491
493,493,493,401,491
496,493,491,378,491
494,493,494,378,492
493,490,493,388,490
495,494,493,412,490
492,491,493,468,492
494,492,494,526,491
493,492,492,601,492
494,493,493,630,491
492,491,493,620,492
495,492,491,587,492
495,492,492,495,492
495,492,492,418,490
494,493,492,384,491
492,491,492,377,492
495,493,493,381,490
494,493,493,393,490
493,494,493,438,490
493,491,492,493,491
494,492,492,559,490
492,492,494,620,492
494,491,493,625,491
492,492,495,616,491
493,491,494,551,492
494,493,493,455,492
494,493,494,405,491
493,492,492,377,490
494,494,492,380,491
495,491,491,388,492
494,491,491,411,490
492,493,493,462,492
492,492,494,518,491
495,491,494,591,491
493,492,494,627,490
493,492,494,623,490
494,491,492,597,493
494,495,493,509,492
494,492,493,423,491
496,492,492,391,492
495,491,492,378,492
493,489,493,383,490
495,492,493,390,491
492,492,491,432,492
493,492,493,486,490
492,492,493,548,490
493,492,493,614,490
494,492,491,628,490
493,493,494,618,493
496,493,495,565,492
495,495,493,464,492
494,494,493,408,491
493,492,494,376,491
492,491,491,378,492
493,493,494,387,492
493,490,492,406,490
495,493,492,454,490
494,493,493,512,492
494,492,492,581,490
493,494,493,625,491
493,493,492,626,492
492,492,494,604,491
493,493,495,520,491
494,492,494,432,491
495,491,492,394,490
494,494,493,377,490
492,492,491,382,492
494,491,491,390,492
494,491,492,424,492
493,491,492,478,491
493,493,492,539,490
492,491,494,608,492
493,491,491,628,490
494,494,493,620,491
495,494,493,576,492
496,493,493,475,492
494,492,493,412,491
493,492,494,380,490
495,490,492,375,490
493,491,494,383,490
492,492,494,400,490
495,491,492,447,490
493,493,494,505,492
492,492,492,574,491
496,493,492,624,492
495,492,492,626,492
494,490,493,613,490
494,491,493,531,492
495,493,493,440,492
493,491,493,396,490
493,493,494,376,490
492,494,493,381,490
493,492,492,387,491
494,491,492,419,491
495,491,493,471,491
494,492,492,530,492
493,491,493,604,492
493,491,494,628,491
495,491,491,622,489
493,492,495,585,493
494,492,493,488,492
494,494,492,417,491
493,495,492,386,491
494,492,493,376,490
492,490,493,384,492
494,492,495,397,493
494,490,493,440,491
493,492,494,499,492
493,491,495,562,492
494,491,492,620,490
494,494,493,626,490
492,493,491,617,492
495,493,492,547,492
494,494,493,450,491
495,492,492,403,492
495,493,493,376,492
493,491,493,380,492
495,492,494,386,490
493,493,494,410,490
493,493,493,464,490
493,490,492,520,491
493,493,492,597,491
492,492,493,627,492
494,491,492,621,492
493,491,493,591,492
493,491,494,502,492
495,492,492,419,491
493,492,493,390,493
494,492,494,377,490
495,493,492,383,490
494,494,492,394,490
495,492,494,432,490
493,493,493,490,491
494,493,494,552,491
492,491,493,615,491
493,493,494,626,489
493,493,494,617,490
492,493,492,561,493
494,493,494,460,492
494,492,493,407,492
494,493,491,378,491
495,492,492,378,492
494,490,493,386,491
494,493,492,405,491
493,492,492,458,491
493,492,493,513,490
492,492,493,586,489
493,493,493,627,490
495,491,493,622,490
495,492,492,604,491
493,494,494,515,493
495,492,493,430,492
494,492,492,392,491
492,491,493,379,491
495,491,493,380,489
493,491,492,391,492
493,494,492,428,491
494,492,493,481,492
495,493,493,544,492
494,491,492,612,491
493,493,493,627,491
491,493,492,620,492
495,491,494,568,491
494,492,493,470,492
494,493,494,411,490
493,491,492,379,493
494,494,492,379,490
492,492,494,386,492
494,491,491,404,493
494,491,492,450,491
493,491,493,507,490
493,492,493,575,491
492,494,492,625,492
493,492,494,625,491
494,493,493,610,490
494,496,493,528,491
494,491,493,438,491
495,491,492,395,490
493,491,492,378,492
493,489,493,379,491
493,489,493,387,491
492,491,494,419,490
493,492,493,476,492
494,495,494,534,491
493,493,493,608,490
494,492,493,629,492
494,491,492,621,492
494,492,492,580,490
493,493,493,483,492
493,492,494,416,490
493,491,494,382,490
493,492,493,376,489
493,493,493,385,490
493,491,492,399,490
495,492,492,443,490
493,491,493,503,491
493,491,491,566,492
494,491,492,622,491
494,491,493,627,491
495,492,495,612,491
496,493,492,542,490
494,492,494,446,491
493,492,492,400,490
494,494,492,377,490
493,494,491,378,490
493,492,492,388,492
494,493,494,413,490
491,491,493,467,492
493,492,493,524,491
494,492,494,598,490
495,491,492,630,490
494,493,492,620,491
492,491,492,589,491
495,493,492,497,491
493,493,492,419,491
495,491,493,387,490
493,490,492,375,492
495,493,492,384,490
492,492,493,393,490
492,492,494,435,490
493,492,492,493,491
493,491,493,558,490
494,492,493,616,489
492,491,492,628,491
493,490,493,617,493
494,492,492,554,492
492,495,493,456,491
492,494,493,405,491
493,492,494,378,492
495,490,494,380,491
495,492,492,386,491
495,493,491,410,490
494,492,494,458,491
494,492,492,517,492
494,493,493,592,491
492,490,494,626,491
492,491,493,621,489
493,492,494,597,493
494,490,493,509,491
494,493,492,424,491
493,494,492,393,491
494,492,491,378,492
494,491,492,381,492
493,493,492,392,489
492,491,493,428,491
494,492,492,486,490
492,492,493,548,489
492,492,493,612,490
494,493,493,628,491
494,493,494,617,490
492,492,492,567,493
494,494,494,465,491
494,492,492,408,491
493,491,493,374,491
492,492,493,377,491
494,491,492,385,490
494,492,492,404,492
492,492,492,455,491
494,491,494,511,492
494,491,491,582,492
495,494,495,626,490
492,493,493,622,491
494,493,491,605,490
493,493,495,521,491
493,492,493,433,490
493,492,493,395,491
493,491,493,378,491
495,492,493,380,489
494,492,492,391,492
494,490,492,423,492
492,491,492,477,491
493,492,493,536,490
494,491,492,607,490
493,494,492,628,491
493,494,493,621,492
495,494,492,577,492
496,493,493,478,491
494,493,494,413,491
493,492,492,380,489
494,494,492,375,490
492,492,494,384,490
492,492,494,398,490
492,492,493,447,492
494,493,494,504,491
494,492,493,568,491
494,493,493,625,492
494,490,492,626,492
493,490,493,611,493
494,495,493,536,491
493,492,493,441,491
494,493,493,397,490
492,493,495,376,490
492,493,492,381,491
494,492,491,389,490
495,491,494,414,490
494,491,492,470,491
493,492,494,529,491
492,490,493,601,492
491,492,493,627,491
493,492,494,622,491
494,491,496,583,490
494,492,492,491,492
494,493,493,418,490
493,492,492,386,492
495,492,491,377,491
493,493,494,383,492
492,492,492,396,490
495,492,493,438,491
494,491,494,497,491
493,492,494,559,490
493,493,492,620,491
492,493,493,628,491
493,492,494,613,492
495,492,492,549,492
494,492,492,451,491
494,492,492,402,492
494,491,492,378,489
494,492,493,378,490
493,491,492,387,492
492,492,494,411,489
493,492,493,462,490
494,491,492,519,491
492,492,493,594,491
495,492,492,627,490
494,494,493,621,491
492,493,494,592,492
492,493,493,503,492
495,492,493,424,491
494,493,493,390,490
493,490,491,375,490
494,493,492,384,491
494,491,492,393,492
494,491,492,433,490
494,493,495,490,491
493,491,492,552,491
495,491,494,614,490
494,492,494,627,490
494,492,493,618,491
494,494,493,562,491
493,494,493,461,491
493,493,492,406,490
493,492,492,377,492
494,491,492,378,492
492,490,492,384,491
493,492,491,408,490
494,492,493,455,490
493,492,492,513,490
493,493,493,586,490
493,493,491,627,491
494,491,492,623,490
493,494,494,605,493
495,492,493,516,492
494,494,492,429,491
493,494,493,393,491
493,490,493,376,490
493,491,491,381,492
494,492,493,392,492
492,490,493,427,491
495,493,494,481,491
494,492,493,543,492
494,490,492,611,493
493,491,493,628,491
494,492,494,617,490
495,492,491,573,490
493,492,494,473,491
493,492,493,411,491
494,493,492,380,492
493,491,493,379,491
494,491,494,384,490
493,492,491,403,492
493,491,493,450,491
493,492,492,506,491
493,492,492,575,490
492,491,494,624,492
493,491,492,625,490
494,493,493,611,491
495,495,492,530,491
494,493,493,437,491
493,492,492,396,492
494,493,494,376,490
493,490,493,378,491
492,492,493,388,490
492,491,493,418,490
494,492,494,471,491
494,492,493,534,490
494,491,493,605,491
493,490,492,629,491
494,490,492,622,492
493,489,492,581,494
494,493,493,485,491
494,495,492,415,490
494,494,492,380,490
492,493,494,377,489
493,493,493,384,490
493,493,493,396,491
492,491,492,444,490
494,491,493,500,491
494,492,492,565,491
493,491,492,622,491
492,491,494,626,491
494,492,492,615,490
492,492,496,544,492
494,492,493,446,491
494,494,492,401,490
494,494,492,378,490
494,494,491,380,491
495,492,494,386,489
493,491,492,414,490
494,494,493,465,492
493,492,493,522,490
492,492,494,597,490
492,492,494,628,491
493,491,492,623,490
494,491,493,588,491
495,493,492,498,491
494,493,493,421,491
494,491,492,388,493
493,493,494,376,491
492,492,493,385,491
494,491,493,391,489
493,493,494,435,490
493,492,493,493,490
492,491,493,553,491
492,493,492,619,491
492,492,493,627,492
494,491,493,616,492
494,492,492,556,492
493,492,493,458,491
493,492,492,406,491
495,492,494,376,490
492,491,492,378,491
494,493,492,387,490
494,493,492,410,490
494,492,492,460,491
494,492,494,515,491
494,491,493,591,490
494,494,493,625,491
493,492,493,622,489
492,493,495,599,490
492,493,492,512,492
494,493,493,426,490
493,491,493,392,491
495,493,491,378,491
495,492,492,383,492
493,492,492,392,489
493,493,492,427,490
493,492,493,486,490
494,491,493,545,489
492,492,494,610,489
493,493,493,629,490
494,492,492,620,492
493,491,494,566,492
495,492,493,468,491
493,491,492,408,492
494,490,492,377,492
493,490,493,377,490
492,491,491,386,492
494,495,494,404,489
493,493,492,453,490
494,493,493,510,491
494,493,492,581,491
494,493,492,626,491
494,493,493,623,492
492,491,492,610,490
494,491,493,521,492
494,492,493,433,491
493,492,494,396,490
493,491,492,379,492
494,494,492,382,490
492,491,494,391,491
495,491,491,423,491
494,492,492,476,490
493,492,493,536,491
492,490,492,607,490
494,492,494,626,489
494,491,492,621,491
494,494,494,575,490
494,494,494,480,491
494,493,493,414,491
493,492,493,382,491
495,492,494,377,490
494,491,492,383,491
493,491,493,397,490
492,492,494,445,490
493,492,493,502,492
494,493,494,568,492
493,491,493,625,491
494,492,492,626,492
494,491,492,614,491
495,492,492,536,490
494,493,492,441,491
492,495,493,400,491
489,493,494,375,492
494,493,494,379,490
495,493,494,389,490
494,492,494,416,492
493,491,493,469,491
493,493,493,527,491
492,490,492,603,493
494,491,493,627,491
492,492,494,621,491
493,493,492,587,492
494,493,495,492,492
494,494,493,418,491
492,495,493,386,490
495,493,493,377,491
495,491,492,382,490
494,492,492,396,493
494,494,494,439,490
493,491,493,496,493
494,492,494,557,490
492,492,495,618,490
494,492,492,627,491
494,494,492,614,491
492,492,492,552,492
495,493,493,452,491
494,493,492,404,491
494,492,492,379,493
494,493,493,380,491
493,492,494,386,491
494,492,492,409,490
492,491,494,461,490
493,492,494,519,490
493,493,493,594,492
492,491,491,628,492
494,494,494,623,491
494,492,492,595,494
494,493,493,506,492
495,494,494,423,492
494,493,492,392,491
493,492,495,377,492
493,491,493,384,491
494,493,491,393,490
495,493,492,432,491
494,493,495,488,492
494,492,493,550,492
494,494,494,615,492
492,492,494,627,491
493,492,494,616,489
492,492,495,563,491
494,492,494,465,492
494,490,493,407,491
494,491,494,376,491
495,491,491,380,492
494,492,492,386,492
493,493,492,407,492
493,493,492,455,491
493,493,492,512,491
493,493,494,584,490
492,493,493,626,491
494,493,492,625,491
495,494,495,605,492
493,493,492,519,492
494,494,493,432,492
494,492,493,394,492
493,491,492,377,491
492,493,494,381,492
493,493,492,391,490
492,493,492,425,491
493,492,495,481,492
493,492,493,542,492
494,493,491,611,491
493,492,493,628,492
494,492,493,620,492
494,491,493,574,491
495,494,494,474,492
492,493,493,411,490
492,493,494,378,489
494,493,493,378,491
493,492,491,386,491
493,492,494,399,492
494,492,492,449,491
494,492,493,504,491
493,491,493,571,490
493,493,493,623,490
493,492,492,625,492
494,493,493,612,490
494,495,494,531,492
495,494,494,439,491
494,493,493,398,490
495,491,492,379,490
494,494,493,380,491
492,492,493,389,491
492,491,494,416,491
492,492,494,472,492
494,493,493,533,492
493,493,494,605,490
493,493,494,628,492
494,491,492,623,492
494,491,491,583,493
495,492,492,488,491
493,493,493,416,492
493,492,492,384,491
495,492,494,376,490
493,493,493,384,490
493,493,494,396,490
494,491,494,441,491
493,492,493,498,491
493,492,494,565,492
493,491,493,622,492
493,491,494,625,491
493,492,494,616,492
495,494,495,543,491
494,493,492,448,492
493,493,493,402,491
493,493,493,378,491
494,491,492,379,492
495,490,492,388,490
493,491,494,413,493
494,491,493,464,491
493,494,493,523,491
492,492,494,596,491
492,493,494,627,490
493,493,493,623,492
494,493,493,591,492
493,493,493,501,491
494,493,493,422,491
493,492,492,389,493
494,491,491,377,490
494,494,494,382,491
492,492,491,394,491
492,493,494,434,490
491,492,493,491,491
493,493,493,553,490
492,491,493,615,492
494,492,492,626,490
493,494,493,617,492
494,492,493,558,492
493,492,493,459,492
494,492,493,405,491
492,493,492,379,491
492,493,494,378,492
493,491,493,387,491
494,493,492,410,491
494,491,492,457,492
494,493,493,513,491
493,493,492,589,493
493,493,492,627,491
492,493,494,622,490
492,493,494,600,491
492,493,494,513,491
495,493,493,428,490
493,493,492,392,491
492,492,491,379,491
493,492,492,382,492
494,491,492,391,493
493,491,492,428,490
493,493,493,484,491
493,492,492,545,489
492,493,494,611,489
492,494,493,629,491
494,493,492,620,492
496,494,492,567,490
493,492,493,471,492
494,492,493,408,490
493,492,493,377,493
492,491,493,377,490
493,491,493,384,490
494,491,492,405,489
493,493,493,452,492
494,494,494,509,491
494,493,492,580,492
495,492,492,625,492
493,491,493,624,490
494,492,494,608,492
495,494,492,526,491
494,493,493,434,491
493,492,494,397,490
492,492,494,377,492
493,492,493,382,491
494,493,493,389,491
492,492,491,422,492
492,492,492,476,491
493,491,493,535,492
493,490,493,605,491
495,492,492,629,490
493,493,494,621,493
493,491,494,578,490
495,494,493,483,491
494,493,493,415,491
494,492,493,380,490
492,491,493,378,492
493,492,492,385,491
492,491,493,398,491
492,491,494,445,491
493,491,494,502,492
494,491,493,568,490
493,495,493,623,491
492,494,492,627,492
495,491,492,615,493
494,492,492,540,493
494,493,494,443,491
494,493,493,400,491
493,494,492,375,491
491,493,494,378,490
493,493,493,389,490
494,493,493,415,490
494,493,492,467,491
493,493,493,527,491
492,492,494,599,492
493,493,493,628,491
493,492,495,621,492
493,492,494,585,492
496,493,493,494,491
494,493,492,419,492
493,493,492,386,491
494,495,493,377,491
494,492,492,384,492
494,493,493,392,490
493,492,492,437,490
492,494,494,494,492
494,491,493,556,490
492,491,495,618,490
493,493,493,627,492
491,492,493,616,490
493,491,494,550,492
496,493,492,454,491
495,493,492,404,491
493,492,492,379,492
492,491,492,378,491
495,493,492,385,490
493,491,491,412,492
494,492,493,460,490
493,492,494,517,490
493,493,493,593,490
493,490,493,625,490
494,493,492,624,490
493,494,495,597,494
494,491,493,506,492
494,493,493,425,491
492,491,493,391,491
495,492,494,376,489
493,491,492,383,492
494,492,491,392,490
494,493,492,432,491
494,493,494,487,491
493,492,493,547,492
493,491,493,615,490
494,492,493,626,490
492,492,493,616,489
491,492,495,564,489
493,492,494,466,491
493,491,491,408,491
493,493,492,378,491
491,492,493,378,492
494,491,492,385,491
493,491,491,406,492
492,490,492,453,490
493,491,492,509,490
492,491,492,584,491
492,492,494,625,489
493,493,492,624,490
494,494,492,607,491
492,491,494,517,491
494,493,493,432,491
492,492,492,394,492
493,490,491,376,491
492,492,493,380,490
491,492,491,391,492
493,493,494,423,490
492,492,493,480,491
491,493,492,540,491
493,494,491,609,491
495,490,492,628,491
493,490,493,619,491
494,494,492,574,492
493,494,493,477,491
492,493,492,410,490
492,492,494,379,489
493,492,494,378,490
492,490,492,383,490
494,492,492,400,489
491,491,491,448,491
493,492,492,504,491
493,490,492,570,491
492,490,492,624,491
494,492,493,623,489
494,490,493,613,489
493,493,495,532,491
494,493,493,440,490
493,493,492,399,490
492,492,493,379,491
494,491,493,380,489
493,491,492,387,491
492,490,492,415,490
493,492,494,470,491
493,492,494,530,490
493,491,492,603,490
493,493,493,628,491
492,491,492,622,492
494,491,491,583,492
494,492,493,490,492
494,492,493,416,491
493,491,492,383,491
494,493,492,378,489
492,492,494,382,489
493,493,493,394,488
492,493,493,440,491
492,491,492,497,490
493,492,493,560,489
491,491,491,622,492
493,490,493,625,491
492,491,494,614,492
492,492,493,548,492
493,492,493,449,491
494,493,492,402,491
493,494,493,376,490
493,493,491,380,491
494,492,491,388,491
494,491,494,410,490
493,492,493,464,492
493,493,494,521,491
492,492,493,595,491
492,492,494,626,490
492,493,493,623,492
493,490,491,591,489
493,494,493,501,492
493,493,492,422,490
493,492,491,389,491
495,492,491,377,491
492,493,493,383,490
492,491,493,390,489
494,493,492,433,490
492,491,493,491,491
492,492,493,551,489
493,494,493,616,491
492,491,492,627,491
495,493,494,615,490
495,492,492,561,492
494,492,493,460,491
493,492,492,406,491
492,492,493,375,490
495,491,491,376,489
493,492,492,386,492
493,492,493,408,490
494,493,493,457,491
494,493,493,514,491
494,492,494,586,490
494,491,493,625,490
494,493,492,623,490
492,491,493,600,490
492,492,493,515,490
493,492,493,429,492
493,491,492,393,490
494,491,492,376,491
494,491,491,384,492
494,491,491,392,492
494,491,492,427,491
493,492,493,482,491
493,491,493,544,490
494,492,494,610,490
492,492,493,629,490
494,493,493,620,491
494,495,494,572,490
495,493,493,472,492
494,493,492,410,490
492,492,495,381,492
494,490,492,377,491
492,491,493,384,491
492,491,494,405,491
494,491,493,448,490
493,492,493,508,492
493,493,494,578,490
494,492,493,625,491
494,492,492,625,491
493,492,494,609,493
494,491,492,526,490
494,494,493,436,491
493,490,493,396,490
493,491,494,375,489
493,491,492,381,492
493,493,492,390,490
492,491,492,418,490
494,491,492,475,490
493,491,492,534,491
493,491,491,606,491
491,493,493,628,491
494,491,494,618,490
494,491,492,581,492
493,492,494,483,491
494,492,492,414,490
494,493,492,382,490
492,490,493,375,492
494,490,491,381,489
493,492,492,399,492
493,489,492,443,491
493,490,493,500,492
493,492,492,566,491
494,492,494,621,490
494,492,493,624,490
494,493,492,615,489
494,493,492,541,491
494,492,492,445,491
493,491,493,401,492
493,490,494,375,490
493,490,494,378,490
491,491,493,387,490
492,493,494,411,490
492,492,493,465,490
493,491,492,525,490
493,493,492,598,491
492,492,492,630,491
493,491,492,622,493
494,491,492,588,493
493,493,494,497,491
492,493,493,419,491
493,491,492,388,489
493,491,495,377,489
494,492,493,384,490
494,493,492,394,491
491,491,493,438,491
493,493,493,494,491
492,493,493,557,492
493,490,493,619,491
492,493,494,625,490
492,492,491,617,491
492,492,494,554,492
494,492,492,454,490
493,492,493,405,490
493,492,492,378,490
494,491,491,378,491
493,491,494,386,490
493,490,492,408,492
493,493,492,459,491
492,492,492,516,490
492,491,494,589,490
491,493,493,626,491
491,491,493,626,491
496,492,494,595,491
493,493,492,510,491
494,493,492,425,491
494,491,492,391,492
494,494,493,378,490
492,491,494,381,491
495,491,492,391,489
492,493,494,431,490
492,492,494,486,492
494,493,492,546,490
492,491,492,615,491
494,492,494,627,490
492,491,493,617,491
491,492,493,566,491
492,491,492,467,491
494,492,493,408,491
493,493,492,377,489
491,493,492,377,491
491,493,492,387,491
495,491,491,408,491
495,490,492,452,490
494,491,493,509,489
492,490,492,580,490
494,493,492,624,490
492,492,494,624,489
493,493,494,607,490
494,493,493,521,492
494,490,493,435,490
493,489,493,394,490
495,490,491,379,491
493,491,492,381,492
492,493,492,389,491
494,495,492,424,489
491,492,493,479,491
494,492,493,538,489
493,493,494,609,490
493,493,493,630,492
494,492,491,620,492
494,492,495,575,490
493,491,492,479,491
494,492,493,413,490
492,491,493,380,491
491,491,493,376,490
493,492,493,385,491
493,491,493,400,489
493,491,492,445,491
493,492,493,505,490
492,490,492,571,491
493,491,491,622,491
493,493,493,626,491
491,491,494,614,491
496,493,495,533,490
493,493,494,442,491
493,492,493,399,490
493,494,492,376,492
491,493,492,381,491
491,492,493,388,491
495,491,491,416,491
493,491,493,471,491
493,491,493,527,491
490,492,493,603,491
494,491,494,628,490
494,489,492,619,492
495,493,493,585,490
495,493,492,492,491
494,492,492,417,491
493,492,493,384,492
494,491,492,376,490
494,493,493,381,490
492,492,493,393,490
491,491,494,439,490
492,491,492,496,490
493,492,493,560,490
492,490,492,618,491
494,492,492,627,491
494,491,492,616,492
494,491,492,550,491
494,493,493,451,491
493,491,492,403,491
494,492,493,374,490
492,492,494,378,489
492,492,493,388,490
493,492,492,411,490
492,491,493,462,491
493,493,493,520,491
493,492,492,596,492
493,491,493,627,491
492,491,493,621,490
492,491,492,594,491
495,492,494,504,491
494,492,492,422,490
493,492,492,389,490
493,494,493,378,491
494,492,491,383,490
492,492,493,393,492
494,489,493,432,490
493,491,492,488,491
492,492,493,549,490
491,491,494,613,490
492,491,492,627,492
493,494,494,619,492
492,490,493,562,491
494,492,492,462,491
493,492,492,408,491
493,491,492,378,492
494,491,492,378,490
494,491,493,385,490
494,491,491,408,490
492,491,493,455,491
493,492,494,513,491
491,496,492,585,491
491,492,493,627,491
495,491,494,623,489
493,490,492,604,492
494,492,493,517,492
493,493,493,430,492
492,494,491,394,491
492,491,494,376,491
493,491,492,381,490
493,494,492,390,490
494,493,492,427,490
494,492,492,480,490
492,492,492,542,491
493,492,493,610,489
492,491,492,625,490
492,492,494,618,490
493,492,495,571,490
493,492,494,473,492
494,492,492,411,490
493,493,492,379,492
492,493,491,378,491
494,492,491,385,491
493,492,491,404,492
492,494,492,448,490
493,492,494,506,490
494,490,492,573,490
492,492,495,624,489
494,492,493,625,490
494,492,492,608,492
492,491,492,530,491
494,492,493,437,491
494,492,491,397,492
493,492,492,377,491
490,491,493,379,490
493,492,491,390,490
493,491,494,420,491
493,491,493,472,490
493,492,493,532,490
494,492,493,605,490
494,491,492,629,492
494,492,494,619,490
493,491,493,581,490
494,493,493,484,492
493,492,492,414,490
493,492,494,383,489
492,492,494,377,492
493,490,493,384,490
494,491,493,396,491
495,492,491,443,491
495,493,493,500,491
493,492,493,565,492
491,493,493,621,491
493,492,494,628,491
495,491,494,613,490
493,493,494,541,490
494,493,494,448,490
492,493,492,400,491
492,493,491,378,490
492,491,494,379,492
493,491,492,386,491
491,491,492,412,490
491,491,493,465,491
493,491,492,523,491
494,491,493,596,489
493,489,493,628,491
494,492,492,623,491
495,493,493,590,491
495,494,492,500,491
493,493,492,419,491
493,492,492,388,490
492,494,492,375,491
492,491,493,381,490
493,492,493,393,489
492,492,492,436,492
494,492,494,492,490
493,491,494,555,491
494,491,492,618,492
495,492,492,627,491
493,493,493,616,490
494,494,493,554,492
493,493,493,457,490
494,491,493,404,490
493,492,494,375,490
493,493,494,379,490
494,493,493,388,491
492,490,493,406,491
494,492,492,459,490
493,491,492,516,491
493,490,492,588,491
493,491,494,625,490
492,491,491,624,492
495,493,494,598,490
494,491,493,512,491
493,492,493,428,490
493,492,491,393,491
495,493,492,379,490
492,492,493,381,492
493,491,493,392,489
493,490,493,427,491
493,492,493,484,491
493,492,494,544,489
492,491,492,614,493
494,493,492,628,490
492,492,494,620,492
494,492,491,570,492
495,492,492,468,491
493,492,493,410,491
493,491,493,378,490
493,491,492,375,490
494,492,491,386,490
493,492,495,402,489
492,493,493,451,490
493,491,493,509,492
492,491,493,579,490
494,493,494,624,490
492,491,492,624,492
493,490,494,607,493
492,492,493,524,492
492,492,493,435,492
494,491,493,395,492
494,492,492,377,490
491,493,492,381,491
494,492,491,390,490
495,492,491,420,490
493,492,493,476,492
494,493,493,537,490
492,491,493,606,492
493,491,493,626,490
493,492,493,618,489
493,491,495,576,493
494,489,492,480,491
494,491,493,413,491
493,491,491,382,491
495,493,491,377,491
494,493,492,384,491
492,495,492,399,489
490,494,492,443,490
494,491,493,501,490
493,489,493,566,489
493,492,494,621,490
493,493,493,625,491
492,491,492,614,491
496,492,495,534,490
494,492,492,443,491
494,491,492,398,491
493,491,492,376,491
494,492,491,381,490
492,492,493,387,491
493,491,494,415,490
493,493,493,468,492
493,493,493,526,491
494,493,492,602,491
494,492,494,626,490
493,490,493,620,490
494,492,492,583,491
492,492,493,492,491
494,492,492,416,490
493,492,494,387,493
493,490,493,376,490
494,492,494,382,490
494,491,492,397,492
494,491,491,438,491
493,492,493,494,491
492,492,493,559,491
492,490,493,620,491
494,491,494,626,490
493,493,493,616,490
494,494,493,550,491
495,494,494,452,491
493,492,492,403,491
493,493,494,374,492
493,491,492,377,491
492,491,492,385,490
491,491,493,407,490
492,492,494,464,492
494,492,494,518,490
493,491,493,594,492
494,493,492,629,491
494,490,491,622,492
494,491,492,597,492
493,494,494,506,491
493,492,492,422,490
493,494,493,389,490
492,492,494,376,490
494,492,493,382,489
493,492,493,392,492
492,493,492,432,491
492,491,493,487,491
494,491,492,550,492
493,490,492,614,492
492,490,493,626,491
494,492,492,616,490
492,491,491,565,492
494,493,494,462,491
493,492,493,408,491
494,492,492,377,490
494,492,491,379,492
492,491,494,385,492
493,490,492,405,489
494,491,494,455,492
493,490,493,512,491
492,491,494,582,490
492,494,492,626,491
492,494,492,625,491
491,492,493,604,491
495,492,492,520,491
494,491,492,431,491
494,491,492,394,490
493,494,494,378,491
492,492,491,382,491
494,492,494,390,489
491,492,494,425,490
493,491,493,478,490
493,491,493,540,490
493,492,491,611,490
491,494,493,628,491
491,491,494,619,491
493,490,493,573,492
493,491,493,476,491
494,490,493,413,491
494,491,493,379,490
494,490,492,377,490
494,493,492,386,491
494,493,491,403,491
495,492,492,448,491
493,493,493,505,492
493,491,492,573,490
494,491,494,622,490
492,492,493,624,490
493,492,493,610,490
493,491,493,530,491
493,494,493,439,490
492,491,493,398,491
495,491,492,378,491
493,491,492,378,492
493,490,493,388,490
494,493,494,416,490
491,490,492,472,490
492,492,494,531,489
492,493,493,604,489
493,492,492,628,491
494,491,491,621,490
493,493,495,583,493
494,491,493,486,491
493,492,493,416,491
492,491,493,382,491
492,490,493,375,490
492,491,492,384,492
492,492,493,397,492
492,490,492,442,490
493,493,493,500,491
494,492,492,563,492
493,491,492,620,490
494,493,493,625,491
492,491,491,615,491
492,492,495,543,490
493,492,494,448,491
493,492,492,401,490
492,491,493,376,490
494,492,491,377,490
492,492,492,387,491
493,491,492,413,492
492,490,492,465,491
493,490,492,520,490
491,492,492,598,491
492,491,493,627,492
493,490,493,623,490
494,493,494,592,491
494,494,492,501,491
495,492,493,420,490
493,491,492,389,492
494,493,493,376,490
491,492,493,380,490
490,492,493,393,490
493,491,494,433,490
494,491,493,492,491
494,492,493,553,491
492,491,492,619,492
493,493,492,628,491
492,490,492,616,492
495,490,493,558,491
494,491,492,459,491
494,492,492,405,490
493,493,494,376,489
491,493,494,380,490
492,492,493,388,490
495,491,492,406,490
492,491,492,459,490
493,491,493,514,490
493,491,492,589,491
492,490,493,626,491
492,491,493,622,490
495,492,492,604,490
493,493,494,514,492
495,492,493,429,490
493,492,492,394,490
494,493,492,380,491
495,490,494,381,489
493,490,493,392,493
493,491,492,428,490
493,490,494,484,492
493,491,494,545,490
491,492,495,611,492
493,492,493,629,490
494,493,493,617,490
492,494,491,571,492
494,493,493,471,491
492,492,492,411,491
493,491,492,378,493
493,493,492,379,490
492,492,493,386,492
494,492,494,402,489
492,493,493,452,490
492,491,493,508,490
493,492,493,575,490
491,493,492,626,492
492,492,493,624,492
492,492,493,610,492
493,490,494,526,492
493,492,493,437,492
