Sensor0,Sensor1,Sensor2,Sensor3,Sensor4

492,492,491,592,491
494,490,492,626,491
493,491,49,492,375
492,492,492,492,381
491,493,492,494,386
491,493,491,492,408
493,492,492,494,459
492,492,492,493,515
491,493,494,491,589
490,492,492,493,627
492,493,489,492,624
490,494,493,492,602
490,494,493,493,515
491,493,492,493,428
491,493,491,494,392
490,494,491,492,379
491,493,494,492,380
491,492,492,493,391
490,490,491,494,427
490,493,490,493,483
490,494,491,494,545
490,493,490,492,611
491,494,492,493,630
492,494,491,492,620
492,494,491,492,572
494,494,493,493,470
491,493,492,492,411
491,494,492,494,377
491,492,492,494,377
489,493,493,494,386
490,493,492,492,403
492,493,494,493,452
491,493,492,493,508
491,494,491,492,578
492,494,491,492,625
492,492,490,494,623
491,492,491,494,611
491,495,493,495,526
491,493,492,492,436
491,493,492,493,397
490,493,494,494,378
490,493,493,492,382
491,492,492,494,388
492,495,491,492,419
490,493,491,492,475
490,493,491,493,533
490,491,490,494,604
491,492,491,491,629
492,494,494,494,621
491,492,491,493,579
491,492,495,493,483
490,493,493,493,416
491,495,490,492,385
490,493,491,493,377
491,492,491,493,385
491,494,491,493,397
491,492,492,494,442
491,491,493,493,501
491,493,491,493,565
490,494,490,493,622
491,494,492,492,625
490,492,491,491,614
492,495,491,492,541
492,494,491,492,447
491,493,490,492,400
491,494,492,493,375
490,494,491,492,380
490,493,492,493,388
490,493,494,494,415
490,493,492,493,466
491,492,491,492,524
490,493,491,494,598
490,492,490,493,627
492,492,491,494,621
491,493,493,495,588
492,492,493,492,499
492,493,493,493,419
492,493,491,492,388
491,493,494,492,377
490,493,494,491,384
491,494,491,493,395
492,495,491,495,435
491,493,491,493,491
491,490,491,493,556
491,492,490,494,615
490,491,492,494,626
489,493,493,493,616
493,494,491,491,555
491,494,494,492,456
491,493,492,492,405
491,495,491,491,378
492,495,491,492,379
492,493,493,493,386
490,493,490,493,407
490,494,492,492,459
491,493,491,492,515
490,492,492,494,589
489,492,493,493,626
491,492,491,491,623
492,494,493,494,597
490,495,491,492,510
492,494,492,492,427
491,494,492,492,391
492,492,490,492,378
491,495,491,491,381
490,493,492,492,393
493,493,493,494,429
491,494,493,494,484
491,493,493,493,546
491,493,491,494,610
490,493,491,492,627
490,493,493,493,617
492,492,491,494,566
491,493,492,493,468
491,493,492,493,411
491,493,491,494,377
489,492,491,493,378
491,493,493,492,387
491,495,492,491,405
491,494,491,492,453
491,492,491,492,508
491,493,490,492,580
490,493,493,493,624
491,492,492,493,623
490,493,493,494,606
490,492,495,494,525
491,493,492,493,435
491,494,492,492,397
490,492,491,494,379
492,494,490,492,380
492,493,491,493,389
492,492,490,493,423
491,495,492,493,475
491,493,492,493,537
491,492,492,494,605
490,493,492,493,628
490,494,493,492,620
491,492,491,494,575
492,495,492,492,479
491,493,492,492,414
491,492,492,492,380
493,493,491,493,375
490,492,492,492,386
491,492,493,494,397
489,492,490,493,445
490,493,491,492,502
490,494,491,491,568
490,494,492,491,622
492,493,492,492,626
490,492,495,493,611
493,493,492,494,538
492,494,491,494,443
492,494,491,493,397
491,493,494,494,376
489,493,491,492,379
491,494,492,491,386
490,492,491,492,417
492,495,492,493,468
491,494,492,492,526
491,493,490,493,601
490,493,491,493,626
490,494,491,492,622
489,493,493,495,584
490,493,493,493,493
491,493,493,492,418
491,492,491,493,386
491,494,492,493,375
489,493,490,492,384
492,492,491,492,394
492,492,490,493,436
490,492,490,493,495
490,493,490,492,558
489,492,494,494,619
491,492,490,493,627
491,492,493,491,616
491,495,492,492,553
492,495,492,493,452
491,494,491,491,402
491,494,493,493,376
492,492,491,494,377
491,493,492,494,385
490,493,492,495,409
493,494,492,493,461
491,494,491,493,517
491,492,492,492,595
491,494,491,492,627
492,493,491,492,621
491,492,493,493,597
490,492,490,493,506
491,494,493,492,423
490,492,492,493,391
490,493,492,494,377
491,493,492,492,383
490,494,492,493,391
491,491,492,491,431
491,491,492,493,487
490,494,490,492,548
492,492,490,492,613
491,493,491,494,626
491,494,490,492,617
490,493,492,491,566
492,494,492,494,465
491,493,491,493,409
491,494,492,492,379
490,495,492,494,377
490,493,491,491,386
490,492,494,493,405
492,491,492,494,454
492,493,490,492,510
490,494,492,494,583
492,494,491,495,626
489,494,491,493,622
490,495,492,491,608
491,495,492,491,522
492,495,493,492,431
492,494,492,492,395
490,492,494,494,377
492,492,490,492,381
491,494,491,494,389
490,492,491,494,422
490,493,492,493,476
490,493,491,493,538
491,494,492,492,608
491,492,492,495,629
492,493,490,492,619
492,492,490,492,575
493,493,492,493,478
491,494,491,493,412
491,493,491,491,382
492,492,493,493,377
490,493,492,492,385
490,494,492,491,400
491,493,492,494,445
491,492,491,493,502
491,493,492,493,570
492,493,490,493,622
491,492,491,493,624
490,492,492,494,610
490,492,492,492,536
492,491,495,493,441
491,494,490,492,399
490,494,493,492,378
490,495,490,491,380
492,495,491,492,387
490,492,492,492,416
492,493,492,492,469
490,493,491,493,528
490,492,491,494,601
490,492,492,493,627
490,493,491,493,620
490,494,492,493,582
492,493,492,492,491
490,493,492,493,419
491,494,491,492,386
493,494,491,494,377
490,493,492,493,382
491,494,490,492,398
490,493,493,495,439
490,493,492,493,497
491,493,492,493,560
490,494,493,493,618
490,491,491,492,627
491,494,493,493,614
489,494,491,492,549
492,493,492,492,451
491,493,491,492,402
490,494,493,492,378
490,491,492,494,379
492,494,490,493,387
490,493,494,493,412
490,495,492,492,462
490,493,491,493,517
490,491,490,492,596
491,491,492,493,627
491,494,493,494,620
491,492,492,494,593
491,492,493,494,504
492,495,493,493,423
491,494,493,492,390
492,493,494,492,378
491,494,492,493,385
491,494,490,492,394
493,495,492,493,432
492,493,492,494,487
491,493,491,494,551
491,494,492,494,612
490,492,492,493,628
489,493,493,493,617
490,493,493,492,562
492,493,493,493,463
491,494,491,492,406
491,494,491,492,379
492,494,491,492,379
492,492,491,492,385
491,494,493,492,405
491,491,491,492,456
491,492,492,492,511
490,493,492,493,584
489,492,493,492,627
490,494,491,493,622
490,494,491,492,607
490,493,493,493,517
492,494,492,493,431
491,492,491,493,395
491,492,490,492,377
490,492,492,492,383
492,493,493,494,392
490,494,490,493,424
491,494,492,494,480
490,493,492,492,542
491,494,491,491,610
490,493,492,494,628
491,491,491,492,620
491,495,490,494,571
491,493,492,494,475
491,493,491,493,412
491,493,492,492,380
492,492,494,493,379
491,492,491,493,385
491,494,492,491,404
491,493,491,492,449
491,494,491,492,503
490,493,492,493,572
491,491,492,492,625
492,493,492,493,623
489,493,493,494,611
490,493,494,494,532
491,493,493,493,439
491,493,491,493,398
491,495,492,494,375
489,493,490,492,380
491,493,491,493,388
491,492,490,494,417
492,493,492,492,472
491,493,492,494,532
492,493,491,491,604
489,492,494,492,629
491,494,491,492,622
492,494,491,492,579
490,494,493,493,488
491,494,493,492,416
491,493,493,492,382
491,489,492,494,376
490,493,491,494,384
490,496,490,491,398
489,493,493,493,442
491,492,491,492,498
490,492,492,492,562
491,494,491,492,622
492,494,490,493,626
492,494,493,492,615
491,494,492,494,545
492,495,493,493,448
492,494,492,493,401
490,493,493,494,376
490,493,493,494,378
492,493,491,492,389
491,496,492,495,411
491,494,492,493,465
491,494,492,493,522
491,493,490,492,597
492,493,493,492,628
490,492,492,494,623
492,494,491,494,589
490,492,493,494,500
491,493,492,493,421
490,493,492,492,390
492,494,494,493,377
490,492,491,493,382
491,495,492,491,394
491,495,491,492,434
491,493,491,493,489
491,493,491,492,551
490,493,494,494,614
492,491,492,492,628
492,491,493,493,614
489,491,493,494,559
490,492,492,493,460
491,494,491,492,407
490,493,492,494,379
492,494,490,493,378
490,494,493,492,385
491,495,494,493,406
489,493,492,492,455
491,493,492,492,513
490,492,491,494,585
491,494,490,493,625
492,493,492,494,622
492,494,491,494,605
490,494,494,492,514
491,494,492,493,429
490,493,491,492,393
491,492,490,491,377
490,492,491,493,381
491,492,490,493,392
491,493,494,492,428
491,492,491,492,482
490,493,492,493,543
490,492,491,494,609
491,492,492,494,628
490,493,493,492,621
492,494,492,495,570
490,494,492,493,474
492,493,491,493,410
489,492,492,494,379
490,491,492,494,379
492,493,489,492,385
490,494,493,492,405
492,493,492,492,450
490,492,493,493,506
491,494,493,493,576
491,495,492,494,623
491,493,492,492,624
490,492,494,494,612
493,494,492,492,528
492,493,492,492,436
491,493,491,493,398
492,494,490,494,377
491,494,491,494,379
491,494,492,493,391
492,493,490,492,419
491,492,491,492,474
491,492,490,492,533
490,493,492,491,603
490,492,491,492,628
490,494,491,493,618
490,492,491,494,578
490,492,493,493,485
491,492,492,492,416
490,491,493,493,381
491,495,492,492,377
490,493,492,495,384
491,493,493,495,396
492,492,494,494,445
491,492,492,492,499
491,493,491,493,566
492,492,492,495,621
490,493,491,494,625
489,494,492,494,613
489,492,491,495,543
492,494,492,493,445
492,493,494,493,403
491,491,492,494,376
489,494,491,491,379
490,494,492,492,389
491,494,492,493,411
490,496,490,493,466
491,493,492,494,525
491,493,489,492,598
492,495,490,493,628
490,493,492,494,624
492,495,491,494,587
491,493,492,493,499
492,494,491,492,419
492,494,492,493,387
490,493,492,495,376
490,493,491,493,384
491,494,492,494,394
493,496,491,495,435
491,493,491,494,491
491,493,491,493,553
490,493,492,495,616
490,494,491,493,627
492,495,493,493,616
492,494,492,492,557
492,494,493,493,457
491,495,492,493,406
491,495,493,493,377
492,493,492,492,380
493,495,494,495,387
491,492,491,492,409
493,493,491,493,458
492,494,492,493,515
491,494,491,492,591
490,493,493,495,627
492,493,492,492,626
492,495,492,492,602
492,496,493,492,513
492,495,493,493,426
491,493,491,493,392
493,494,493,494,377
492,493,492,494,381
491,492,492,493,391
492,494,493,495,428
491,493,492,494,485
491,494,491,493,546
490,492,491,492,613
493,494,492,493,630
492,495,492,492,620
493,496,493,492,572
493,494,494,494,471
493,494,493,492,409
491,493,494,494,378
493,493,491,493,377
490,493,491,494,384
490,493,492,492,406
492,493,492,493,451
490,493,492,492,508
490,493,492,492,580
491,494,491,492,625
492,493,491,492,624
490,494,493,493,609
493,494,491,492,525
491,494,492,493,436
491,493,491,494,397
491,493,493,494,376
490,494,493,492,381
491,492,491,494,389
491,495,491,492,419
491,494,492,493,477
492,493,491,493,535
492,493,490,492,605
492,493,491,492,629
492,494,492,494,619
490,494,491,492,579
490,493,494,494,483
491,493,491,493,415
491,494,492,492,383
491,491,492,494,379
492,494,490,493,384
490,495,491,493,399
492,492,491,493,445
492,492,491,493,501
491,493,491,492,568
491,492,492,494,622
492,493,492,493,627
491,495,493,492,615
491,496,492,492,541
492,495,492,493,444
491,494,492,493,400
490,494,490,492,376
493,494,493,492,380
490,492,492,494,388
490,492,492,495,413
491,494,492,493,466
492,493,492,493,527
491,494,492,494,598
491,492,492,492,629
492,493,491,493,622
492,493,491,492,587
493,493,493,493,496
491,493,492,493,419
491,494,492,492,385
490,492,493,495,377
490,492,494,493,384
491,493,492,492,392
491,493,490,492,439
491,494,491,492,494
491,494,491,493,557
492,493,490,493,619
491,492,491,494,626
491,493,492,494,614
493,495,492,493,554
491,495,493,493,456
492,494,493,494,405
491,495,493,493,380
491,495,491,492,379
493,495,493,494,386
490,494,490,493,409
492,495,493,493,459
492,493,492,494,517
491,492,492,494,590
491,492,491,494,627
492,493,490,493,624
490,493,491,493,596
492,494,493,492,510
492,494,494,492,425
491,494,491,492,393
493,494,492,494,377
492,492,491,493,384
491,494,492,492,390
491,492,492,494,429
490,491,492,494,487
491,493,492,493,546
490,492,491,493,612
492,494,491,493,630
491,494,491,494,619
492,495,491,492,569
494,494,492,493,468
493,494,491,493,408
491,494,493,495,377
491,491,491,492,380
492,493,492,494,386
490,494,493,494,406
491,495,493,493,453
491,494,492,493,508
491,494,492,492,581
490,492,492,492,625
492,493,491,494,623
491,492,491,494,607
492,492,492,492,524
492,495,491,493,434
490,494,490,493,397
491,494,493,494,377
491,494,492,492,383
491,494,492,492,391
492,495,491,491,421
490,493,492,492,478
491,493,491,493,538
491,492,491,492,606
492,491,492,494,627
491,492,493,494,619
491,494,491,492,577
491,494,493,493,479
493,494,492,492,413
491,495,492,492,382
492,495,492,492,378
492,493,490,493,385
491,494,491,494,399
493,495,493,492,447
492,493,491,493,501
491,493,492,494,568
490,492,492,494,623
492,493,491,493,626
492,494,492,494,612
491,492,492,491,537
493,495,492,492,441
492,494,492,492,400
492,493,491,492,377
493,494,493,492,381
491,492,492,494,390
492,494,490,493,414
490,493,493,493,468
491,493,492,493,528
491,493,493,493,599
491,492,492,493,629
492,493,494,494,622
493,493,490,493,584
493,493,492,494,492
492,492,492,493,418
492,494,492,492,384
490,493,492,492,378
493,493,492,492,384
491,494,492,492,395
491,496,493,493,439
491,492,492,493,495
491,495,491,493,558
490,493,492,494,619
491,491,491,494,625
490,492,493,494,614
490,493,493,495,551
491,493,493,493,453
492,492,494,493,404
491,494,490,493,377
491,496,491,491,379
492,495,491,492,388
492,494,491,492,411
490,492,492,492,460
492,494,491,493,519
491,494,490,494,591
490,492,491,494,626
490,494,493,493,623
491,495,491,493,594
493,496,493,493,507
491,494,492,493,424
492,495,491,492,391
493,494,491,492,377
492,493,491,494,384
491,494,491,494,390
491,493,492,492,434
492,493,492,494,487
491,493,491,493,549
490,493,493,493,614
489,494,492,492,629
490,492,491,494,617
492,495,491,495,562
490,493,491,492,464
491,494,491,492,407
491,493,491,493,376
491,492,491,491,380
492,493,492,493,384
491,493,490,492,407
489,494,492,492,454
490,493,491,493,511
490,494,491,491,581
489,492,491,491,624
492,494,494,493,625
491,493,492,494,604
492,493,491,494,518
492,494,492,494,434
491,494,491,493,395
491,494,493,494,376
491,492,492,492,383
491,495,490,491,390
493,496,491,492,424
492,494,490,493,479
491,493,491,493,539
491,492,489,492,607
490,493,490,492,627
490,493,492,493,618
490,493,494,494,574
490,493,494,494,477
492,495,491,492,412
490,494,492,494,379
490,494,493,491,378
492,494,490,491,384
492,492,491,492,400
492,494,493,492,448
491,492,492,492,504
490,492,492,494,571
489,491,494,493,623
490,494,494,491,624
491,494,493,494,610
491,491,491,491,533
492,494,491,494,440
491,493,491,492,398
492,491,491,491,375
492,492,491,493,378
490,493,491,494,390
492,494,490,494,416
491,493,492,492,471
490,494,492,493,530
491,494,491,492,603
491,495,490,492,627
491,493,493,493,620
492,491,490,492,582
490,493,492,493,488
491,492,491,492,416
491,495,492,493,383
490,494,492,492,377
492,493,492,491,384
491,492,492,493,394
490,493,493,491,441
491,494,490,492,497
491,494,490,492,559
490,491,492,494,619
491,490,491,491,626
491,493,493,494,614
490,491,493,494,546
491,495,493,493,450
491,494,494,492,402
490,493,493,492,376
490,499,491,492,377
489,498,492,493,388
491,496,489,491,411
492,492,492,493,462
492,490,490,493,521
491,493,490,494,594
490,494,490,492,628
490,494,492,492,624
491,494,491,492,593
491,495,493,492,503
490,492,492,493,422
491,490,491,492,388
490,489,490,493,377
491,492,490,494,381
491,492,491,493,391
490,493,492,492,434
491,492,493,493,489
491,491,491,492,552
490,493,491,492,616
491,496,491,491,627
492,494,491,491,616
491,495,493,495,561
491,494,493,492,461
492,495,495,493,407
491,494,493,495,375
491,493,489,495,378
490,495,492,494,386
491,494,490,493,409
491,496,493,494,455
491,495,492,493,515
491,494,491,492,587
492,494,491,492,624
491,492,493,492,625
491,491,492,492,602
492,495,492,491,514
491,492,492,493,430
491,492,492,492,393
491,493,492,492,375
491,491,491,491,384
491,494,491,493,389
490,494,491,492,426
492,493,490,492,481
491,492,490,492,539
491,489,491,493,608
491,494,490,492,628
491,494,494,493,618
492,492,496,494,574
491,497,494,494,475
492,498,494,493,412
490,496,495,494,379
489,498,489,493,378
491,492,492,492,383
491,491,491,494,401
491,492,492,494,448
491,493,492,492,506
491,493,491,494,575
491,492,490,492,622
491,493,491,491,626
491,493,490,491,612
492,494,490,491,530
492,493,491,494,436
491,494,490,493,398
492,497,491,493,375
490,495,491,495,380
490,495,492,494,390
491,493,492,494,417
490,490,490,492,473
491,492,492,491,532
490,493,492,493,606
492,493,490,493,628
494,491,490,493,619
497,490,493,492,582
495,494,495,494,487
494,493,492,492,415
489,494,492,494,383
485,494,493,493,377
490,493,492,491,384
491,493,491,493,395
492,497,492,492,440
490,493,492,492,498
490,495,492,492,563
492,492,491,493,620
492,492,491,491,627
491,496,492,494,614
489,495,490,492,544
490,496,493,493,448
490,495,492,492,402
491,494,492,491,378
491,496,492,490,378
490,494,494,492,387
492,494,494,492,412
490,493,490,493,463
492,493,488,493,522
492,495,488,494,595
492,496,490,494,629
493,493,494,493,621
492,488,495,492,591
489,490,496,493,501
491,491,495,493,422
493,495,493,493,388
490,495,489,492,376
491,495,488,491,383
490,495,492,493,393
489,493,493,494,435
491,491,493,493,491
491,493,492,493,555
490,494,494,493,616
490,493,494,492,626
491,493,488,492,616
492,493,489,492,558
492,494,491,492,459
491,495,491,492,406
490,493,491,494,378
493,496,489,493,379
490,495,492,493,387
491,495,490,492,410
491,495,488,493,455
490,492,490,493,515
492,493,492,492,587
492,491,490,493,624
490,492,492,494,622
489,495,494,494,601
495,498,494,493,514
496,499,490,494,430
499,497,490,492,394
495,493,490,492,379
489,492,491,493,383
491,493,493,493,390
491,492,491,494,427
492,492,492,493,483
491,494,488,494,543
490,491,494,494,611
488,492,493,493,629
491,494,493,492,617
492,491,494,492,573
491,493,493,493,470
489,495,494,492,411
490,496,493,493,380
492,497,490,492,377
491,496,491,492,384
490,491,491,492,405
493,490,491,493,449
492,489,490,493,507
491,491,490,492,577
490,495,489,493,623
488,497,490,494,626
489,494,492,494,610
494,494,493,494,527
490,496,497,493,438
490,493,493,493,398
489,497,491,494,376
487,499,489,494,381
490,502,494,493,391
489,497,492,494,421
491,492,496,493,476
492,492,496,492,534
492,490,498,492,605
493,486,494,491,630
491,488,491,494,618
489,493,489,495,578
490,494,488,494,485
490,496,488,493,415
491,499,489,494,385
490,502,486,493,378
491,503,483,492,384
494,489,481,493,399
495,483,481,494,443
494,485,488,494,501
491,486,494,492,568
489,495,496,492,620
491,495,496,492,626
492,492,497,492,615
490,491,490,493,538
491,492,494,492,446
491,496,491,493,400
492,499,492,492,377
492,496,493,494,378
491,495,495,495,388
490,494,494,493,416
493,490,495,494,466
491,492,492,491,525
491,490,493,492,599
490,494,492,492,628
492,493,490,492,621
490,493,492,491,588
492,498,490,493,498
491,501,491,492,418
491,495,492,494,386
491,491,491,497,377
490,494,487,493,384
490,496,491,493,394
492,491,490,491,438
492,490,492,491,493
493,491,492,491,556
493,498,491,494,618
490,506,492,493,625
490,504,495,493,618
488,497,492,496,554
493,494,498,495,457
494,494,499,495,407
490,492,495,495,377
488,493,487,491,380
487,499,486,492,387
491,497,487,491,409
495,489,488,493,459
491,490,483,493,517
490,497,487,492,592
490,496,492,494,628
492,494,490,493,624
491,493,490,492,600
490,490,491,492,511
490,489,492,492,426
492,489,491,492,392
494,494,496,494,377
494,492,492,494,380
491,494,488,496,390
487,496,492,497,430
492,492,492,493,485
491,482,490,493,545
489,488,490,491,615
489,502,493,491,628
491,496,490,492,618
493,493,494,494,570
493,500,495,496,469
491,501,492,495,411
490,501,492,496,378
489,499,492,493,378
491,498,491,493,387
492,496,490,495,403
491,493,487,491,452
489,490,489,492,509
491,492,492,491,578
493,493,491,492,624
492,494,494,495,624
491,496,492,494,607
490,499,494,496,527
492,504,493,496,436
491,503,492,495,399
492,498,493,493,380
492,486,491,494,381
491,477,485,490,389
493,484,498,491,421
494,482,496,490,476
493,489,497,492,536
492,493,494,495,606
490,498,486,495,630
493,505,489,496,622
493,514,493,497,578
494,512,494,492,482
491,500,496,490,414
493,488,495,491,382
491,491,494,491,374
489,491,490,492,385
490,491,488,496,399
490,496,490,496,445
490,491,490,493,502
490,485,492,495,567
491,495,496,493,624
490,500,499,495,628
493,504,498,493,613
493,495,493,493,537
491,488,490,495,445
491,488,490,495,399
491,488,491,492,379
490,490,491,495,382
487,505,492,495,391
488,502,495,494,417
489,495,494,492,469
493,491,490,492,526
492,490,489,492,601
490,495,490,494,627
491,495,492,495,621
490,494,493,497,585
489,499,491,496,496
491,503,493,494,419
493,494,496,494,389
496,500,500,491,379
497,507,490,492,383
493,499,485,492,395
487,484,488,492,436
490,483,493,494,495
491,490,490,495,558
488,494,496,494,618
489,502,496,491,627
489,499,487,494,615
492,501,488,492,550
492,496,492,492,454
493,494,492,491,404
491,491,491,492,375
492,487,491,495,377
489,485,490,493,388
492,483,490,495,408
492,489,492,494,463
491,499,492,496,520
490,499,490,494,594
491,496,496,493,627
490,484,494,493,622
493,489,494,492,598
490,488,492,495,507
490,495,488,492,426
490,500,489,493,392
489,504,488,493,378
491,510,490,493,382
491,502,497,495,395
494,512,491,496,433
493,501,487,493,486
492,486,494,493,548
491,478,494,494,612
489,483,491,491,628
490,493,493,492,619
491,492,492,493,566
490,485,491,493,465
491,490,496,493,408
491,498,493,492,379
494,498,494,495,378
489,501,493,496,386
487,503,494,494,404
490,495,498,493,453
490,498,493,492,512
487,495,493,493,581
490,492,488,494,627
492,485,490,492,626
496,492,490,492,608
494,493,489,494,521
491,493,490,493,434
491,497,494,495,396
491,502,495,498,378
489,502,489,499,383
488,498,489,493,391
492,496,493,489,425
492,489,494,490,477
492,488,492,490,539
492,489,489,491,609
492,490,490,494,627
492,497,492,497,618
491,498,494,496,580
491,496,493,495,480
492,493,493,493,413
490,487,491,493,383
490,488,493,491,379
495,490,491,493,384
494,498,491,492,403
500,498,493,493,446
492,495,489,493,503
491,481,485,493,567
485,477,487,494,622
488,496,492,494,629
491,510,497,493,612
491,514,497,489,536
491,507,499,487,441
491,483,496,485,396
494,480,500,486,373
490,491,499,486,375
492,499,488,487,383
490,501,491,494,413
490,504,494,495,468
491,495,496,498,528
491,489,498,500,601
492,490,496,495,629
491,498,490,493,620
490,500,489,492,584
493,490,487,493,491
491,486,488,492,417
489,489,488,493,384
489,488,487,493,378
492,496,492,496,385
489,501,497,497,398
490,502,495,494,442
491,510,495,497,499
491,510,496,498,564
490,488,497,498,621
490,474,485,495,626
490,489,486,495,616
490,493,491,495,552
491,501,494,498,453
489,497,490,495,404
489,503,496,491,379
491,500,497,491,381
495,490,499,491,388
493,475,490,491,410
490,490,494,497,465
491,494,486,497,522
491,498,485,497,596
489,505,489,499,630
489,490,486,495,624
485,475,484,492,594
487,487,491,489,507
494,493,503,489,424
495,504,496,490,391
493,500,495,491,378
492,506,495,493,385
491,502,492,494,391
490,489,488,491,432
491,481,485,491,488
490,492,490,492,551
491,496,487,491,615
492,479,488,494,625
492,480,491,494,618
490,496,494,495,562
491,509,491,499,465
493,515,494,498,410
493,491,495,496,377
491,472,487,493,377
486,487,496,492,389
491,499,505,492,410
496,498,505,489,456
494,483,492,489,512
489,494,491,493,584
486,495,496,494,625
490,496,478,493,625
493,507,493,492,604
491,509,497,493,520
492,504,493,492,431
491,503,490,487,392
492,517,498,481,374
490,506,499,484,377
492,500,490,485,385
491,494,486,484,419
491,489,491,484,475
491,489,499,486,536
490,502,501,489,606
489,516,496,486,625
491,520,488,486,616
492,513,486,493,572
493,498,486,494,472
492,508,493,498,411
494,500,494,496,380
492,491,487,498,374
491,473,489,499,384
491,481,494,498,402
488,489,492,498,447
487,480,491,497,506
491,476,491,495,575
492,484,488,495,625
490,491,495,496,627
492,487,495,495,615
493,494,495,495,532
495,493,490,494,441
494,488,489,495,399
493,486,495,496,379
491,487,493,492,383
486,495,487,494,390
490,509,492,496,420
492,511,493,496,474
493,495,486,495,532
494,484,491,496,604
492,484,491,496,630
490,491,490,494,622
492,497,491,495,584
493,498,494,495,490
492,499,494,495,419
490,501,492,494,388
493,495,496,494,378
490,496,502,493,383
493,478,508,492,399
495,475,507,494,441
498,484,499,494,499
490,492,486,495,563
489,494,493,493,621
490,495,494,496,626
487,496,491,494,617
501,500,491,496,548
500,492,490,493,451
499,499,495,492,404
495,504,471,493,374
486,494,477,492,378
488,487,487,493,387
492,505,496,493,413
492,508,498,492,465
490,499,495,492,519
489,479,490,490,596
492,493,498,495,629
493,489,496,497,620
492,486,491,498,592
491,488,491,496,504
491,500,491,491,423
489,514,498,491,390
491,495,488,494,378
490,505,489,492,384
489,507,493,493,394
490,498,498,494,433
489,491,491,487,488
490,491,489,487,550
493,499,492,489,612
491,506,497,490,626
492,513,495,490,614
494,500,492,489,560
494,503,495,499,460
493,502,494,497,407
493,490,493,494,376
492,472,492,491,375
490,472,492,492,385
490,476,488,488,403
488,490,486,492,457
490,488,488,491,512
490,482,493,491,585
489,495,495,493,627
490,502,493,494,623
489,500,492,492,603
490,496,490,495,514
494,490,490,493,429
492,491,492,490,391
490,492,497,491,379
493,498,501,488,380
491,505,497,489,388
491,495,489,493,427
492,493,487,496,480
491,496,491,499,543
490,482,489,498,611
493,481,493,494,630
493,494,493,495,618
489,495,492,495,570
487,498,491,492,472
489,489,490,494,411
491,493,489,494,379
492,493,490,494,380
489,488,491,496,387
492,495,492,493,403
493,491,490,494,449
491,483,491,493,508
491,484,490,496,574
489,490,489,492,626
491,496,493,492,627
491,493,495,492,611
489,485,493,492,530
493,490,491,494,439
498,494,486,493,397
500,500,491,494,377
493,490,485,494,378
488,484,487,494,387
488,491,495,493,422
492,505,494,495,473
488,503,490,493,532
486,499,491,490,607
486,488,492,490,627
493,493,496,492,619
496,496,496,492,582
494,495,496,495,485
493,489,495,496,417
489,493,495,496,383
490,494,496,493,377
490,497,500,493,385
496,482,496,493,396
497,478,497,491,440
493,477,476,491,500
493,493,482,494,564
492,511,494,495,621
488,505,490,494,628
486,503,489,495,613
486,499,490,493,544
490,501,493,495,449
493,503,495,492,402
495,481,493,492,377
493,482,487,493,379
491,491,489,493,387
485,500,497,494,413
492,506,499,495,467
494,511,502,495,523
491,497,495,494,596
489,481,488,493,628
491,479,488,491,619
491,481,488,491,591
491,491,490,492,499
490,488,496,492,420
491,487,494,493,389
490,492,488,494,376
494,494,489,495,385
494,491,490,494,394
493,484,490,490,434
494,494,493,491,492
490,505,494,491,555
489,500,495,492,614
490,488,492,490,627
495,501,491,495,616
497,496,492,494,557
494,496,495,490,458
487,493,491,489,404
490,504,492,489,375
488,505,492,491,379
489,495,492,491,385
489,474,492,491,407
491,475,492,494,456
490,487,488,493,515
491,489,493,493,588
491,489,489,495,625
490,494,493,494,622
489,496,498,494,599
492,505,490,496,515
490,493,492,496,427
492,484,487,497,395
491,493,493,496,382
491,495,493,494,383
492,481,490,492,392
488,475,486,491,427
490,498,490,492,484
490,494,489,494,546
489,491,491,494,611
490,493,493,493,627
491,489,491,492,621
491,493,488,496,568
490,496,490,493,471
491,492,491,492,412
491,489,493,493,379
491,494,493,493,377
489,494,490,492,385
489,492,493,492,406
494,494,493,495,453
490,494,490,496,509
490,493,493,494,579
488,495,495,494,625
489,490,490,492,624
490,471,487,491,608
496,478,490,494,526
496,488,491,492,437
491,500,495,493,397
485,496,489,495,377
489,494,490,493,381
494,498,494,493,391
491,499,490,494,424
491,495,490,494,475
492,492,492,494,534
491,485,492,492,607
491,487,491,493,626
488,491,493,493,620
491,495,492,494,579
491,496,492,494,483
491,492,491,492,415
492,495,491,492,385
491,495,491,494,378
491,493,490,493,385
491,488,489,493,398
493,490,491,494,445
490,495,493,493,502
490,496,489,491,567
491,482,493,493,622
490,485,494,492,627
492,490,493,490,614
490,489,493,494,537
491,494,491,493,443
491,493,490,495,400
491,493,486,495,378
493,491,491,495,379
491,487,493,491,389
491,491,494,495,414
489,492,491,491,468
490,492,486,492,526
491,491,491,493,600
490,493,495,493,629
492,493,496,493,621
491,486,490,491,588
492,494,492,492,496
491,496,492,493,418
491,482,493,493,386
491,481,490,492,375
489,483,489,490,383
490,491,491,489,392
492,493,491,489,437
491,493,493,492,494
492,490,494,491,555
492,489,491,493,616
490,490,491,495,626
490,491,491,495,617
489,491,491,498,553
490,488,491,495,455
492,488,491,493,405
491,491,490,493,379
490,493,490,494,378
490,490,489,492,387
491,490,490,493,410
492,489,492,492,460
491,491,490,493,516
490,491,491,492,592
489,491,492,494,628
492,492,489,494,624
490,491,491,493,599
490,492,492,492,511
492,492,491,493,426
490,490,490,493,393
492,487,492,494,378
492,487,491,494,381
490,490,492,494,392
491,490,491,494,430
492,492,492,492,486
491,491,493,492,547
491,490,492,491,614
491,492,491,492,628
492,492,491,492,618
492,492,493,493,566
491,491,492,494,467
491,493,492,493,408
491,491,492,494,376
489,487,492,494,379
489,491,491,493,387
490,491,492,493,403
491,489,492,493,454
490,490,491,492,509
491,490,491,492,580
492,488,490,492,624
491,486,492,493,624
492,491,491,491,606
490,492,491,493,525
492,491,491,493,434
491,491,492,493,397
490,492,493,492,379
491,491,492,494,380
490,493,491,493,391
492,492,494,494,423
492,490,491,492,476
490,490,491,494,536
490,489,492,494,609
491,490,490,494,628
490,493,490,494,619
491,493,492,492,578
491,494,492,493,480
491,492,492,493,415
491,492,491,492,382
490,491,493,493,376
491,488,491,491,387
491,491,490,494,397
489,489,492,493,445
489,489,490,493,503
490,491,489,492,566
491,489,494,492,624
490,489,492,494,626
492,492,489,493,612
493,492,490,493,537
492,492,491,493,444
491,492,492,493,399
490,490,490,492,380
492,491,492,493,380
490,491,494,492,389
491,492,495,494,416
492,490,491,493,467
491,492,491,493,527
490,491,490,493,601
493,491,490,493,627
491,491,492,494,620
490,490,491,495,585
490,490,491,492,495
491,491,492,493,418
492,491,490,493,387
490,491,494,492,376
491,491,492,492,385
491,492,491,492,393
490,491,493,492,437
491,491,492,492,497
490,490,491,493,557
490,490,491,494,617
489,490,493,494,628
490,491,490,494,615
491,493,495,493,550
491,491,492,493,454
491,492,492,493,403
492,492,492,493,379
492,491,491,493,380
491,493,491,494,385
490,493,493,493,414
491,492,492,494,461
491,492,492,494,518
490,492,493,493,593
490,491,493,492,625
491,490,492,492,623
492,492,493,495,595
490,492,490,493,506
492,492,493,493,423
492,492,492,493,391
491,493,493,492,378
490,491,493,494,383
492,490,491,493,393
490,492,493,492,431
490,493,492,493,487
490,492,492,493,548
490,490,491,491,615
492,492,493,493,629
492,490,490,493,616
491,491,491,494,562
491,491,492,494,465
492,492,492,492,408
491,492,493,493,377
493,491,492,492,380
492,493,492,491,386
492,493,491,491,408
493,493,492,493,455
492,491,492,493,510
492,491,491,494,584
491,492,492,494,624
491,492,492,493,623
490,493,493,493,606
490,492,494,493,520
492,493,493,493,431
490,492,492,494,395
492,492,491,492,379
492,491,490,493,381
492,492,491,493,390
491,493,494,491,422
491,490,493,492,479
490,491,490,493,539
490,493,491,493,608
490,493,492,493,628
491,493,491,494,618
490,493,492,491,576
490,492,493,494,478
492,492,492,493,413
492,492,491,493,379
492,490,490,493,376
490,491,492,492,387
492,493,492,493,400
491,492,492,492,448
491,493,492,493,505
491,492,493,491,571
491,490,492,492,623
490,493,491,493,623
491,492,491,492,613
490,494,491,494,533
491,492,491,494,440
491,492,492,493,399
490,492,491,492,378
493,492,493,491,380
490,491,492,494,390
491,494,490,492,418
492,493,490,492,470
491,492,491,492,529
490,492,492,493,601
491,492,492,492,629
492,492,493,495,621
491,493,493,494,583
491,494,494,493,490
491,493,493,494,418
492,491,492,494,386
492,495,492,495,376
490,493,491,493,383
492,491,491,493,394
492,490,493,495,439
491,490,492,493,498
492,492,492,494,560
492,490,492,493,621
491,491,493,492,628
492,494,492,491,614
492,494,493,492,547
491,492,493,493,451
492,495,492,493,403
491,492,492,494,376
491,492,491,494,379
490,492,493,493,387
490,492,490,492,412
490,494,492,492,461
491,492,491,492,521
491,493,492,491,596
492,493,491,493,626
492,492,492,494,620
492,492,493,492,595
492,492,492,494,503
492,494,494,493,423
491,493,493,493,390
491,493,494,492,378
491,494,492,491,381
491,492,492,492,394
494,495,494,494,432
491,492,492,493,489
492,492,492,493,550
491,492,492,494,612
490,493,491,493,628
491,493,493,492,615
492,492,492,492,563
492,494,493,493,463
492,493,492,492,407
492,494,491,494,376
490,492,491,492,378
492,494,493,491,386
490,492,492,494,406
490,491,492,493,456
491,492,491,492,512
491,493,493,493,584
491,492,490,492,627
492,493,492,493,622
491,493,491,492,606
493,493,491,493,518
493,493,493,492,432
491,493,493,492,396
490,492,492,494,379
492,492,491,493,383
490,494,493,492,392
491,495,494,492,425
491,494,493,494,480
491,493,492,492,541
492,493,493,492,608
491,492,491,493,627
490,492,492,494,618
490,492,492,494,571
493,493,493,492,474
491,493,493,492,411
491,493,492,492,381
490,494,493,492,379
492,493,491,492,385
492,492,490,492,400
492,492,491,493,449
491,492,491,492,505
490,495,491,494,572
489,492,493,494,625
491,494,493,492,625
491,495,493,494,609
491,493,493,492,532
493,494,493,493,438
492,494,493,493,398
491,492,492,492,377
493,491,493,494,379
492,493,491,492,389
490,494,493,492,418
492,494,493,493,472
490,493,493,493,533
491,494,491,491,604
491,495,493,494,627
490,492,491,493,620
491,494,493,492,578
492,493,493,494,487
492,494,493,493,416
491,493,492,493,384
490,492,492,492,377
492,492,492,492,385
491,493,492,493,395
492,495,491,492,441
491,493,491,492,499
491,494,491,492,560
490,493,494,493,619
490,491,493,491,626
492,495,494,494,614
490,493,494,494,545
491,494,492,493,449
491,494,492,493,400
491,494,493,492,379
490,493,492,493,379
492,493,491,493,387
491,493,491,494,411
492,493,491,493,464
491,493,493,494,522
490,491,491,491,598
493,494,493,492,627
491,494,492,492,623
491,494,492,491,592
492,495,493,492,500
491,494,493,493,422
492,494,491,492,388
491,494,491,492,374
490,492,492,493,380
490,492,492,493,392
490,492,491,492,434
491,493,492,493,491
491,493,492,492,553
491,494,493,492,617
491,493,492,492,627
492,494,491,493,617
491,495,495,493,558
492,492,493,492,459
491,492,494,493,405
490,491,492,495,375
489,494,491,493,379
490,494,490,493,384
491,495,493,492,406
491,494,493,492,458
491,495,492,493,514
491,493,492,492,586
492,493,491,493,625
491,493,492,491,624
492,492,493,493,601
493,495,492,491,513
491,494,494,493,428
490,494,493,493,395
491,495,494,492,375
490,493,493,492,383
491,494,492,493,391
490,494,491,492,425
491,491,495,492,482
491,491,491,494,541
491,496,491,491,612
489,494,493,493,628
492,493,490,492,619
491,495,494,492,572
491,496,493,493,472
492,494,492,494,409
491,494,492,492,379
492,493,493,492,378
491,492,492,493,383
490,493,492,495,401
490,493,493,494,449
491,493,492,493,507
491,494,492,493,576
490,494,490,493,623
490,494,491,492,625
492,493,491,492,610
492,494,491,492,528
492,495,493,493,436
491,493,492,493,398
491,495,491,495,375
490,493,493,493,380
490,492,493,492,391
490,494,493,492,417
491,493,492,492,474
490,493,492,493,533
491,493,490,491,604
492,493,491,493,627
491,493,491,494,619
492,495,491,491,577
490,493,493,492,486
492,494,493,493,414
491,494,493,491,383
490,494,494,491,378
491,494,491,491,385
492,493,493,493,395
493,494,492,493,442
491,493,493,492,499
492,494,492,493,562
489,492,492,494,620
490,492,493,492,625
492,493,493,493,615
490,493,490,494,540
492,494,493,492,446
491,494,492,492,401
492,495,491,493,379
490,495,494,493,377
491,493,493,493,389
492,495,492,495,412
490,495,492,493,464
491,495,492,493,524
490,494,491,493,598
492,495,494,492,628
490,493,493,494,623
493,495,492,492,590
494,495,493,493,498
493,496,493,492,421
492,494,492,492,388
492,496,491,493,375
490,494,491,492,384
490,494,493,493,394
491,495,496,492,436
491,495,493,493,491
492,494,493,493,554
492,494,493,494,616
490,493,491,493,626
492,494,492,493,615
491,494,492,494,556
491,494,492,493,458
492,495,492,493,405
492,494,492,492,377
490,494,493,492,379
491,495,494,492,387
491,495,492,492,406
491,494,492,492,459
493,495,493,494,516
491,494,492,494,588
492,493,491,494,625
492,494,494,495,624
492,495,495,495,602
495,495,492,493,513
492,496,495,493,428
492,494,492,492,394
493,496,493,491,379
492,495,491,493,382
492,494,493,492,392
492,494,493,494,427
491,494,493,493,484
492,494,492,493,543
490,493,493,494,611
490,494,493,493,627
492,493,492,491,618
492,495,493,495,567
491,495,492,493,471
492,494,493,492,410
492,493,493,492,378
493,494,493,492,380
491,493,492,493,386
492,494,492,495,404
490,494,492,492,451
491,494,492,492,508
490,494,493,492,578
491,494,491,494,623
490,493,491,492,623
490,495,493,492,608
493,494,491,494,524
492,495,493,493,435
491,493,493,494,398
492,495,490,494,377
491,494,492,494,379
491,495,492,491,392
493,497,493,492,422
493,495,492,492,476
491,494,493,494,536
492,493,491,493,607
490,495,492,494,628
491,493,492,494,620
490,493,494,494,577
490,493,493,492,483
492,495,493,492,414
492,495,493,493,380
492,496,492,492,378
492,494,491,492,384
492,493,492,493,397
492,492,492,493,445
491,494,492,492,500
491,494,492,492,567
492,493,493,494,623
491,494,492,492,627
491,495,492,492,614
492,493,492,495,538
493,495,492,492,443
491,494,493,493,399
492,492,492,493,375
492,493,492,494,378
490,494,493,493,389
493,495,495,494,415
491,494,491,493,466
491,494,492,493,527
492,495,491,491,601
492,495,491,492,627
491,494,492,492,621
491,493,491,491,587
492,496,493,494,494
492,494,492,494,418
491,494,492,493,386
490,492,494,493,377
490,491,494,492,382
491,494,492,491,391
490,494,492,492,439
491,494,491,492,493
492,494,491,492,554
491,493,491,493,618
491,494,492,493,625
491,496,491,492,615
490,493,494,494,553
491,495,493,493,454
492,495,493,493,405
491,493,492,494,378
490,494,492,493,377
490,493,493,492,387
492,495,491,493,410
493,494,491,492,460
492,494,492,493,517
490,493,491,493,590
491,494,493,491,626
490,492,493,494,623
490,494,493,494,598
490,494,493,493,509
491,493,494,493,425
491,491,494,492,393
491,493,492,492,375
491,496,490,492,383
492,495,490,492,392
492,495,490,492,428
490,493,491,492,485
491,493,491,492,547
491,495,493,494,612
490,493,494,494,628
491,495,493,492,618
492,496,492,494,566
492,496,493,493,467
492,495,492,493,409
491,495,492,492,380
493,495,491,493,377
492,493,491,492,386
491,495,494,494,404
491,493,492,492,453
491,493,492,493,509
490,493,492,494,579
489,492,492,494,624
490,494,493,492,624
491,493,490,493,609
490,495,494,493,521
492,494,493,493,433
491,494,492,492,397
492,495,492,491,379
492,495,492,494,380
489,493,491,492,390
491,494,493,491,421
491,492,492,492,476
491,493,491,492,537
490,493,491,494,608
492,494,491,493,630
491,494,491,493,617
491,495,492,492,578
492,495,493,493,481
492,494,492,492,413
492,494,493,493,381
493,494,491,492,378
491,494,492,493,381
490,494,494,495,398
490,493,493,494,445
491,493,492,493,501
491,494,491,493,568
492,494,492,493,623
491,493,491,493,625
492,494,491,492,613
493,495,491,492,536
493,495,492,492,440
491,494,493,493,399
492,492,493,492,377
491,492,492,494,378
490,492,492,493,388
490,493,494,493,414
490,494,491,492,469
490,494,491,494,528
491,492,490,491,602
490,495,492,492,628
492,492,492,492,621
493,491,490,494,584
490,495,491,493,492
492,496,493,492,418
491,494,492,493,384
490,492,491,494,377
489,493,493,493,384
490,495,493,492,393
492,494,492,493,440
491,493,492,492,494
491,493,492,492,559
492,495,490,492,620
492,494,490,492,625
491,495,492,492,616
490,493,491,494,552
492,495,492,493,450
491,494,492,493,404
490,493,492,494,376
489,493,492,492,378
491,493,493,492,389
491,493,490,494,409
492,495,491,492,462
491,494,491,492,519
491,493,490,491,593
490,493,493,492,625
491,492,492,491,624
492,494,492,494,593
490,493,494,494,506
491,494,493,493,423
491,493,493,493,392
490,494,491,492,376
491,494,492,491,381
490,493,493,491,392
493,495,492,492,432
491,494,492,492,487
491,494,491,493,548
490,495,491,493,613
491,494,491,491,628
490,493,493,493,616
490,493,493,494,564
490,494,493,493,465
492,494,492,492,407
491,495,494,493,376
492,492,492,491,378
492,495,491,491,386
492,493,491,492,407
492,491,492,493,453
490,493,490,493,510
490,493,492,491,581
490,492,492,493,624
490,495,493,494,624
490,493,494,493,607
490,493,493,493,519
492,495,493,493,431
491,494,492,493,395
492,495,491,491,378
491,494,490,492,380
492,492,491,492,390
491,495,494,493,422
491,493,492,493,479
491,492,492,493,539
490,493,492,494,607
489,493,493,493,629
490,494,490,493,617
491,496,493,492,576
490,492,492,492,477
491,495,492,491,413
491,495,491,491,382
492,495,490,491,378
490,494,491,492,383
491,492,492,490,403
491,492,491,492,445
490,492,491,492,502
490,493,492,493,570
489,492,492,493,623
491,492,491,492,625
491,494,491,493,611
491,493,491,491,532
493,494,492,492,439
491,494,491,492,398
492,492,493,492,376
490,490,493,493,378
492,494,490,491,387
490,493,492,495,415
490,493,491,493,469
491,493,492,493,528
491,492,490,491,603
490,494,491,495,627
490,494,490,491,619
492,493,490,492,582
493,493,491,492,490
493,493,492,491,417
491,493,491,493,386
492,495,492,493,376
490,493,492,493,383
490,494,492,493,395
490,493,492,492,440
490,493,490,492,494
491,494,491,492,561
490,491,491,493,621
493,494,491,492,625
492,492,492,493,614
492,493,491,494,549
493,495,491,492,449
491,493,492,492,404
492,493,492,493,375
490,493,493,491,379
490,494,492,492,388
492,493,490,494,408
493,494,492,492,462
491,492,491,493,521
492,494,490,492,594
492,494,491,493,626
491,493,492,491,623
492,495,492,494,591
490,495,492,492,504
492,494,492,492,420
491,494,492,492,389
490,494,494,492,377
491,494,492,491,381
491,493,492,492,393
493,494,493,493,432
491,493,491,491,489
491,493,491,492,548
490,492,491,494,613
490,493,491,492,627
490,494,494,493,616
492,492,491,492,563
492,495,493,492,461
492,494,493,492,408
491,494,491,494,376
490,493,491,492,377
491,494,494,492,387
491,493,492,494,406
491,494,492,493,455
491,493,492,493,513
492,493,491,492,585
490,494,493,493,624
490,492,492,491,626
492,494,490,491,605
493,494,491,492,517
492,494,492,492,430
492,493,492,491,395
491,492,492,493,379
491,494,490,494,381
490,494,493,492,390
490,494,494,492,425
490,494,492,492,479
491,493,492,492,541
491,492,492,494,608
493,493,491,494,627
492,491,493,493,617
491,493,492,494,572
492,496,492,492,473
491,494,492,492,412
492,493,493,493,381
490,495,494,492,379
491,495,492,491,385
492,494,493,495,401
490,494,491,492,448
490,493,493,493,506
491,491,492,493,573
490,491,489,494,623
490,494,492,493,624
490,494,493,492,610
493,493,494,492,531
492,493,493,492,438
491,492,492,492,399
492,495,490,491,379
492,494,490,493,379
490,494,492,492,387
491,492,490,491,418
491,494,491,493,471
490,493,491,493,530
490,493,493,493,603
489,493,491,494,627
490,494,491,491,621
489,493,492,495,582
493,494,491,493,487
492,494,491,492,415
491,494,491,493,385
491,495,492,493,376
490,493,490,491,383
492,494,493,494,397
491,495,492,492,442
491,494,492,493,497
491,494,491,492,562
489,492,492,494,621
492,493,491,492,626
491,494,493,494,613
490,492,491,494,543
490,494,492,493,448
491,493,492,492,403
491,494,493,492,377
492,493,492,493,381
491,494,491,491,389
491,494,490,491,412
492,493,491,492,464
490,493,491,491,521
490,492,492,491,597
491,492,492,494,627
490,493,492,493,622
490,494,493,493,590
490,492,493,493,500
491,495,492,492,420
491,494,492,492,388
492,494,491,491,376
492,492,491,493,381
491,492,491,494,391
491,493,492,492,436
491,493,492,493,490
491,494,492,493,554
490,494,492,492,616
491,494,491,491,626
491,494,489,491,615
490,492,494,491,559
493,494,494,492,458
491,494,492,493,405
491,491,491,494,375
490,492,491,494,377
489,493,491,493,386
490,490,496,491,405
490,490,492,492,458
490,495,488,492,515
491,494,488,492,586
492,494,490,492,626
490,494,492,493,622
489,493,491,491,603
490,494,493,494,514
491,494,493,492,430
490,492,493,492,394
491,494,493,492,377
490,494,492,492,383
492,495,493,494,391
490,494,492,494,427
492,493,491,493,482
492,493,491,493,542
490,494,490,491,612
490,493,492,492,626
492,493,491,492,620
491,494,492,492,572
492,495,492,492,472
491,494,492,493,410
491,493,490,493,380
493,493,492,492,378
490,491,492,493,384
490,492,492,494,402
490,492,492,493,449
491,494,492,492,507
490,493,492,492,575
491,492,493,492,626
492,494,492,492,625
492,493,490,492,611
494,494,491,492,527
492,494,493,493,438
491,493,491,493,397
492,495,491,494,375
490,493,493,493,381
490,494,493,492,389
491,495,495,493,417
490,493,492,492,474
491,493,491,493,532
492,493,491,492,605
492,493,491,493,626
491,492,492,493,617
492,494,493,491,578
490,493,493,492,484
492,494,493,493,414
490,493,493,492,384
491,495,493,491,377
491,495,492,493,382
489,494,491,492,398
490,493,492,492,441
491,493,492,492,500
491,493,491,493,563
490,492,491,494,619
490,493,492,492,625
491,492,493,492,615
491,493,491,493,539
491,495,493,492,447
491,494,492,492,402
492,494,491,491,377
490,494,493,492,378
491,492,491,491,389
492,496,493,495,411
490,492,493,494,466
491,492,494,492,524
491,493,492,492,596
491,494,492,492,629
490,493,492,494,621
492,494,491,492,589
493,495,491,493,498
492,495,492,492,419
490,494,492,494,387
490,492,491,491,378
492,494,493,492,383
490,494,493,492,395
489,494,493,491,436
491,494,492,491,491
490,493,492,493,555
492,492,491,493,616
491,493,493,494,625
490,489,492,495,615
490,493,491,495,555
491,496,492,492,458
491,494,492,493,406
492,493,491,492,378
490,495,492,491,379
491,494,491,492,387
492,495,491,492,408
490,494,493,493,458
492,493,492,493,517
491,493,492,494,587
489,492,492,494,626
490,493,492,493,624
491,492,491,493,597
491,495,493,492,510
491,493,491,491,426
491,494,492,492,392
492,493,491,492,378
491,492,491,493,381
491,493,493,491,392
491,492,493,494,428
492,493,491,491,483
490,493,493,492,546
490,494,493,492,613
491,494,491,492,626
490,493,494,493,618
492,493,494,494,569
491,493,492,492,467
491,494,492,493,409
491,493,492,494,378
490,495,491,492,378
490,494,493,493,385
492,493,492,492,406
491,495,492,492,452
491,494,492,493,509
491,494,491,493,578
489,493,491,492,623
491,494,492,492,626
490,493,492,494,607
490,493,493,495,525
491,494,493,493,435
491,493,492,492,396
491,493,491,492,378
491,494,492,493,380
490,494,491,491,390
492,494,491,492,422
491,493,491,492,476
491,494,492,492,535
490,492,492,493,609
492,495,491,493,628
491,495,494,493,620
490,494,493,493,579
491,495,493,493,480
492,493,492,492,414
491,493,492,493,382
493,495,491,492,375
492,492,493,492,383
491,492,493,495,398
492,497,492,492,443
490,494,492,493,503
492,494,492,493,567
491,494,493,492,622
491,494,492,492,626
491,494,491,491,613
492,493,493,494,537
492,494,492,492,442
491,493,492,492,398
490,493,492,493,375
491,492,492,494,380
489,489,493,492,389
491,488,494,493,414
490,496,490,492,468
491,495,491,491,525
490,495,491,491,600
491,495,491,493,628
490,494,492,492,618
491,493,491,492,587
491,495,492,493,493
491,494,492,492,417
490,493,492,493,387
489,492,491,491,376
492,492,494,491,384
490,494,492,495,397
493,496,490,492,437
492,495,491,492,494
491,494,492,492,555
491,492,490,492,617
491,495,492,493,625
489,493,490,492,615
490,493,493,493,551
490,494,494,493,454
491,495,493,493,405
491,493,492,493,377
491,495,491,494,378
489,493,490,492,385
492,493,491,491,408
491,493,492,492,459
491,493,492,492,518
491,493,492,493,590
492,494,491,493,627
491,494,492,491,622
491,495,492,491,598
491,495,493,492,507
491,494,492,492,426
492,494,493,493,391
490,492,490,492,376
491,492,491,493,380
490,493,493,494,391
490,493,493,493,431
492,494,491,492,485
491,494,493,493,547
489,491,491,491,614
491,494,491,492,626
492,493,491,493,617
491,492,494,492,567
491,493,493,492,465
491,494,493,492,408
490,493,492,493,376
489,493,493,492,378
490,494,493,492,385
491,492,491,491,406
491,494,493,493,452
490,493,491,492,510
491,493,491,492,578
491,492,493,493,623
490,494,491,492,625
490,494,493,494,608
493,495,491,494,523
491,494,492,493,434
491,494,492,492,396
491,495,493,491,379
491,494,493,493,381
489,494,491,493,389
491,495,494,493,421
491,493,491,493,477
491,494,492,493,536
489,492,492,495,609
492,493,490,492,627
490,494,492,494,617
489,494,492,491,578
492,495,492,492,479
492,494,493,492,414
491,493,493,492,382
492,493,490,493,377
491,494,492,494,383
490,493,492,493,398
489,493,492,493,445
490,493,492,493,504
491,493,491,491,570
491,492,491,494,621
492,494,491,493,625
493,493,492,494,611
493,493,491,493,535
491,494,492,493,444
491,493,492,493,398
490,492,491,491,379
492,494,493,492,381
491,494,492,491,389
491,494,493,493,416
492,493,492,493,468
491,494,492,492,527
490,493,494,492,600
492,492,492,494,626
490,492,493,493,619
489,493,493,491,586
493,495,493,493,492
491,495,492,492,417
490,494,492,492,387
491,495,492,491,377
491,494,491,492,383
490,493,493,493,395
492,492,490,491,438
490,492,491,493,496
491,493,491,493,557
489,493,491,494,616
490,494,493,493,626
490,492,491,494,613
491,495,493,491,547
490,493,493,493,453
491,493,493,492,403
492,494,490,492,376
491,493,491,492,380
491,494,491,493,385
490,494,493,492,411
490,493,493,493,461
491,493,491,493,518
491,493,493,492,593
490,492,490,494,627
491,494,491,493,621
489,494,491,492,594
492,492,491,493,505
492,493,491,492,423
490,493,492,491,392
492,492,492,494,377
492,493,491,493,383
490,494,492,492,393
490,495,492,491,432
491,494,492,492,486
490,494,491,494,549
489,493,490,492,613
492,494,492,493,628
490,493,493,494,617
490,492,492,495,563
490,494,493,494,464
491,494,492,492,409
491,494,492,493,375
490,492,492,492,380
492,493,490,492,386
492,493,490,493,405
493,493,493,493,455
490,493,491,493,511
491,494,491,492,582
489,492,493,494,627
490,494,492,492,625
491,494,492,491,603
490,492,492,492,521
492,494,493,493,430
491,493,492,493,395
491,494,492,492,377
491,492,491,493,381
490,493,492,493,390
492,494,491,492,425
490,493,492,492,480
490,492,493,493,542
490,493,492,491,610
492,494,491,492,628
492,495,493,493,619
491,492,491,493,573
492,495,493,492,475
491,493,492,493,412
491,493,492,493,380
490,492,493,492,376
491,492,492,492,386
491,495,492,494,399
491,495,491,492,449
491,494,492,493,506
492,493,491,493,570
491,494,494,492,625
490,493,493,493,626
492,494,491,493,611
490,493,494,494,534
491,493,493,493,440
492,493,493,492,399
491,495,492,494,376
490,494,490,492,380
490,494,493,492,387
491,492,491,493,417
490,492,491,493,470
491,492,492,493,530
491,492,491,493,603
490,493,490,492,627
491,495,493,492,623
492,495,493,493,585
493,495,491,492,490
492,495,492,494,416
492,493,491,493,386
491,495,493,493,375
489,493,492,494,383
490,493,492,494,395
490,494,494,493,439
492,494,493,493,498
491,493,491,493,560
491,494,491,492,621
491,493,491,493,626
492,491,492,493,613
492,493,491,492,549
491,494,494,493,451
491,492,492,492,402
491,495,492,495,377
488,494,492,493,381
491,494,492,492,388
491,492,491,494,409
491,494,491,492,462
490,493,491,492,520
490,492,491,493,595
491,492,490,494,625
490,493,492,492,623
492,494,493,495,592
490,493,491,492,502
491,494,493,493,424
490,494,492,492,392
491,495,492,491,379
490,494,493,493,383
491,493,491,493,394
491,495,492,493,432
491,493,492,494,490
491,492,492,494,551
489,492,491,493,614
490,492,491,493,626
491,494,492,491,615
490,490,492,491,562
492,495,492,492,463
491,494,492,492,408
492,493,491,492,377
490,494,491,493,377
490,494,490,491,386
490,493,493,494,406
489,493,492,493,457
491,493,491,493,513
491,492,491,493,586
491,494,492,493,625
490,494,491,492,621
491,492,492,493,603
492,493,492,493,517
491,494,493,492,431
491,493,492,494,395
492,493,491,492,377
490,494,493,492,382
490,494,492,492,392
492,496,492,491,426
492,494,492,493,480
491,493,492,493,541
491,493,492,492,610
490,491,493,494,627
489,493,492,494,618
490,494,493,494,572
493,493,492,492,473
491,493,492,492,411
491,493,491,491,380
491,496,492,492,378
492,493,491,492,385
492,493,492,492,401
490,492,491,493,447
491,494,491,492,504
490,493,492,494,572
489,493,493,494,624
491,494,493,492,623
491,493,493,492,612
493,496,493,495,530
491,494,492,492,438
491,494,492,493,397
491,494,491,493,377
491,492,491,493,379
491,493,492,492,389
489,494,494,492,419
492,494,492,493,472
491,494,493,493,532
491,494,491,491,604
492,494,492,493,626
490,492,491,493,619
491,494,492,492,578
492,493,492,493,486
491,494,492,493,416
491,493,492,494,385
493,494,490,493,377
490,493,493,494,383
491,495,490,491,399
492,495,491,491,442
491,494,491,493,499
491,493,492,492,562
491,492,491,493,622
491,494,491,494,625
490,493,493,494,615
491,494,494,494,544
491,494,493,493,448
491,494,491,493,399
491,494,492,492,378
489,492,492,493,378
491,494,491,493,385
492,493,492,494,412
491,492,491,493,465
491,494,491,493,522
490,493,490,492,598
492,494,493,492,628
491,494,492,492,622
492,494,491,491,593
492,493,492,493,498
492,494,493,493,420
490,493,492,493,387
491,492,491,493,374
490,493,493,494,382
490,493,492,493,394
492,493,493,493,435
490,492,491,492,492
491,493,491,492,554
491,494,492,491,616
491,493,491,493,626
491,491,491,494,617
491,494,495,493,556
491,492,492,493,459
491,494,491,493,405
490,493,494,493,376
489,493,493,493,380
491,492,491,493,384
492,495,493,492,406
490,493,493,492,458
492,494,492,493,514
491,493,490,494,586
490,491,490,492,628
491,493,492,493,622
490,493,490,493,602
491,494,494,492,514
492,494,494,492,427
490,493,492,493,395
490,492,491,495,378
492,494,490,493,382
490,494,491,493,390
491,491,491,493,425
490,493,492,493,482
490,492,492,493,544
490,493,490,493,611
490,494,493,493,628
490,492,492,492,620
493,495,492,492,572
493,494,493,493,473
491,493,492,493,411
491,494,491,493,377
491,494,493,492,379
490,493,492,493,385
491,494,494,494,403
490,495,494,493,451
491,493,491,493,507
491,494,492,494,575
489,492,490,492,623
492,492,491,493,623
491,492,492,494,608
491,492,493,492,530
492,494,492,493,435
491,494,492,493,398
491,494,494,493,378
491,494,492,491,381
492,494,492,492,390
491,494,491,494,418
489,491,492,492,473
490,491,493,493,535
491,493,490,494,603
490,494,493,494,628
490,494,494,494,621
492,492,490,494,580
491,495,493,494,483
491,493,492,492,416
491,493,491,492,383
492,493,492,493,376
491,492,492,492,385
492,493,492,495,395
492,495,492,493,444
491,492,493,493,500
491,493,492,492,565
489,494,494,492,620
490,492,492,491,626
492,494,494,493,614
489,493,491,493,540
492,493,492,492,446
491,493,492,493,400
490,493,493,495,377
492,493,491,492,380
490,494,494,493,387
490,490,494,492,416
491,494,491,492,467
490,493,492,492,523
491,492,494,493,598
490,493,491,494,625
491,495,493,493,621
490,492,492,495,587
490,493,493,494,498
491,494,494,493,421
491,494,491,492,389
491,496,492,494,376
490,494,491,492,385
492,494,491,493,393
493,493,491,493,436
491,494,493,493,493
491,493,492,493,556
491,494,491,495,617
490,493,492,493,628
491,494,493,491,616
491,495,494,492,557
491,494,492,493,455
491,494,491,491,405
490,493,493,494,377
492,492,491,492,377
491,492,491,493,385
490,493,492,495,411
492,493,491,493,458
490,491,492,492,516
491,492,490,492,591
491,495,493,490,626
491,494,491,491,622
492,493,493,494,599
493,493,490,493,510
490,494,493,493,427
491,493,492,493,392
490,492,492,494,376
490,493,493,493,382
492,492,494,493,393
491,492,492,494,427
491,494,492,493,485
491,494,491,492,546
491,493,490,492,610
492,492,491,493,629
491,493,492,494,616
489,492,492,491,569
493,494,492,493,469
490,493,492,493,409
490,494,493,492,379
490,492,492,493,376
491,494,490,491,384
489,493,493,492,405
492,492,491,493,452
491,492,492,492,508
491,492,492,492,579
491,494,491,494,624
490,493,490,492,623
490,494,493,492,609
490,495,494,491,525
492,494,494,492,435
491,492,492,493,396
492,492,491,494,376
490,492,494,493,379
490,493,492,494,389
491,493,491,494,421
490,493,493,494,474
490,493,491,493,536
490,494,492,491,604
490,493,492,492,629
491,494,490,492,620
491,493,490,492,578
493,493,492,492,482
490,493,492,492,414
491,494,492,491,382
489,492,492,493,377
490,493,493,493,385
490,494,492,491,400
491,492,492,493,447
491,494,492,492,500
490,493,491,492,568
491,493,491,492,623
491,492,491,493,624
491,492,493,491,614
492,492,493,495,538
493,495,492,492,443
491,493,494,493,401
491,494,494,492,378
490,493,492,491,380
492,495,491,494,387
491,494,490,492,414
492,494,493,493,467
491,493,492,493,525
489,489,492,493,598
490,492,494,493,627
491,493,491,494,623
491,494,491,493,584
491,493,492,492,495
491,494,492,492,420
491,493,491,492,386
492,491,495,492,377
490,492,490,493,382
491,495,490,491,392
489,492,492,493,437
489,491,492,492,493
490,492,492,492,554
491,491,491,492,619
491,492,491,493,626
490,496,491,492,615
492,495,491,492,554
492,493,492,492,454
491,494,490,492,403
490,494,493,492,375
491,491,492,491,379
491,494,492,493,386
489,493,493,494,410
490,493,493,493,459
490,493,492,492,517
490,493,492,492,592
490,492,490,493,627
491,493,491,492,622
491,491,492,492,597
493,491,493,492,508
491,493,493,492,423
491,492,491,491,392
491,493,490,494,376
489,493,492,493,383
490,493,493,491,392
490,490,492,492,427
490,492,492,492,484
491,494,490,491,547
491,493,491,491,613
491,492,490,493,626
491,493,490,493,614
490,493,493,491,567
491,492,492,492,465
491,493,493,492,406
489,493,493,493,377
489,492,492,492,379
491,494,492,491,383
490,492,492,492,408
492,494,492,493,452
491,494,492,493,511
491,493,491,492,580
491,491,490,492,623
491,494,492,491,624
489,492,493,494,609
492,495,491,494,520
490,492,493,493,432
490,493,492,492,396
490,494,493,491,376
490,492,492,492,383
491,492,492,493,389
492,494,491,491,422
491,493,491,492,477
490,492,491,492,536
491,492,489,492,608
490,495,493,495,627
490,492,491,492,619
492,492,495,493,575
490,495,493,493,479
491,492,493,492,414
491,493,492,493,379
491,495,492,491,377
490,493,493,492,384
491,492,491,493,399
492,492,491,493,446
491,492,491,492,502
490,493,492,493,568
489,493,491,491,623
489,493,493,492,625
491,494,493,491,614
490,494,493,492,536
491,493,492,492,440
491,493,492,493,399
490,493,491,491,377
492,493,491,493,378
490,492,491,493,387
491,492,490,493,413
490,494,492,491,470
490,492,491,493,528
491,493,490,492,601
489,492,493,492,628
492,494,492,492,622
493,494,492,494,581
490,493,493,493,492
492,493,494,492,417
492,492,492,492,384
491,491,490,493,376
491,492,491,493,383
492,494,492,492,394
490,493,494,493,439
492,493,492,492,496
490,493,493,492,559
491,493,492,492,620
492,493,493,492,626
490,493,491,493,613
491,494,494,492,546
491,493,493,493,450
492,492,493,494,403
490,493,494,494,377
490,494,493,492,377
491,492,493,491,389
491,492,491,494,409
492,493,491,492,462
491,492,492,492,520
491,492,491,493,592
491,495,492,491,625
490,494,494,493,624
494,493,494,494,593
491,494,496,493,505
491,494,492,493,423
491,494,491,493,389
490,495,493,491,378
489,493,493,492,382
492,493,491,493,391
492,493,492,494,431
491,492,492,493,489
491,494,492,494,549
489,493,490,492,614
492,493,492,492,628
491,494,492,491,617
492,495,492,491,565
493,494,493,492,465
491,493,493,493,406
491,493,492,492,379
490,495,492,493,376
490,493,494,494,384
490,492,494,494,406
489,493,491,492,453
491,494,491,493,511
490,492,492,494,584
492,494,491,492,624
492,492,491,493,622
491,491,494,494,607
491,494,495,494,517
491,495,492,494,433
492,494,492,493,394
491,494,494,494,377
491,495,494,491,383
492,493,492,494,389
493,496,493,492,424
491,493,494,493,480
492,493,491,493,539
491,492,491,493,607
490,493,493,494,628
490,493,491,492,618
492,494,495,493,575
492,492,492,493,476
492,493,493,492,413
491,493,492,492,382
493,496,492,492,378
491,494,493,492,384
491,492,493,492,403
491,492,492,493,446
491,493,492,492,502
490,492,493,494,571
490,493,490,492,623
491,494,493,492,624
490,491,492,492,613
492,495,492,491,532
492,495,493,492,439
491,494,492,493,400
491,494,491,493,375
492,495,492,493,381
490,493,492,494,389
491,494,494,494,416
491,494,494,493,471
491,493,493,494,530
491,492,492,491,604
492,495,494,494,629
491,493,491,494,619
492,493,492,493,581
492,493,494,495,490
492,494,493,493,418
491,495,493,493,385
492,493,491,493,378
491,494,493,491,384
492,495,492,492,398
492,495,492,494,439
490,493,492,492,496
492,493,493,493,561
491,491,491,494,618
491,493,493,494,626
490,494,494,494,615
493,494,492,493,548
492,495,493,493,449
492,494,494,493,404
492,494,494,492,379
493,493,492,493,378
493,492,492,494,387
493,495,495,494,413
492,494,492,494,464
491,494,492,493,522
491,493,493,494,595
490,491,494,493,628
490,493,494,495,621
491,492,490,491,594
492,494,493,495,502
492,495,493,493,422
492,492,492,493,388
492,494,491,493,376
491,495,491,492,381
491,493,493,492,393
492,494,494,494,435
491,494,493,494,490
491,494,494,492,552
491,492,494,495,614
491,494,491,494,627
492,496,494,493,616
491,493,491,494,561
491,494,492,493,462
491,494,492,493,406
490,493,493,493,379
493,493,493,492,379
491,492,492,494,385
492,495,492,491,410
493,494,491,492,456
492,494,492,492,513
490,493,493,493,585
491,492,491,492,626
491,493,493,494,623
490,493,493,493,603
490,493,493,493,516
491,493,491,493,430
491,493,491,492,395
491,493,492,494,380
491,494,492,492,382
493,493,492,493,390
493,493,491,493,427
490,494,493,493,481
491,493,492,492,542
491,492,494,494,610
489,494,493,493,629
491,494,492,491,619
492,495,493,492,573
490,493,493,494,474
492,494,492,493,410
490,494,492,494,379
492,492,491,493,377
490,492,492,494,384
490,494,492,493,404
493,493,493,493,450
492,494,492,493,507
491,493,492,492,576
492,493,492,491,623
492,493,491,492,624
491,494,493,494,610
493,493,494,492,530
492,494,493,493,437
491,493,492,494,399
491,493,493,494,376
490,493,492,493,379
491,494,493,492,388
491,492,492,491,420
492,493,492,492,474
491,492,491,492,532
492,492,491,492,603
493,493,493,493,630
492,493,493,494,620
493,494,492,492,581
490,493,494,494,487
491,492,494,493,416
491,492,495,492,382
490,491,491,492,378
492,493,492,493,384
491,494,491,494,397
492,493,491,494,442
491,493,491,493,499
491,495,492,492,564
489,492,493,493,622
491,492,492,492,627
491,494,492,491,615
492,495,492,491,545
492,495,492,493,446
491,493,492,493,402
491,494,493,492,377
492,493,492,493,378
489,492,492,494,387
490,492,492,494,411
490,494,492,492,465
491,493,492,492,523
491,494,491,493,595
490,494,492,493,628
491,493,491,494,621
492,492,491,493,589
492,495,495,492,501
491,493,493,493,421
492,494,492,493,388
490,492,494,494,378
490,494,492,492,384
492,495,492,494,392
490,492,492,492,435
492,493,492,493,490
492,494,492,493,552
491,492,491,494,615
491,492,492,494,626
492,494,491,493,616
490,493,494,493,558
493,493,493,493,458
491,493,493,493,407
491,493,492,491,380
491,495,491,491,379
492,493,492,493,386
491,492,491,492,410
491,494,492,493,456
491,492,492,493,514
490,491,494,493,587
490,492,493,492,624
491,492,495,493,625
492,493,492,494,599
492,496,492,492,514
492,494,494,493,429
492,494,490,493,393
491,494,494,493,376
491,491,493,492,384
492,495,494,494,390
490,493,494,493,428
490,493,492,494,483
491,493,491,493,542
490,493,492,492,613
490,491,492,494,627
492,494,491,492,617
491,493,491,493,570
492,494,492,493,472
492,494,491,492,411
491,494,493,495,379
490,495,491,492,378
490,494,493,492,386
491,494,493,492,405
490,495,492,491,450
490,493,492,492,507
491,492,491,493,576
489,493,490,492,622
491,493,492,494,622
490,492,493,494,609
490,492,491,491,527
492,494,493,493,437
491,493,492,492,397
491,495,493,492,378
491,494,491,492,381
492,494,492,493,390
491,494,494,492,418
491,493,492,493,475
490,493,491,493,533
490,492,492,494,604
489,492,493,493,629
490,493,493,492,621
491,492,491,493,581
491,494,494,494,483
492,493,492,492,415
491,494,492,492,383
492,493,492,493,377
491,490,493,491,385
491,494,491,495,396
491,495,490,492,443
490,493,492,492,500
490,494,492,493,565
490,493,493,492,620
490,492,492,491,625
492,494,493,494,614
490,493,490,491,539
491,494,491,492,445
490,493,491,493,401
490,494,490,491,378
489,493,492,493,379
491,492,492,493,389
492,495,493,492,414
490,494,492,492,466
490,492,492,492,525
490,491,492,492,597
489,491,492,493,626
491,493,491,491,619
490,492,492,494,584
489,492,493,494,497
490,493,491,493,420
492,493,491,491,387
490,494,491,492,376
489,494,490,491,383
492,493,490,492,394
491,493,490,492,436
491,492,492,492,492
491,493,492,493,556
491,493,491,494,616
490,493,493,492,626
490,495,494,492,616
491,494,494,495,553
491,491,492,492,456
491,494,492,493,404
491,493,491,492,376
493,493,491,492,376
490,492,492,494,385
490,493,492,495,411
492,494,491,493,458
490,493,492,493,516
491,493,492,491,591
490,494,492,491,626
491,493,492,492,623
492,493,492,493,598
493,493,491,493,510
491,493,493,492,425
491,492,491,492,390
490,492,492,494,376
489,492,493,492,382
492,492,493,491,391
489,491,491,493,428
491,493,492,492,484
491,493,492,492,545
491,492,490,493,612
490,494,493,493,625
490,492,493,491,618
492,492,494,495,567
490,495,492,493,467
491,494,492,492,409
490,493,492,492,380
490,491,492,493,376
492,493,491,492,385
490,494,494,492,404
492,492,490,492,451
491,493,492,493,508
490,492,492,492,580
491,494,492,494,624
489,493,490,493,622
491,494,491,491,609
491,496,492,491,524
491,494,493,492,433
490,492,492,492,395
491,493,491,492,376
490,493,492,494,380
489,492,492,493,389
489,491,493,494,420
490,493,491,492,476
490,493,492,492,535
490,491,491,493,608
491,494,490,491,628
492,492,490,492,618
492,491,490,492,577
492,491,493,493,481
491,491,495,492,412
491,493,491,492,384
490,493,492,493,377
491,494,492,491,385
490,494,493,492,400
491,490,492,494,445
492,493,493,492,501
490,494,490,492,567
491,493,489,492,621
490,492,492,493,623
489,492,491,491,614
492,492,493,493,537
492,492,493,492,444
491,493,492,492,401
491,495,491,491,379
491,494,490,492,379
490,493,492,492,388
491,492,493,491,416
490,491,491,493,468
490,492,491,493,526
490,493,493,494,598
489,493,493,493,628
491,492,491,494,623
492,494,492,495,583
490,492,491,492,495
491,493,492,492,419
492,492,493,492,386
491,492,493,492,379
491,492,491,493,382
492,493,491,493,395
490,494,493,493,439
491,493,493,492,494
491,493,493,491,556
490,491,491,492,619
492,493,493,492,627
490,492,492,494,614
491,492,491,494,550
491,493,493,493,454
491,494,493,492,405
491,492,493,493,377
493,492,492,492,380
491,494,492,491,388
491,494,491,490,410
492,493,491,492,459
491,492,492,493,516
490,492,490,492,589
490,494,492,492,626
490,492,493,494,622
491,494,493,493,595
490,494,495,493,507
492,493,493,492,425
491,494,493,493,389
490,494,490,491,378
492,493,490,492,381
491,492,491,493,390
492,493,494,492,433
491,494,490,493,486
490,495,492,493,549
489,493,493,492,614
490,494,492,491,627
491,494,492,493,616
489,492,492,491,566
493,493,493,493,463
490,492,493,492,409
491,491,492,494,376
490,492,490,494,377
489,492,493,493,386
491,492,491,492,406
490,495,491,492,452
490,494,492,492,512
490,493,491,491,580
492,493,492,492,624
492,494,494,493,625
491,491,491,494,607
492,496,492,495,520
490,494,492,493,433
491,493,492,492,396
491,495,494,492,375
490,492,491,491,382
492,493,493,493,389
493,494,491,493,422
492,492,491,492,478
491,493,491,493,536
492,494,491,492,607
490,492,492,492,628
491,492,493,492,620
490,494,494,492,577
491,495,492,492,478
491,494,492,491,413
491,493,493,493,381
493,493,490,492,376
490,494,492,493,382
490,492,492,494,398
489,491,492,493,445
490,493,492,492,504
491,492,492,492,570
490,491,490,493,620
491,494,492,492,625
492,492,491,492,611
493,493,490,492,534
491,495,493,492,441
491,493,491,491,399
492,494,492,494,375
489,493,493,492,380
490,493,493,492,389
492,495,492,494,413
490,494,492,493,470
491,493,492,493,529
491,492,490,492,601
491,492,491,494,627
490,492,492,494,619
490,493,493,491,585
492,494,493,493,491
491,494,492,492,416
490,493,492,492,387
490,494,493,492,378
492,493,491,491,383
489,493,492,493,395
492,492,490,492,439
490,493,491,492,496
490,491,494,493,559
489,491,491,494,617
490,494,490,493,624
490,494,492,491,616
490,493,492,494,549
492,495,492,492,452
490,492,492,492,403
492,492,490,492,376
490,494,493,493,378
489,492,491,491,388
492,494,493,496,410
489,493,493,494,462
490,493,492,493,519
491,493,491,491,594
490,492,492,494,628
491,492,491,492,622
490,494,492,493,593
492,492,491,494,505
491,493,492,492,423
491,493,492,492,391
492,492,493,494,378
492,491,492,492,383
490,495,491,491,393
491,495,491,491,432
491,493,490,492,486
490,492,492,493,549
491,488,494,492,615
490,490,494,493,625
490,495,492,494,617
491,494,493,495,563
491,494,492,492,462
491,494,493,492,407
490,493,491,491,378
491,495,491,492,377
492,492,491,493,385
492,493,490,493,404
492,493,492,492,455
490,493,492,493,511
491,493,490,491,582
489,492,493,493,626
490,494,492,492,624
492,494,491,491,602
490,493,493,492,519
491,494,492,492,430
491,494,492,492,393
491,493,491,493,376
490,492,492,494,381
489,494,491,491,391
490,493,493,493,424
491,492,492,492,479
491,494,492,492,541
491,494,491,492,611
493,494,491,493,627
490,494,491,493,617
491,494,494,492,575
492,491,494,493,474
491,494,492,493,411
490,494,492,493,380
490,493,493,492,375
491,492,492,491,387
492,495,493,494,400
490,495,491,492,448
492,493,492,493,506
491,491,491,492,571
491,494,492,492,623
490,492,492,494,626
492,493,490,492,610
490,493,494,493,532
490,492,493,493,439
491,493,492,493,397
490,494,492,491,379
491,494,493,493,380
492,494,491,492,386
491,492,491,493,415
491,492,491,493,471
491,493,491,492,530
489,493,493,492,604
492,493,492,492,628
491,494,492,491,620
491,495,492,492,583
492,495,491,492,489
491,494,492,492,415
491,493,491,493,385
491,494,495,492,374
490,493,492,494,382
490,494,493,495,396
490,493,493,493,440
492,494,493,493,498
491,492,491,493,561
492,494,491,491,620
491,494,491,493,625
491,492,491,493,613
491,495,493,492,543
491,493,493,493,450
491,494,491,493,402
490,493,493,493,376
489,493,493,492,381
490,494,491,494,386
490,495,492,491,413
489,492,492,493,465
491,493,491,492,521
491,492,491,493,595
491,492,491,494,627
490,492,492,492,622
493,494,494,495,592
490,493,492,492,503
491,494,493,492,422
490,494,493,492,391
491,495,492,492,378
490,493,493,493,381
492,494,492,493,394
490,495,491,493,431
491,492,493,493,489
490,492,492,493,551
489,492,489,492,615
492,493,493,491,627
490,492,492,494,617
493,496,492,491,561
492,495,492,492,461
491,494,492,492,407
491,494,493,492,375
491,492,492,491,379
492,493,492,493,386
490,493,493,493,406
489,493,493,493,457
490,493,491,493,514
491,492,491,493,586
491,494,491,494,627
491,494,491,493,622
491,493,492,494,602
492,493,492,494,516
492,493,492,492,430
492,492,494,493,394
492,491,492,492,379
491,493,492,491,383
491,496,491,492,392
492,496,492,492,426
491,493,491,491,480
490,493,494,492,543
490,490,491,493,608
491,493,491,494,626
489,494,493,494,618
489,491,490,492,572
491,496,493,493,472
491,495,492,492,412
491,494,491,491,380
492,495,492,492,377
491,493,491,493,384
491,492,492,492,403
490,492,491,494,447
490,494,491,493,507
490,493,492,493,573
490,493,493,494,624
492,495,493,492,623
490,492,492,491,611
493,495,494,495,528
491,494,492,493,438
492,494,492,492,396
491,493,492,493,376
490,494,491,492,381
490,494,495,494,389
493,493,492,493,421
491,493,493,493,472
491,493,492,492,532
490,494,491,494,603
490,492,490,492,627
491,493,493,492,621
491,491,491,494,579
491,492,492,493,486
491,493,493,493,415
490,493,492,494,386
492,495,491,492,378
490,494,492,494,383
491,493,490,491,399
492,494,490,491,441
491,492,492,492,499
491,492,492,492,564
491,492,491,493,622
491,494,491,494,625
490,493,492,493,614
489,493,494,493,542
490,493,493,492,447
491,494,492,492,401
491,493,492,494,374
492,493,491,492,379
492,493,491,493,386
492,492,491,493,411
491,494,492,492,465
491,493,491,492,523
491,493,492,493,598
490,493,493,492,628
491,494,492,491,621
492,494,491,492,591
492,492,493,494,499
492,494,492,492,419
490,493,493,492,387
491,492,490,493,375
490,492,492,493,381
489,493,493,492,394
493,494,493,492,434
490,492,492,492,491
490,492,492,492,555
491,494,491,491,617
491,493,491,493,625
490,494,493,492,615
491,492,491,492,558
491,495,493,493,457
491,492,493,493,405
490,492,493,493,376
489,493,491,494,377
491,494,494,492,388
491,494,492,494,410
493,494,492,492,459
492,493,491,492,515
491,492,490,492,585
491,491,491,492,628
491,494,492,493,622
490,493,490,493,601
490,493,494,493,514
491,492,493,493,427
491,496,492,492,394
490,493,491,494,380
492,494,490,493,382
490,494,491,493,391
491,492,490,493,426
490,492,491,492,482
490,492,492,492,545
491,492,492,493,611
492,492,492,494,629
491,494,492,491,620
492,495,492,492,571
493,495,493,493,469
491,494,492,492,411
491,492,493,491,379
490,492,492,494,376
490,492,492,494,385
490,493,493,494,403
490,494,494,493,449
491,493,492,493,508
491,494,492,493,575
489,492,491,492,625
492,492,491,493,624
491,491,492,493,608
492,493,493,492,529
491,493,491,492,435
491,493,491,492,397
490,493,493,493,378
490,493,493,491,381
491,494,491,491,388
490,491,492,491,422
492,493,492,493,473
490,493,491,492,534
491,491,491,494,605
492,492,492,493,626
490,493,492,492,620
490,493,494,494,578
494,493,493,493,482
491,493,492,492,416
491,495,491,492,384
492,496,492,492,377
492,493,493,493,384
491,492,491,493,396
491,495,493,492,442
491,491,491,493,501
491,493,492,493,565
490,494,492,494,621
490,492,491,493,627
492,494,492,493,611
490,494,492,492,541
492,494,491,493,445
492,494,491,492,400
492,494,493,493,378
492,492,492,494,380
493,495,491,493,388
490,493,493,494,414
490,493,492,493,466
490,492,492,492,524
490,490,494,492,601
491,493,492,493,628
492,493,491,493,620
491,493,492,494,587
493,493,493,494,496
492,494,492,493,421
491,493,492,493,388
491,491,491,491,376
491,494,492,492,385
491,494,491,493,396
492,496,490,492,436
492,494,492,493,493
491,493,491,493,556
490,494,492,493,616
490,492,492,494,626
490,493,493,494,616
490,493,494,492,554
492,493,494,494,456
491,493,492,492,403
491,494,492,491,379
491,495,490,492,379
492,493,490,492,386
490,494,494,492,407
490,492,491,492,460
491,493,491,493,516
490,493,492,494,590
490,492,493,492,628
491,495,492,491,623
492,493,493,494,596
492,495,491,493,509
491,494,493,493,425
492,493,491,493,392
491,492,490,493,377
491,492,492,492,383
492,494,493,494,392
491,494,491,492,429
490,494,493,493,485
490,493,493,492,549
492,493,491,491,613
490,493,492,493,627
491,492,490,492,619
491,494,491,493,564
491,493,492,493,468
491,493,491,493,410
490,492,491,492,379
492,492,493,492,379
491,492,491,492,386
492,494,492,491,406
491,494,491,492,453
491,493,491,492,509
492,493,491,492,578
490,494,491,495,623
491,494,492,492,624
490,494,494,494,607
491,493,494,494,524
491,494,493,492,435
491,493,492,493,396
491,494,492,494,375
490,493,491,492,380
492,493,491,493,389
492,493,492,493,422
491,493,492,492,476
491,493,492,494,537
492,493,490,492,607
490,492,493,492,628
491,493,492,491,620
492,494,492,491,574
490,494,493,492,480
491,493,493,493,414
490,491,492,492,380
492,493,491,492,375
489,493,492,494,385
490,492,491,494,398
492,493,491,492,445
490,493,491,492,504
491,492,491,492,569
491,494,492,492,623
491,494,491,492,624
492,492,493,492,613
490,492,493,493,535
491,495,492,492,441
491,494,491,493,398
490,493,493,494,376
489,493,493,492,378
491,492,491,492,389
492,495,492,494,413
490,494,491,492,469
491,493,492,492,526
491,492,490,492,599
491,493,492,491,628
489,493,493,494,621
491,493,491,494,584
490,494,494,492,493
491,493,493,492,418
490,492,494,492,388
491,494,492,493,374
490,494,491,492,384
490,493,492,492,393
492,492,490,493,436
490,492,490,493,495
490,492,491,494,558
491,495,491,494,617
490,494,491,492,626
490,494,493,491,615
491,495,494,492,553
492,495,492,492,453
491,493,493,493,402
491,491,494,492,378
489,493,493,493,376
490,493,491,494,386
490,495,493,495,410
490,493,491,493,462
492,493,492,493,518
490,492,491,493,591
491,494,491,492,627
492,494,491,492,622
491,492,490,493,596
492,493,491,493,508
491,494,492,492,422
490,492,491,493,393
492,493,492,494,377
490,494,493,492,383
490,493,492,492,394
491,491,491,493,429
491,494,492,492,487
490,492,492,492,548
492,492,490,492,612
492,493,492,494,626
490,492,492,491,618
493,495,494,495,564
491,493,492,493,466
492,493,492,492,408
491,494,492,492,378
491,495,492,492,379
490,493,492,493,384
493,493,491,494,406
490,494,491,493,453
491,493,492,493,509
491,493,493,493,580
489,492,493,495,626
490,491,490,493,622
491,494,493,492,605
491,491,492,492,521
492,494,492,492,431
491,494,492,492,396
491,493,491,493,378
491,494,492,493,379
490,494,491,492,392
490,493,492,494,423
490,493,492,493,477
490,493,492,493,539
490,492,491,494,609
491,494,491,494,627
489,493,490,493,618
492,492,490,492,574
492,492,492,493,478
492,492,493,493,414
