Sensor0,Sensor1,Sensor2,Sensor3,Sensor4

492,588,489,493,493
492,626,490,494,492
492,625,491,491,494
492,631,491,495,491
493,626,490,494,491
493,608,493,494,493
493,515,492,493,493
494,427,492,493,492
493,389,491,493,492
493,372,492,493,493
491,379,490,493,492
493,388,491,492,492
493,427,490,492,490
494,483,490,493,490
492,547,491,493,490
492,616,493,496,494
493,634,491,493,492
494,624,493,494,492
496,572,490,493,494
494,472,491,493,491
494,409,491,494,493
493,373,491,491,493
492,377,492,493,492
494,382,492,493,491
491,401,492,493,490
492,450,491,493,490
492,507,490,494,492
492,579,489,492,491
492,630,492,493,493
492,630,491,494,493
492,615,491,495,493
492,529,492,494,492
493,434,491,494,492
493,394,491,494,494
493,372,492,493,492
494,376,490,492,492
494,386,490,491,492
494,418,490,492,491
492,475,491,492,493
493,538,491,492,491
494,609,492,495,492
492,633,493,492,492
493,625,492,493,490
492,581,491,496,493
492,482,492,493,492
492,413,491,494,492
493,377,489,493,493
494,374,490,493,494
493,383,491,494,491
493,394,490,495,492
492,445,490,493,490
492,501,491,493,491
492,568,491,492,491
493,626,490,492,492
494,630,492,494,490
494,617,489,493,491
492,540,492,494,493
494,443,492,494,493
493,399,491,495,493
492,376,491,494,490
492,376,490,493,492
494,385,492,490,490
493,413,490,493,491
493,466,491,493,492
493,526,490,493,493
494,603,491,494,492
493,631,491,495,491
494,627,491,492,492
495,589,492,495,492
492,494,492,494,492
493,417,491,493,492
492,384,490,494,494
493,372,490,491,493
491,382,492,493,492
493,390,489,493,493
494,436,490,493,492
493,495,490,492,492
493,557,490,494,491
492,621,490,492,492
492,629,492,491,490
493,617,492,494,490
493,553,491,493,491
493,453,492,494,492
492,402,492,493,493
495,373,493,494,491
493,376,491,495,493
492,385,490,494,493
492,410,491,494,490
492,458,490,493,491
492,519,491,491,493
493,597,491,493,491
494,628,490,493,493
495,626,489,493,493
495,597,490,494,492
492,507,490,494,492
493,421,491,494,491
492,388,492,495,492
491,374,491,494,491
492,380,492,493,491
493,389,490,494,491
493,429,491,494,492
493,488,491,493,490
493,549,489,492,492
494,617,489,493,492
493,632,491,494,492
491,619,490,492,491
491,567,492,494,492
493,462,492,494,493
492,404,491,494,492
493,374,492,493,492
493,375,490,495,491
491,384,490,493,493
495,406,493,493,490
492,454,490,493,492
492,511,490,493,492
492,588,491,495,493
494,628,490,493,493
493,627,492,495,493
492,609,493,493,493
493,517,491,494,492
493,429,490,492,493
493,392,492,494,491
491,372,490,493,492
494,379,491,492,491
492,389,491,495,491
492,425,491,494,491
492,480,490,493,491
493,543,492,493,492
493,613,491,492,492
493,633,491,493,491
494,621,490,492,493
495,575,490,493,494
493,475,491,493,494
493,410,492,493,493
492,378,491,493,490
494,374,493,494,490
492,382,491,493,490
492,399,491,492,490
493,447,491,494,491
492,504,490,493,492
492,578,493,494,493
494,628,492,495,493
492,629,492,495,493
492,616,492,495,492
495,530,491,493,493
493,435,490,492,492
494,394,492,494,490
492,372,491,493,492
492,376,489,493,493
493,386,490,491,493
493,416,492,491,492
493,472,490,493,491
492,534,490,492,493
491,608,491,496,491
492,632,491,494,491
493,623,491,495,492
493,580,492,492,492
493,486,491,495,492
493,412,491,494,493
493,379,490,493,494
493,374,490,494,491
493,379,490,495,492
491,396,489,492,492
494,442,492,494,491
492,500,492,493,491
492,565,492,493,491
494,627,492,494,491
493,629,490,494,491
493,618,493,493,493
493,544,491,494,492
493,445,491,494,493
492,398,490,493,493
491,376,491,491,493
493,375,492,493,491
493,385,491,495,489
493,409,491,493,490
493,463,491,493,491
493,523,489,492,491
491,602,492,493,492
493,631,491,492,491
494,626,492,495,490
491,592,492,496,491
492,498,491,494,492
493,418,491,494,492
492,382,492,493,493
492,374,491,493,492
494,379,490,493,492
493,390,489,493,493
493,434,490,492,490
492,493,490,494,491
491,555,489,492,491
492,624,493,494,492
493,630,492,493,491
493,618,491,493,491
493,557,491,493,492
492,457,491,494,491
494,402,491,493,491
492,374,490,492,493
492,376,491,494,494
491,384,491,494,491
492,405,489,491,491
492,459,491,493,491
494,517,490,493,490
493,592,491,492,491
493,628,490,493,493
494,626,489,493,491
492,603,490,494,495
493,509,492,494,493
493,424,491,495,492
492,390,492,495,492
491,374,492,494,491
493,380,490,494,490
493,387,491,495,492
492,429,490,492,491
493,486,491,492,491
493,548,490,493,493
493,617,491,495,494
493,631,491,493,492
492,621,493,494,494
495,568,491,494,491
493,467,492,495,490
492,406,492,492,491
493,373,492,495,491
492,376,490,494,492
494,383,492,493,492
494,404,490,493,492
492,452,491,492,492
492,510,490,494,492
493,582,490,492,492
491,629,492,493,493
493,629,492,492,491
494,610,492,492,491
494,522,492,494,492
493,431,492,494,493
493,392,491,493,493
491,375,492,493,493
492,380,491,491,493
491,389,492,496,490
491,422,491,493,491
492,478,491,492,491
493,540,491,492,490
493,612,491,494,493
495,631,491,493,493
494,623,490,493,494
495,577,491,494,493
492,479,493,494,491
492,410,490,493,492
493,375,491,495,492
492,376,492,493,490
492,381,492,493,491
493,397,489,494,492
492,445,491,492,491
492,504,491,492,492
494,573,489,493,491
493,627,491,494,492
492,629,491,494,492
494,614,490,495,491
492,535,491,494,493
493,440,491,494,492
492,396,492,492,490
493,373,492,493,491
494,376,489,493,492
492,387,491,494,492
493,414,490,492,491
492,471,490,493,492
493,532,491,493,491
491,607,491,496,492
493,631,490,493,492
494,624,492,493,490
493,586,491,495,491
494,489,492,493,491
492,414,491,493,492
493,379,490,492,491
492,375,492,493,492
492,382,491,492,491
492,395,490,493,492
491,440,491,492,492
492,497,491,494,490
492,562,489,491,493
492,624,491,490,492
492,630,491,494,491
495,617,489,493,492
494,547,491,494,492
493,448,491,494,493
493,399,491,493,491
493,375,491,495,491
494,375,490,493,491
493,385,492,492,490
492,409,492,492,490
492,462,491,494,492
492,523,491,492,492
494,598,493,496,491
494,633,491,494,492
493,628,491,494,492
492,595,492,496,493
492,500,491,493,492
493,420,491,493,492
493,385,490,492,490
492,373,491,491,491
493,378,491,492,491
493,388,490,495,490
492,434,490,492,491
493,490,491,492,492
493,556,490,494,493
492,621,491,494,492
491,631,492,494,491
492,619,492,494,493
495,562,491,491,492
492,458,492,495,493
492,402,490,492,492
494,373,490,492,492
494,375,490,494,493
493,383,491,493,490
492,407,490,494,490
493,455,490,493,491
493,517,491,493,490
492,590,493,494,491
494,628,492,495,493
492,630,490,493,492
494,607,492,496,491
494,514,490,493,492
493,426,490,493,491
493,391,491,495,493
493,373,490,492,490
491,381,492,493,492
493,387,492,490,492
492,426,491,493,491
492,483,491,493,491
493,544,490,491,491
493,617,491,493,491
493,631,490,493,491
492,620,491,493,494
492,574,491,494,492
492,470,491,494,491
492,407,491,494,493
496,374,493,494,492
493,375,491,495,493
493,381,490,492,492
495,400,490,492,491
493,449,490,493,491
492,509,490,492,492
493,582,490,492,491
494,627,491,495,492
492,629,492,494,491
492,614,493,494,491
491,526,491,494,493
493,433,491,493,491
491,394,491,495,492
494,371,490,493,493
493,379,489,493,492
493,388,490,494,493
491,419,490,493,491
493,474,490,493,491
492,536,490,493,492
491,611,492,493,490
493,631,491,492,492
494,622,490,491,491
492,583,491,494,492
493,481,492,494,493
491,412,490,494,492
492,380,490,494,493
491,375,491,494,491
490,382,489,493,492
494,397,493,493,491
492,443,491,494,492
493,503,491,493,491
494,568,490,492,492
495,627,491,493,490
493,628,491,494,492
493,619,492,493,491
493,539,491,495,493
492,442,491,493,493
492,398,492,491,493
491,375,493,493,490
492,377,491,495,491
493,384,491,493,492
491,414,490,492,492
493,468,490,493,491
493,528,490,494,491
492,604,491,492,492
493,633,492,494,490
492,624,490,494,491
492,587,492,493,491
493,494,492,494,491
493,415,492,494,492
492,384,491,492,492
495,373,493,493,490
493,380,491,494,492
492,393,490,494,492
491,437,491,494,491
492,494,491,493,491
492,560,491,493,493
494,623,492,493,492
493,628,491,493,493
494,618,490,492,492
495,551,491,493,492
493,451,491,493,491
492,401,491,493,493
492,372,492,493,492
491,377,492,494,490
492,385,492,493,489
492,409,492,492,492
492,460,490,493,491
493,519,491,494,490
490,596,490,492,492
493,630,491,493,492
492,628,492,494,492
491,594,491,492,491
492,506,492,494,492
492,423,492,495,492
492,386,493,493,491
492,373,491,492,491
493,379,491,495,491
491,391,490,491,494
493,432,492,491,490
493,488,490,494,491
492,552,491,494,493
493,621,492,492,491
492,631,493,494,493
493,622,491,494,491
493,564,492,495,492
492,459,492,494,492
493,403,491,493,492
494,372,491,492,492
493,374,492,492,491
492,384,491,493,491
494,402,490,493,492
491,455,491,494,492
491,514,491,493,490
492,587,492,494,493
492,630,490,492,492
494,629,492,494,491
493,605,491,492,495
493,518,491,493,493
493,430,492,495,492
493,390,491,493,492
492,376,492,493,493
493,379,493,493,491
492,386,491,492,490
493,422,491,492,491
492,481,491,492,491
492,543,492,493,491
495,613,491,495,491
493,631,492,495,492
492,624,492,495,493
492,578,493,494,491
492,475,492,493,492
493,408,491,491,492
493,377,490,495,492
492,372,490,493,492
494,381,490,493,492
495,400,490,492,493
492,448,491,492,493
492,507,490,492,490
494,576,491,495,490
491,628,492,493,490
492,628,492,493,490
493,614,491,495,494
492,528,492,494,492
494,438,492,494,492
493,393,491,493,493
494,373,490,493,494
493,379,491,494,492
492,388,491,492,490
494,414,492,494,490
492,472,491,493,492
491,533,491,492,491
493,607,492,493,492
494,632,490,493,492
492,625,493,494,494
495,582,490,492,493
492,485,491,494,492
492,413,491,494,492
492,382,491,493,492
492,375,490,494,493
493,380,492,493,491
493,396,489,494,489
493,440,491,493,490
493,499,490,492,491
494,566,490,491,490
492,626,491,494,492
492,630,490,492,492
494,619,491,495,492
492,543,492,495,492
492,445,491,494,492
492,398,492,492,491
493,373,491,495,492
494,374,490,495,491
492,386,490,493,493
494,410,490,492,494
493,465,490,492,491
493,525,491,493,490
494,604,492,496,491
495,631,490,493,491
493,624,492,492,492
493,589,492,492,492
493,498,491,492,492
492,418,491,494,492
494,383,493,494,491
491,374,491,494,493
492,381,491,494,493
491,391,491,495,492
492,433,490,492,491
492,491,491,493,492
493,558,490,492,490
492,620,491,492,492
493,629,489,492,493
494,619,490,492,494
494,557,493,493,493
492,453,491,492,496
493,402,491,493,491
491,375,491,496,491
492,375,492,493,491
492,384,491,493,493
493,407,491,492,491
493,458,490,492,492
492,517,490,492,492
493,592,489,492,494
493,632,491,495,493
493,625,491,492,492
491,602,492,496,494
494,510,491,494,492
493,422,492,494,490
492,387,491,492,490
493,374,490,494,491
491,381,490,493,493
493,390,492,493,490
493,429,490,493,491
492,485,491,492,493
492,549,490,489,494
491,618,491,494,491
492,630,490,495,490
493,619,491,494,493
493,566,492,493,491
492,464,491,493,493
493,405,491,493,493
495,375,493,494,491
492,375,491,495,492
493,381,490,494,491
490,404,492,494,491
491,451,491,493,491
493,511,491,492,491
493,584,490,492,489
494,630,493,495,492
494,628,491,494,493
493,609,490,494,494
493,522,490,494,493
492,431,491,493,491
492,392,492,492,492
494,372,492,493,490
493,377,492,492,491
492,385,491,491,491
493,420,490,491,491
492,478,491,491,492
492,540,489,490,491
492,613,492,493,491
492,632,491,495,491
491,624,491,495,492
492,580,492,493,493
493,477,492,493,493
492,410,491,494,492
493,375,492,492,490
493,372,490,493,493
494,381,490,493,492
492,399,492,492,492
492,446,490,493,492
492,503,491,494,491
491,575,492,493,491
492,627,492,493,491
495,628,491,494,493
492,614,491,493,491
492,535,492,494,492
494,438,491,493,491
493,396,490,494,493
493,373,489,493,494
492,379,491,492,491
493,384,491,495,490
492,414,490,492,492
492,471,491,493,491
492,529,491,492,491
493,604,490,492,492
492,633,492,493,492
493,624,490,492,490
493,584,490,493,494
492,489,491,492,491
493,414,491,495,491
492,382,490,492,492
493,373,492,491,491
492,381,490,494,491
493,392,491,491,491
493,438,491,492,490
492,498,490,492,490
493,563,491,493,491
493,625,491,493,492
495,632,492,493,489
494,619,493,492,490
492,548,493,492,492
493,448,491,492,491
493,401,491,493,492
494,371,490,495,491
492,376,490,495,493
492,386,491,495,494
492,410,490,495,492
493,463,490,493,491
493,523,491,494,490
494,598,489,494,490
493,631,491,493,491
494,624,490,492,492
494,592,490,492,492
492,504,491,494,493
493,420,492,494,492
493,387,491,494,493
491,376,492,494,491
491,380,492,493,491
492,391,489,490,493
492,432,491,489,493
492,491,490,495,491
493,555,490,493,491
494,619,491,494,492
494,631,491,495,493
493,622,491,490,491
494,562,492,493,494
493,457,491,490,493
493,404,492,493,491
492,374,493,495,491
493,374,491,491,494
492,385,491,490,489
495,404,491,494,488
493,457,490,495,489
493,516,490,494,492
492,591,490,494,492
492,628,490,493,492
492,627,492,492,493
493,604,490,493,491
493,513,492,493,491
492,428,492,493,492
493,389,490,493,491
492,377,490,492,491
493,378,492,492,490
492,389,490,494,491
492,428,491,494,490
492,482,490,492,492
492,545,491,493,492
494,615,491,493,490
494,630,492,496,491
492,622,489,494,492
495,572,490,494,492
493,469,491,494,493
493,408,491,493,494
492,377,493,494,494
493,373,492,493,489
491,383,494,492,489
491,400,491,492,488
492,449,486,492,488
493,509,491,491,489
493,581,493,492,492
493,629,491,493,494
492,629,491,494,492
491,613,491,496,493
495,525,491,494,492
493,434,493,494,493
492,392,492,493,491
493,373,491,493,492
494,377,490,493,493
493,386,490,494,493
494,419,493,494,490
492,475,492,493,492
492,535,491,493,491
492,613,492,494,489
493,632,489,493,492
493,622,491,495,494
494,583,491,496,491
494,482,491,496,491
494,411,491,496,492
493,379,490,491,492
492,374,490,492,492
493,380,490,491,491
491,399,492,492,491
493,442,491,493,492
493,502,491,491,492
492,569,491,492,489
492,624,491,494,490
492,629,490,493,491
492,616,493,493,494
493,538,490,495,493
494,443,491,497,496
492,397,491,499,494
492,375,492,498,493
495,377,492,494,489
493,384,490,496,492
493,410,489,492,490
493,466,490,491,490
493,527,490,492,491
492,603,493,488,491
493,632,492,488,491
494,623,492,493,491
492,590,494,493,492
492,494,492,493,492
492,415,490,491,491
492,381,491,491,489
492,374,491,493,491
494,379,489,490,491
494,392,489,491,492
492,436,489,492,491
492,495,490,496,492
492,562,489,496,491
493,624,491,496,491
493,630,491,494,491
493,618,491,492,492
494,550,492,494,494
493,454,492,494,491
494,401,491,497,491
492,374,490,497,493
492,378,490,496,490
491,385,491,495,490
490,409,489,491,492
493,462,491,492,491
492,518,490,493,493
493,596,490,492,491
495,631,490,493,492
494,626,490,493,492
492,598,493,495,494
493,507,492,495,491
493,421,491,495,493
492,389,492,494,495
492,376,494,493,491
492,380,491,494,490
493,388,492,492,493
490,432,491,494,491
492,487,489,491,490
493,551,489,488,490
494,618,491,493,489
492,631,491,493,492
495,623,491,500,490
496,564,489,501,490
494,463,492,498,495
493,406,493,494,491
494,372,495,489,493
491,376,493,487,491
493,383,491,489,487
490,404,494,489,493
493,456,494,492,491
493,514,493,493,493
491,585,486,490,493
494,630,484,489,490
493,629,491,489,492
493,606,493,490,495
494,519,490,494,490
494,429,490,499,488
493,392,490,498,492
495,376,491,496,490
492,380,490,497,492
492,390,491,495,491
491,425,493,494,492
491,480,491,493,493
493,543,490,490,489
494,613,489,494,488
493,631,487,494,489
496,623,489,500,491
496,576,494,498,490
494,474,494,495,490
495,410,491,493,489
494,375,488,492,490
492,375,489,490,491
492,382,492,490,489
492,400,492,494,493
492,448,489,492,493
494,508,492,493,489
493,576,491,491,493
494,628,493,492,491
491,630,493,491,492
493,611,493,492,494
492,531,492,496,494
494,436,491,497,494
493,393,490,494,493
495,374,489,499,492
497,378,489,496,493
497,388,490,495,489
495,419,490,491,493
491,472,491,487,494
489,534,490,489,490
490,610,491,496,490
492,631,492,500,492
495,625,491,499,487
495,585,490,500,491
496,484,491,494,494
493,413,491,484,494
493,380,491,480,495
491,373,492,488,493
492,383,493,492,487
493,393,494,498,489
491,442,496,495,492
492,500,493,493,491
493,565,489,500,493
495,624,489,498,490
495,630,491,498,492
495,618,490,497,493
495,543,486,490,487
493,445,491,489,489
491,398,493,491,490
493,371,491,492,492
492,377,492,499,496
494,385,492,505,493
495,411,490,503,493
496,467,490,501,491
493,524,490,494,492
494,602,489,493,491
492,631,492,486,492
489,625,491,480,490
490,592,492,493,494
492,498,491,494,490
492,417,492,494,491
494,385,490,499,490
494,371,490,497,490
496,379,489,493,490
494,391,490,491,486
492,434,492,497,489
493,494,491,497,488
493,559,491,500,491
492,622,490,492,494
493,629,489,482,495
493,618,491,493,495
492,559,491,499,495
494,454,493,497,489
493,402,492,494,486
496,373,489,492,490
494,377,489,490,489
493,385,491,493,492
493,409,494,493,495
492,458,494,494,493
490,517,494,498,491
493,593,491,496,486
495,629,491,494,485
492,627,498,496,488
497,603,498,498,491
496,511,489,495,496
493,425,488,492,498
490,390,490,495,496
491,373,490,486,491
492,378,492,488,494
492,390,490,485,490
494,427,491,489,487
495,486,491,493,488
495,550,492,498,488
495,617,496,507,489
494,634,493,504,492
495,621,489,491,491
492,570,489,490,494
491,466,489,490,494
492,406,490,490,492
493,374,487,492,491
494,373,488,496,492
492,382,489,503,497
494,402,490,506,498
493,453,490,501,492
494,511,491,497,494
491,585,494,491,495
495,628,491,487,490
494,627,488,488,490
494,609,489,483,489
494,522,490,487,487
492,433,491,492,492
494,393,492,489,492
493,375,490,496,495
491,380,490,495,492
491,388,491,495,488
492,422,491,493,490
495,477,491,495,490
496,540,490,494,490
497,613,491,498,494
496,633,491,500,498
495,626,492,497,494
493,579,493,484,491
490,477,491,490,490
491,410,491,495,489
491,377,492,491,489
492,373,491,502,494
493,382,491,508,494
493,399,491,499,491
495,447,491,491,491
494,504,491,484,488
493,572,489,477,487
492,628,491,484,493
493,628,492,490,493
491,617,491,495,490
496,535,490,497,492
495,440,492,496,494
495,396,492,501,493
495,374,491,505,490
494,379,493,500,485
492,385,486,485,483
490,413,490,489,493
491,471,491,496,499
492,531,491,499,491
495,608,490,501,490
498,634,492,502,496
496,628,492,499,496
495,584,492,489,494
492,488,490,471,490
491,413,490,481,492
491,383,492,492,495
492,375,490,500,493
496,381,491,508,492
495,397,491,502,491
495,439,490,499,492
494,499,490,492,487
489,562,493,489,483
491,626,495,487,488
494,631,494,481,493
494,619,489,485,497
495,548,489,487,494
495,450,490,497,494
493,399,491,507,492
493,374,490,509,494
493,376,492,496,489
494,383,490,490,490
494,408,489,492,491
492,465,491,494,491
493,521,488,487,490
492,600,489,487,493
493,633,492,489,491
494,627,491,497,489
493,597,489,501,491
496,502,494,502,492
494,420,495,502,494
493,385,496,501,496
492,373,491,495,492
492,379,484,490,488
494,390,489,489,490
493,433,489,488,489
494,492,489,488,488
493,557,491,494,488
492,621,490,491,490
494,630,490,487,491
491,623,492,492,492
495,560,491,495,490
496,461,491,497,491
496,405,490,501,494
493,374,489,493,497
492,378,491,494,491
492,384,492,492,494
494,404,490,490,493
492,458,491,504,494
494,515,489,491,491
495,589,488,488,492
494,633,491,486,492
494,627,491,486,491
494,607,490,497,492
492,516,491,495,493
491,426,491,492,495
492,390,489,491,492
491,375,491,490,490
492,380,489,490,490
493,388,489,489,493
493,425,490,494,488
495,483,490,504,488
495,547,491,503,492
493,617,490,498,495
495,631,491,487,489
491,623,492,486,493
489,573,493,492,495
493,470,491,491,491
492,408,490,493,488
494,372,491,496,486
494,374,490,493,490
494,383,490,491,492
492,401,490,494,493
492,449,490,490,493
492,510,490,500,494
494,579,489,494,490
494,629,492,491,493
494,627,494,491,492
493,611,491,486,486
493,529,491,490,487
493,432,494,490,491
492,395,489,502,495
492,376,488,503,494
491,378,492,504,491
493,387,492,518,493
498,421,490,523,494
495,475,490,505,493
494,537,489,480,492
493,607,489,460,492
491,631,490,469,491
491,622,491,492,486
491,582,492,502,491
494,481,491,499,490
495,414,493,496,489
494,378,493,489,489
495,373,490,496,492
495,385,490,490,494
493,399,491,484,494
491,444,491,489,495
491,503,496,492,494
490,570,498,495,491
494,627,494,500,493
493,629,487,493,493
493,618,493,492,490
494,538,495,490,487
494,443,492,491,488
493,395,484,495,491
495,376,488,490,488
492,377,488,489,487
493,383,489,486,489
491,415,491,484,491
493,468,491,479,492
492,526,490,492,494
493,606,490,510,491
494,633,491,502,490
494,625,488,487,488
496,588,489,494,492
493,494,490,502,497
492,416,492,498,496
493,384,491,493,493
495,372,490,496,490
494,381,491,492,491
493,391,490,490,488
492,435,487,493,489
492,497,487,503,489
491,561,489,494,492
494,624,491,482,493
493,632,491,487,489
491,621,492,501,489
495,555,493,504,493
496,452,492,492,493
490,399,490,487,499
491,370,492,489,494
492,374,490,493,494
491,382,490,494,495
490,407,491,494,491
492,460,490,490,487
493,518,490,495,488
493,599,492,502,488
494,632,494,497,486
494,625,493,483,490
494,596,491,480,489
491,505,487,489,493
493,423,491,493,498
494,388,491,483,495
494,374,491,481,491
492,377,489,490,490
490,391,488,501,491
494,431,490,507,490
493,490,489,502,488
494,551,490,491,490
494,617,491,488,495
492,633,492,485,495
492,622,490,493,488
492,566,490,502,492
493,464,490,501,493
492,406,491,499,491
491,375,489,498,489
496,375,491,505,491
495,385,490,502,494
495,403,490,492,494
493,454,490,485,488
490,512,489,504,488
492,586,490,501,492
492,632,490,488,493
493,628,492,477,488
492,609,493,482,488
493,519,491,494,490
493,429,490,493,492
494,390,490,490,489
492,376,491,490,492
494,378,489,487,492
491,388,490,491,491
490,423,491,494,489
491,478,490,488,488
494,543,491,489,489
496,613,490,496,495
497,632,489,498,489
495,623,490,503,491
495,575,495,498,494
492,476,498,491,492
491,410,500,485,493
491,376,495,489,493
490,375,487,490,489
491,382,493,490,490
491,398,492,492,492
492,447,491,497,489
492,506,489,497,490
494,575,483,492,490
496,628,486,490,492
493,630,488,486,492
494,612,489,488,494
492,530,491,488,495
492,436,490,497,489
492,394,490,491,491
491,374,491,490,494
494,376,490,495,494
492,387,490,489,492
495,416,491,495,490
493,472,489,496,485
495,535,489,496,488
491,610,493,495,493
492,632,493,490,493
493,624,493,491,492
493,584,488,492,490
494,484,485,490,491
494,414,489,487,490
494,379,490,495,491
491,374,489,497,492
491,380,491,491,491
490,396,491,493,489
492,442,491,494,489
492,500,491,494,489
493,565,489,492,490
494,625,490,490,489
492,630,490,492,491
493,618,490,493,492
494,545,490,490,492
493,446,490,492,494
493,397,490,498,495
492,375,491,493,492
493,375,490,497,493
494,384,491,498,488
495,410,490,493,490
493,465,490,491,491
492,525,489,493,490
494,603,492,502,489
493,634,492,499,493
492,628,491,478,488
490,593,491,473,488
493,496,490,490,488
492,418,493,493,490
492,385,494,496,489
494,371,489,495,490
495,380,487,496,489
494,392,492,492,490
492,434,489,488,493
492,493,489,488,491
491,558,490,491,490
491,622,491,492,492
492,631,491,493,490
492,618,491,495,495
492,559,490,495,491
495,457,493,497,493
496,401,497,494,490
494,374,496,500,490
493,378,496,500,490
494,382,489,487,492
489,407,486,484,493
491,457,488,489,492
492,516,488,491,488
494,592,488,495,489
496,631,491,493,492
494,628,489,499,493
495,603,491,497,493
491,511,489,487,493
491,423,488,481,491
491,390,493,485,491
493,373,491,486,491
492,378,491,490,489
491,387,489,496,490
493,427,489,496,491
493,486,489,494,491
493,549,488,495,491
493,615,490,492,491
492,633,492,491,492
493,621,493,492,491
491,569,492,491,492
493,467,491,492,488
492,406,490,495,489
492,371,489,495,491
493,376,491,497,492
492,382,490,493,493
492,403,489,489,494
491,452,490,486,489
492,508,490,489,488
493,584,489,491,489
495,628,492,497,492
494,627,490,497,493
495,611,491,496,493
495,524,492,493,493
491,431,490,499,495
493,393,491,497,495
492,375,491,491,490
491,379,491,492,487
494,388,491,490,485
493,421,489,489,490
493,477,490,493,490
492,541,491,499,491
493,610,490,495,492
494,632,490,493,491
493,625,493,493,488
493,577,492,491,489
493,478,489,489,487
494,411,490,497,488
494,377,492,496,490
495,373,490,484,493
493,383,491,489,493
493,396,489,492,491
491,447,490,495,491
491,503,489,493,489
491,572,489,491,493
493,629,492,489,494
494,628,491,492,492
493,617,489,494,495
492,534,491,490,491
492,438,491,484,493
493,395,490,486,493
495,372,490,492,488
492,377,492,493,494
491,387,489,500,488
492,416,490,499,490
491,470,489,495,490
492,530,490,491,486
491,605,490,490,490
493,631,490,488,491
492,626,492,493,492
495,584,490,495,496
493,490,491,495,493
493,415,490,494,487
494,380,489,495,489
493,373,489,494,491
492,381,492,493,488
492,393,491,492,488
494,438,489,491,490
492,499,491,491,491
493,562,489,490,491
494,627,491,492,491
492,632,490,490,491
490,620,491,493,493
491,551,492,495,491
492,448,491,494,490
492,398,491,490,490
492,374,490,489,490
493,373,489,488,492
493,382,488,495,492
494,409,489,497,490
492,462,489,494,490
493,521,489,488,488
491,601,491,494,490
491,631,491,494,491
492,625,491,493,489
493,596,491,493,489
493,500,491,491,492
492,421,490,494,493
494,385,489,488,492
494,373,490,491,492
492,380,491,492,490
493,391,492,501,490
493,431,490,494,490
493,490,491,486,489
492,552,491,487,490
494,618,489,491,492
494,631,491,491,490
492,621,492,491,496
494,561,493,492,491
493,459,487,496,491
492,403,488,495,490
492,374,490,495,491
493,375,490,494,492
493,381,491,495,494
491,406,490,493,494
491,455,490,492,492
492,512,489,493,490
494,589,491,491,489
492,630,490,491,489
493,625,489,493,488
492,607,492,491,489
492,514,492,492,489
493,427,492,493,493
492,391,491,489,492
494,371,490,492,491
492,379,489,494,491
492,389,490,496,494
491,425,491,494,488
494,482,490,491,485
493,543,488,485,485
491,614,491,488,490
492,634,491,499,492
493,621,489,500,492
494,572,489,493,492
493,471,491,488,491
491,407,490,486,492
491,375,492,491,491
492,376,491,492,491
491,383,490,492,491
491,401,490,493,491
493,448,489,494,490
491,508,488,493,490
493,579,491,495,488
492,627,490,494,490
494,627,489,494,489
494,615,490,491,489
493,526,490,491,491
492,433,491,492,491
493,394,490,495,490
492,374,490,494,488
491,377,491,490,491
492,387,489,491,494
494,417,491,492,492
492,473,489,490,491
491,535,489,489,490
492,607,489,493,492
494,632,489,492,489
493,623,491,491,493
492,582,491,490,492
493,483,490,490,492
492,413,491,492,492
491,379,491,495,491
492,374,489,491,491
492,379,491,489,490
491,397,490,491,491
493,442,490,495,491
491,500,490,494,491
491,566,488,488,489
491,626,490,488,490
491,627,490,493,491
491,619,491,498,492
491,541,492,494,492
491,442,491,494,492
492,396,492,493,496
493,373,489,493,491
492,373,491,494,493
492,384,490,489,491
493,410,489,490,491
492,465,490,497,492
493,526,490,492,489
491,604,489,494,490
494,630,490,492,488
492,626,492,493,489
491,589,493,492,490
492,494,491,491,491
492,416,491,492,490
492,382,491,495,492
493,372,489,493,491
493,380,489,493,491
492,390,488,492,491
492,435,490,491,490
492,494,489,492,490
492,557,490,493,491
491,625,491,490,492
492,629,492,491,491
492,617,491,492,489
493,556,491,491,490
492,451,491,489,491
493,401,491,490,493
494,372,489,496,492
492,376,491,501,493
492,384,490,495,490
493,405,491,493,489
491,458,490,489,490
492,520,490,492,489
492,595,491,493,490
493,630,491,491,491
492,628,491,490,491
493,597,490,494,491
492,507,490,492,491
493,420,490,492,491
491,388,490,493,493
492,373,490,490,491
493,380,491,493,490
491,387,489,492,490
491,429,491,492,490
491,487,490,492,490
491,549,490,492,491
492,615,490,492,490
492,633,490,492,492
493,620,491,491,490
493,568,490,493,491
492,463,491,494,491
491,405,491,495,493
494,372,489,492,489
492,374,491,494,492
493,383,491,491,490
492,402,490,491,491
492,452,491,491,491
491,511,490,491,490
491,586,489,492,491
493,629,492,493,492
493,631,492,494,491
492,611,492,495,492
492,520,492,494,492
493,428,490,493,490
492,391,490,492,493
494,374,491,492,491
493,377,491,492,490
493,387,490,492,490
493,421,490,493,491
492,480,490,493,490
492,542,490,491,489
492,613,490,494,492
491,634,491,494,490
490,623,492,494,490
491,577,489,492,491
494,476,492,494,491
492,408,491,494,492
494,375,491,492,490
493,373,490,493,491
493,381,490,493,489
491,400,492,492,490
492,447,491,492,489
492,506,490,493,489
491,577,490,494,492
492,628,492,493,493
492,629,490,494,494
494,615,493,492,492
491,532,491,493,490
492,436,491,492,491
493,394,490,492,491
494,372,490,492,492
492,377,491,493,491
492,387,490,493,494
492,413,491,491,493
492,473,490,493,490
492,534,492,493,489
491,608,492,493,492
493,633,490,490,490
494,622,492,494,491
491,581,490,492,493
493,486,491,492,492
493,413,491,496,492
493,380,492,493,489
492,375,491,494,491
493,379,489,494,492
490,396,492,494,490
492,440,492,493,490
492,498,491,493,492
492,565,490,491,490
494,627,492,495,491
494,630,490,494,493
494,619,490,493,494
493,546,491,494,492
492,445,491,493,491
493,397,490,493,489
492,375,490,494,492
493,374,491,492,490
493,384,491,492,490
493,408,491,492,491
493,465,490,493,491
493,525,490,493,490
492,600,492,493,492
492,634,491,494,491
492,627,492,493,490
491,594,493,494,493
494,499,492,494,491
493,417,492,495,492
494,382,491,491,492
494,372,490,493,492
493,379,491,493,492
492,389,492,492,492
492,435,490,493,490
492,491,491,494,491
492,557,491,494,490
492,622,493,494,491
493,630,492,493,491
494,622,492,496,493
495,558,491,493,491
492,457,491,494,492
493,402,491,494,493
492,374,490,494,492
490,376,491,493,492
493,382,492,493,491
490,405,490,493,491
492,457,491,493,490
493,516,491,492,491
493,590,491,492,491
491,631,492,493,493
493,629,490,493,490
493,602,490,494,495
492,512,491,496,491
493,427,491,496,490
492,389,490,494,492
494,374,492,493,490
492,380,491,494,491
493,386,490,492,492
494,426,490,492,492
494,484,491,492,491
492,547,490,493,490
492,616,491,495,492
493,630,491,494,493
492,622,493,494,491
492,572,493,494,491
493,468,492,494,491
492,407,491,494,491
494,373,491,495,491
491,375,490,493,494
492,383,490,491,492
493,403,491,495,491
491,451,491,494,491
492,510,491,494,489
494,582,490,493,489
492,628,490,493,489
494,627,490,492,490
494,611,491,493,491
491,525,492,494,494
493,433,492,494,493
493,393,491,495,494
492,375,491,495,491
492,379,492,494,490
492,387,493,495,490
493,419,490,493,491
492,476,491,493,492
492,538,490,491,493
494,610,491,494,493
494,633,491,495,492
493,624,492,492,492
494,581,492,494,493
493,478,492,496,491
492,411,491,494,491
492,378,493,493,490
493,373,491,492,493
490,382,491,492,492
494,395,492,495,490
492,443,490,492,491
493,502,490,493,491
493,572,490,494,492
492,626,490,493,492
491,630,492,493,493
493,617,490,494,490
493,535,492,494,492
492,441,492,493,492
494,396,491,493,491
494,372,492,494,491
493,377,491,492,494
493,385,491,490,494
491,415,491,496,491
492,470,491,494,491
492,530,492,494,493
493,604,491,495,493
495,632,492,495,492
492,624,491,494,493
496,585,491,493,494
494,493,492,491,493
494,415,492,493,491
492,383,491,496,490
493,373,491,495,490
492,381,492,494,491
493,394,493,494,490
492,437,492,492,492
492,496,491,493,490
494,565,491,495,490
494,623,490,494,491
493,630,491,494,493
493,621,491,493,494
493,552,492,495,493
493,449,492,494,493
493,400,492,493,493
494,373,494,493,491
493,373,492,493,491
494,382,491,492,490
494,410,492,495,491
494,461,490,493,491
492,522,491,494,491
492,599,491,496,493
493,632,493,494,491
493,628,493,494,492
495,595,494,494,490
494,504,492,493,493
492,418,492,494,493
493,384,490,493,492
495,373,490,494,492
492,380,492,494,493
492,390,490,493,491
494,431,491,494,491
492,488,491,494,491
492,553,492,494,490
493,621,493,493,490
494,632,492,494,492
494,620,490,491,494
492,566,493,494,492
493,458,492,494,492
494,404,491,495,492
494,374,491,494,492
494,373,493,495,492
492,383,491,494,491
492,404,493,493,491
492,454,492,493,490
493,514,491,492,489
492,591,492,495,493
495,630,490,493,492
494,628,492,496,494
492,608,492,497,494
493,517,492,495,493
494,428,492,493,492
493,390,492,495,490
495,374,490,494,490
494,377,491,493,491
493,386,490,492,492
494,423,490,493,492
494,482,491,493,491
492,543,491,492,492
493,615,491,493,492
492,634,492,492,491
492,623,493,494,489
493,576,493,495,490
494,473,492,496,492
493,408,491,495,494
493,378,491,492,493
494,374,491,494,494
493,383,490,494,492
493,402,492,493,490
493,449,491,494,491
493,507,490,493,490
493,579,492,493,490
493,627,492,493,492
495,629,491,493,491
493,617,493,493,493
495,529,492,494,493
493,435,491,492,492
492,395,492,496,493
491,375,491,496,492
492,378,491,494,490
494,387,490,493,490
492,417,491,494,492
493,474,491,493,491
493,535,490,493,492
495,608,490,493,493
494,634,492,492,491
493,626,491,495,494
495,580,491,492,492
493,485,492,495,491
492,413,492,495,492
493,380,493,493,494
493,376,491,492,492
494,379,491,495,491
492,395,490,493,492
493,443,490,493,492
493,501,490,493,492
493,568,490,492,490
492,628,493,495,493
495,631,491,493,491
494,618,493,493,490
494,541,492,493,492
492,445,491,495,492
493,398,492,494,491
491,372,490,494,493
493,376,491,493,491
493,387,492,495,491
491,414,491,495,491
493,467,491,493,491
493,526,490,493,491
491,602,490,494,493
492,632,491,493,495
494,625,490,493,493
495,589,490,493,493
494,497,492,495,492
493,417,491,495,492
494,383,491,496,493
493,375,492,494,490
492,381,492,494,491
493,391,492,493,493
493,437,491,491,491
493,494,490,495,491
495,559,490,493,491
494,623,491,495,493
493,632,492,496,493
492,622,492,496,491
495,554,492,494,493
492,454,491,490,494
493,402,492,494,489
492,373,492,493,490
494,374,490,494,490
494,386,493,494,489
494,406,490,493,491
493,460,491,493,493
493,519,491,494,492
492,596,492,495,492
491,631,491,493,492
494,627,492,493,490
493,599,490,495,495
494,508,492,494,491
493,422,492,495,492
494,387,491,493,492
492,375,492,493,492
492,381,491,493,491
493,387,491,495,491
492,431,492,494,491
492,486,491,493,492
493,549,492,493,489
493,619,490,495,492
495,632,491,494,491
493,622,493,493,492
495,568,491,495,493
493,464,492,495,493
492,405,491,493,492
493,373,491,496,491
492,373,490,494,493
492,383,492,493,490
492,403,492,492,491
492,451,491,493,491
492,513,490,494,491
494,584,490,494,490
490,629,490,494,493
492,631,491,495,491
492,611,492,496,492
492,522,491,493,492
493,431,492,494,493
493,391,491,495,491
492,373,491,493,492
494,377,491,493,492
493,387,490,493,492
494,421,490,493,490
493,479,491,493,490
492,540,490,492,491
492,615,492,494,492
493,633,493,494,491
493,623,492,493,491
494,579,491,494,492
493,476,492,496,492
492,411,491,494,492
494,377,490,493,492
493,375,491,494,492
492,382,491,493,491
494,402,491,495,490
493,445,491,493,492
493,505,491,493,491
492,574,492,492,490
493,626,491,493,491
492,630,492,493,492
494,616,493,494,491
492,533,491,493,494
494,439,491,492,494
492,397,492,496,492
492,374,492,496,491
494,377,490,493,491
493,385,492,494,491
492,415,490,492,489
493,471,491,491,489
493,531,491,494,491
492,606,492,494,490
495,635,492,494,495
494,623,491,493,494
492,588,493,497,492
493,489,492,495,492
492,415,492,494,493
493,381,490,492,491
494,372,492,494,491
491,378,489,494,492
494,392,489,493,492
493,440,490,493,492
493,498,491,493,491
493,566,491,494,491
493,623,490,494,491
492,629,492,493,491
494,618,492,493,490
494,546,492,494,491
494,448,491,494,492
493,400,490,493,493
491,374,493,493,493
492,377,491,494,493
492,386,491,495,491
492,411,492,494,495
493,462,490,493,492
492,523,491,495,493
493,599,492,492,492
495,632,491,493,493
495,626,491,494,493
494,594,494,494,492
493,501,491,493,491
492,417,492,494,491
492,385,491,495,492
492,374,492,494,490
492,379,492,494,492
492,390,492,492,490
493,434,491,493,491
492,490,490,492,491
493,554,489,492,492
494,620,490,494,492
492,631,491,494,491
494,618,489,492,490
493,563,491,494,491
493,458,491,496,490
493,403,492,494,489
493,374,493,494,490
493,376,492,495,492
494,382,490,493,491
491,407,492,494,492
492,456,490,493,491
493,516,490,494,491
491,591,491,493,491
494,629,492,494,490
493,629,491,494,493
493,602,492,492,492
494,512,491,495,491
492,426,491,494,491
492,390,492,495,492
495,374,490,493,490
493,378,491,495,491
491,388,490,495,491
491,427,491,494,490
492,483,491,494,491
492,545,490,494,492
493,615,491,492,490
492,632,491,493,491
494,621,489,493,492
494,571,490,494,491
493,469,491,495,491
492,406,490,494,492
492,372,491,492,493
492,374,492,494,491
492,381,492,493,488
493,401,492,493,488
492,450,490,492,494
493,509,490,494,490
491,582,490,494,492
494,629,491,495,493
493,630,492,495,492
492,614,491,492,492
495,526,492,495,491
493,432,491,494,491
492,392,492,494,490
492,372,491,492,491
494,377,490,492,491
493,386,489,495,490
491,419,489,493,491
493,477,491,493,490
491,537,490,495,491
491,612,491,495,490
492,632,492,493,489
492,623,490,495,490
492,580,492,496,492
493,481,492,494,491
492,410,491,493,492
493,378,491,492,492
493,375,492,492,490
493,382,490,495,491
494,395,490,492,490
492,444,491,494,491
493,504,492,493,491
493,570,492,490,492
493,628,492,495,492
495,629,492,495,489
493,618,491,494,493
493,539,491,495,493
493,442,491,493,493
492,398,491,495,491
493,371,490,494,489
492,377,492,494,491
492,386,491,493,489
492,411,490,492,490
493,468,490,493,490
493,528,492,494,489
491,603,490,493,492
493,633,491,492,490
491,626,491,495,491
492,589,491,496,492
492,494,491,494,491
492,414,491,495,492
493,381,490,494,494
492,371,491,493,492
492,377,490,492,494
493,391,489,493,492
493,437,492,493,491
492,496,490,493,490
493,560,490,495,489
492,625,493,496,490
493,631,492,494,491
494,619,492,493,490
492,553,492,496,491
493,451,491,494,490
492,401,492,493,492
493,372,490,495,493
493,376,490,495,492
492,385,491,494,490
494,405,489,495,490
492,462,490,493,490
494,521,491,493,489
492,596,491,493,489
494,630,490,492,491
494,628,492,494,489
494,595,490,494,490
493,505,492,494,491
493,421,491,493,493
492,387,491,495,492
492,376,492,495,491
493,379,492,494,490
492,390,489,494,494
492,429,490,493,490
492,487,490,493,490
493,551,489,493,492
494,619,491,495,491
493,630,492,495,493
491,623,490,493,491
495,567,493,495,491
492,462,491,494,491
492,405,491,493,490
493,374,490,492,491
494,372,490,493,490
492,384,492,494,492
494,403,489,494,492
492,454,490,493,491
493,513,490,491,490
494,585,491,495,490
493,630,489,494,492
493,627,491,492,491
493,607,492,493,491
493,518,491,494,491
493,430,491,494,491
493,390,490,495,491
492,375,491,495,492
492,380,491,495,491
491,388,491,495,491
491,424,491,493,491
492,479,491,493,490
492,541,491,492,490
492,616,491,494,492
493,630,490,494,493
493,622,490,494,494
495,576,491,494,491
492,473,491,494,492
492,407,490,492,490
492,377,492,495,489
492,373,492,494,490
492,381,491,493,491
492,401,490,495,490
493,446,490,494,491
492,507,490,493,491
493,576,489,493,492
493,628,490,494,492
492,630,490,492,492
494,615,492,495,490
495,529,490,494,491
493,437,491,494,491
492,393,492,491,493
492,372,490,494,490
494,376,489,495,488
491,386,490,493,491
493,416,491,493,490
494,473,491,494,491
492,534,491,495,491
492,609,492,496,491
495,633,491,495,490
493,623,491,496,494
493,585,491,493,492
493,485,492,494,492
493,412,491,494,492
493,380,492,494,490
492,375,491,495,491
493,379,490,492,491
491,397,492,494,491
492,441,491,494,490
492,499,491,492,492
492,567,490,492,490
492,623,491,495,491
492,629,489,491,492
493,618,489,494,491
494,543,491,496,491
494,445,491,494,492
493,397,491,492,493
491,374,492,494,492
494,376,492,494,490
492,383,492,493,490
492,408,490,493,491
493,464,490,493,490
492,524,490,492,491
492,602,492,494,492
493,633,492,496,491
492,626,492,495,491
492,593,492,495,492
494,497,491,494,492
492,417,490,493,492
492,382,491,493,489
493,372,490,493,490
494,379,489,493,492
493,392,492,493,490
492,435,490,493,490
492,493,491,493,491
492,559,491,494,490
491,624,492,494,491
491,629,492,492,491
493,619,490,494,492
493,555,491,494,491
493,455,491,494,491
494,402,490,493,492
494,372,490,494,492
493,376,490,494,491
494,383,491,494,491
491,408,489,493,491
494,460,491,493,491
492,518,491,492,490
492,592,492,493,492
495,634,491,495,491
494,626,490,493,490
493,603,492,493,494
493,511,492,492,493
492,423,491,494,491
492,390,491,494,490
495,373,492,494,489
492,378,490,494,492
493,388,491,492,490
494,427,490,492,490
492,485,490,493,490
493,547,489,492,490
493,618,492,494,491
492,633,490,492,491
494,624,492,495,491
491,572,493,495,491
492,467,492,494,491
492,406,490,493,492
493,372,492,493,491
492,375,492,493,492
494,383,490,493,492
494,402,489,494,492
492,451,490,493,491
493,511,490,494,490
491,582,489,491,491
493,630,492,494,490
493,629,492,494,490
494,611,492,493,490
493,525,491,493,491
493,432,491,494,492
492,392,490,494,494
493,375,490,494,492
491,380,491,495,491
491,388,491,495,490
491,420,489,492,491
492,477,491,493,492
492,540,490,492,491
493,611,490,491,491
494,632,490,493,491
493,623,490,493,488
493,579,492,494,490
493,477,493,495,490
493,412,494,496,492
492,380,495,495,493
491,374,494,493,492
492,382,492,494,491
493,396,491,494,491
491,446,490,490,491
493,504,490,493,492
493,574,489,493,490
493,628,491,493,492
495,631,492,495,491
493,616,490,494,491
493,536,493,495,491
493,441,492,494,490
492,395,493,493,491
493,372,491,494,491
492,379,489,493,492
493,385,491,493,490
493,416,490,494,491
492,471,494,493,491
492,530,497,494,490
494,605,495,492,490
493,633,496,494,492
491,626,493,492,491
494,585,491,492,490
494,490,490,494,492
492,414,489,495,492
493,383,489,494,493
493,372,489,493,491
492,383,490,494,490
492,396,491,493,489
492,439,491,493,492
492,498,489,492,491
494,562,490,493,492
491,623,490,494,493
494,632,491,495,492
494,621,491,494,493
493,550,491,495,492
493,448,490,493,491
492,400,491,494,492
493,371,492,494,490
493,375,490,492,490
493,383,490,493,490
493,406,491,494,491
492,463,490,493,491
492,522,491,493,491
493,600,489,494,491
492,633,491,494,489
492,626,492,495,491
495,593,490,494,490
493,503,491,493,492
492,419,492,495,495
494,385,490,492,491
494,373,490,494,492
493,379,492,492,491
493,392,489,492,489
493,431,491,495,491
492,491,490,494,490
492,555,491,492,490
492,620,492,492,491
494,630,491,495,491
492,620,490,493,491
491,563,493,495,492
493,459,491,493,492
493,404,491,494,492
492,374,490,494,491
493,373,490,494,490
492,384,490,493,491
493,405,492,493,490
493,456,491,491,490
493,515,491,492,489
493,591,490,495,490
493,630,490,494,490
492,626,492,494,493
492,606,490,494,494
492,516,491,493,493
492,428,491,493,492
493,389,492,495,490
493,374,491,494,492
493,377,491,493,492
493,387,489,491,491
494,425,490,493,491
493,481,490,493,490
492,545,490,493,491
492,616,491,493,491
494,633,492,494,490
493,624,492,494,489
492,575,494,494,491
492,470,491,494,493
493,408,490,492,492
492,376,492,491,493
493,373,489,493,492
494,383,490,493,491
493,401,490,492,490
493,448,490,494,491
492,508,490,493,491
492,580,491,493,490
492,628,491,492,490
494,628,490,492,491
491,615,492,495,493
495,528,491,492,492
493,436,492,494,493
492,394,491,496,490
492,375,491,495,490
492,378,492,494,490
492,385,489,493,492
492,417,491,492,491
492,474,491,493,490
493,535,490,492,491
495,609,489,492,492
494,634,491,493,491
494,623,491,494,493
493,580,491,493,491
492,482,491,494,491
492,414,491,494,490
492,380,492,493,489
492,374,491,494,491
493,380,489,494,489
491,398,489,493,491
493,442,490,493,491
493,502,490,493,490
492,570,491,491,490
493,628,491,493,490
493,631,490,493,490
493,616,493,494,490
493,539,491,494,490
493,444,491,494,491
493,397,491,494,491
491,375,490,493,490
493,376,491,492,487
491,386,491,495,489
492,414,491,494,491
493,468,491,493,493
492,526,489,494,491
492,602,491,494,492
492,634,491,493,493
494,625,490,494,493
495,588,490,493,493
493,496,492,492,491
492,415,490,494,492
493,382,491,492,490
491,374,492,494,490
492,380,492,492,490
492,391,492,493,492
491,436,491,493,491
492,494,490,493,491
492,559,489,492,491
494,621,490,494,492
492,631,491,495,491
491,621,492,495,491
494,551,490,493,491
492,453,491,494,491
493,400,492,494,490
493,371,492,492,491
495,374,490,493,490
494,383,492,494,489
491,407,489,493,492
492,461,491,492,491
492,519,491,492,491
492,597,491,495,490
494,632,492,494,491
493,628,491,493,492
493,597,491,495,492
493,505,491,493,491
493,420,490,493,492
493,387,490,493,492
494,373,491,492,490
491,380,491,494,491
494,388,490,494,489
491,430,491,493,490
492,486,490,493,490
492,549,491,490,489
493,617,491,493,490
492,631,490,493,492
493,622,492,493,493
493,567,490,495,492
492,463,491,494,491
493,407,491,495,491
494,372,490,496,490
493,375,490,494,491
492,382,490,492,490
493,401,490,491,490
493,454,490,493,490
492,514,490,493,489
493,585,489,492,489
493,630,492,494,493
492,629,492,494,490
491,611,492,496,490
492,521,491,493,490
493,429,491,493,491
492,391,490,492,494
491,374,491,493,490
492,376,491,493,492
493,386,489,492,490
494,422,490,492,490
492,479,490,492,491
493,541,491,492,488
492,614,490,494,491
492,633,491,494,490
491,624,492,494,490
492,576,491,493,491
492,475,491,494,492
493,409,490,492,492
492,374,491,492,491
493,372,489,492,491
494,382,489,493,490
491,399,489,493,492
492,446,491,492,491
493,507,490,493,491
491,576,491,493,492
492,628,493,494,491
493,630,491,495,491
493,613,492,495,493
492,534,491,492,491
492,436,491,493,490
492,393,490,494,490
495,373,489,493,490
493,377,492,493,488
491,386,490,494,489
493,415,490,494,489
492,472,490,493,492
492,533,491,492,492
492,608,492,493,491
493,632,491,492,490
493,626,491,494,491
494,581,490,493,491
493,486,491,493,491
493,413,490,493,492
493,381,492,493,493
492,374,491,492,491
494,380,491,493,489
490,395,492,493,490
491,439,491,493,490
492,498,490,492,491
492,563,490,492,490
492,627,492,494,491
494,631,490,494,492
493,619,490,494,494
493,545,491,492,492
493,447,491,493,489
493,397,491,495,489
492,371,490,492,491
492,376,492,491,491
492,382,491,489,490
492,408,490,494,489
492,465,490,494,489
492,522,489,494,489
491,603,489,492,490
493,632,490,494,492
491,626,490,494,494
492,594,492,492,492
494,499,491,495,492
493,417,491,494,491
492,385,493,493,490
492,372,492,492,491
493,378,490,492,491
492,392,492,492,491
494,432,491,493,491
493,492,490,493,491
493,556,490,494,491
493,622,492,495,492
492,632,492,494,490
494,620,490,493,491
491,560,492,494,493
494,456,492,493,493
492,402,491,493,491
493,371,492,492,489
494,375,492,494,490
492,383,490,493,492
492,406,492,492,491
493,459,491,493,490
492,516,491,493,490
492,592,491,494,490
494,631,490,493,489
492,626,491,494,491
492,601,492,492,491
494,511,491,494,490
493,426,491,493,491
493,391,492,494,491
493,375,491,494,494
493,377,491,491,494
492,391,491,494,491
492,428,491,495,489
492,483,490,494,490
493,547,490,494,492
493,615,492,493,493
492,633,492,493,492
494,623,490,493,493
495,570,491,495,493
494,468,491,494,492
493,407,491,494,491
491,375,490,492,492
494,375,492,492,490
493,382,492,492,490
492,400,491,492,491
493,453,490,492,491
493,510,491,492,490
491,583,491,492,492
494,630,490,492,492
491,630,492,494,491
490,613,491,493,491
495,525,492,494,490
493,432,490,493,492
492,392,491,492,490
492,373,491,492,491
493,376,490,492,492
494,386,489,491,490
491,421,492,493,491
492,475,492,492,492
493,540,491,494,489
492,613,492,496,490
493,631,493,494,491
494,626,491,495,493
493,578,493,494,492
492,480,491,494,492
493,411,491,493,491
493,377,490,494,492
492,375,490,492,491
493,380,492,494,490
491,394,489,492,492
492,445,491,493,490
493,503,492,492,490
492,569,491,492,490
492,628,491,494,491
493,629,490,494,490
492,616,489,493,493
493,538,491,494,491
493,441,491,494,492
492,396,491,494,491
492,372,489,494,491
493,376,492,493,492
492,386,491,490,492
493,412,490,493,491
492,468,491,493,491
495,528,489,491,489
493,605,490,492,492
491,631,492,494,493
491,626,492,494,491
491,589,493,495,490
493,492,491,494,491
493,415,490,493,491
492,381,491,495,492
492,373,489,493,493
494,381,490,493,492
493,393,489,494,492
492,437,491,492,491
492,497,491,492,491
492,560,490,492,490
492,625,491,493,490
493,630,491,491,490
494,617,491,492,491
494,550,491,494,492
493,452,491,494,492
493,400,492,493,492
493,375,490,492,492
492,378,491,493,490
491,385,492,496,490
494,407,489,493,489
492,462,491,493,489
493,520,490,492,489
493,597,490,492,489
493,631,491,495,491
494,627,492,492,492
493,598,491,495,495
494,504,491,494,494
493,421,491,494,491
492,388,493,494,490
491,374,492,492,492
492,380,491,492,491
493,388,492,495,490
491,430,490,492,491
493,488,491,492,491
492,553,490,494,492
492,619,490,494,491
494,630,490,493,490
492,621,492,493,493
493,564,492,493,491
493,461,492,494,491
494,404,492,493,490
494,371,492,495,490
492,377,491,493,492
493,382,492,492,491
493,406,491,493,490
493,456,491,493,491
492,513,492,492,494
493,587,489,492,490
493,630,492,495,492
491,626,490,493,493
495,607,490,493,492
495,518,492,494,492
493,428,491,494,491
493,392,491,495,489
493,372,490,494,490
492,379,492,493,490
493,388,492,492,489
493,424,491,492,490
492,480,491,493,492
492,544,490,492,491
491,615,492,493,493
492,633,491,494,492
492,624,492,494,492
492,576,492,495,492
494,471,491,493,491
493,410,491,494,492
493,373,493,493,491
494,373,490,492,491
493,381,490,492,492
493,401,493,492,492
492,449,490,493,489
493,506,490,493,490
492,578,490,493,491
492,629,492,494,490
493,628,493,495,493
492,615,492,493,491
494,531,492,495,492
492,434,491,493,491
493,394,490,493,493
494,373,490,493,492
492,378,491,494,491
493,384,490,494,491
491,418,490,491,492
491,473,491,492,490
492,534,491,493,488
493,608,492,493,490
493,633,491,495,490
494,624,490,494,489
492,582,493,493,493
493,484,490,493,491
493,413,491,494,492
492,381,492,493,491
494,372,492,493,490
493,382,491,495,491
493,393,491,492,490
494,441,490,492,489
493,502,490,492,489
492,567,492,493,491
493,627,492,492,492
493,629,492,494,489
492,618,493,495,489
493,544,493,495,489
492,445,491,494,493
492,397,491,494,495
494,372,490,492,490
492,376,492,493,493
493,385,490,492,493
493,412,490,494,491
493,465,491,493,491
493,524,491,494,490
492,601,490,492,491
492,631,491,492,491
494,625,490,492,491
494,590,491,492,491
492,498,491,494,492
492,417,491,494,491
493,383,491,494,493
492,374,491,495,491
492,382,492,494,490
492,393,490,493,492
493,435,491,493,490
493,494,491,493,490
493,556,490,492,490
494,621,490,494,492
495,632,491,494,493
493,621,491,494,491
493,555,491,495,492
492,453,491,493,491
492,401,491,494,491
492,375,492,493,490
493,375,491,492,490
491,384,491,494,492
493,405,489,493,490
491,460,490,494,490
493,517,490,493,491
493,596,490,494,491
492,632,490,493,491
493,627,492,493,491
493,601,490,493,492
492,507,492,494,491
492,424,491,492,491
494,388,490,491,491
491,374,492,491,495
493,380,492,492,489
493,390,491,498,490
492,429,491,494,491
492,486,491,493,490
492,549,492,492,489
493,617,490,495,492
495,631,490,494,491
492,623,491,493,493
495,568,491,494,492
494,466,491,494,491
493,407,491,492,491
493,376,491,495,490
494,375,490,493,489
492,382,491,492,490
492,402,491,492,490
493,453,491,492,490
492,512,491,493,491
494,583,492,493,489
492,630,491,494,492
492,629,491,494,491
491,612,492,495,492
492,521,491,492,493
492,430,491,491,492
493,392,491,493,488
493,371,490,493,490
494,376,490,493,492
494,388,490,492,493
493,421,493,492,491
493,478,490,493,489
494,540,491,493,490
491,613,493,494,492
492,632,492,493,491
494,622,491,492,493
492,579,492,493,492
494,477,492,494,491
491,409,490,494,491
492,377,490,493,492
493,375,491,494,490
492,380,490,493,491
491,399,492,494,492
493,445,490,493,490
492,503,491,492,491
493,571,490,491,490
494,627,490,493,489
492,629,490,494,492
492,615,493,493,489
492,535,492,495,492
492,439,491,494,491
492,396,492,494,491
492,376,492,493,493
492,377,491,492,491
493,384,491,496,491
491,413,490,494,492
493,468,491,493,492
493,530,490,493,493
493,605,492,493,492
492,633,492,494,493
495,625,490,493,490
492,585,493,494,492
492,488,492,494,492
492,414,491,494,490
492,382,490,492,490
494,374,492,492,490
493,381,491,494,491
492,393,490,495,493
491,439,490,493,492
492,497,491,490,489
492,563,491,493,491
494,625,491,491,491
493,628,490,491,494
493,617,489,492,491
496,548,490,494,492
493,449,491,495,491
493,399,491,495,490
494,371,491,495,491
491,376,492,494,490
492,384,491,493,490
492,409,491,493,491
492,463,490,493,490
493,523,491,494,489
493,599,489,493,492
493,632,491,495,493
493,627,491,495,492
493,593,491,493,491
492,502,491,493,491
493,418,492,493,490
492,385,492,493,490
492,371,491,492,491
493,378,491,494,489
492,388,489,492,491
492,432,491,493,491
493,491,490,493,491
492,554,490,494,491
491,621,491,494,490
492,631,492,494,491
493,620,492,493,490
493,562,491,495,491
493,457,491,493,490
493,402,490,492,493
494,372,489,490,492
493,374,492,494,492
493,384,491,494,492
494,403,492,494,491
492,456,491,493,490
493,515,491,492,489
493,589,490,493,491
492,629,492,494,492
492,628,492,494,492
494,604,491,494,494
493,515,491,493,494
492,426,490,493,491
493,390,490,495,491
491,376,489,493,492
493,379,492,492,491
492,388,492,492,490
492,423,490,493,491
492,483,490,492,491
491,547,491,493,491
494,615,489,493,491
494,632,491,494,490
491,624,492,495,491
491,574,493,495,491
493,471,491,494,492
494,407,492,494,491
492,376,490,495,491
494,374,490,493,491
493,381,490,494,492
494,400,490,493,490
493,449,491,493,491
492,508,491,492,493
494,583,492,493,489
493,629,493,494,489
494,627,491,492,492
494,616,492,495,492
495,526,491,494,492
492,434,491,492,491
493,394,490,495,492
492,374,491,495,492
491,377,491,495,491
492,386,489,492,492
493,418,492,492,492
493,474,490,493,489
492,536,490,492,489
493,607,490,492,491
494,631,490,493,490
492,624,491,494,494
492,581,491,491,492
493,482,491,495,490
492,413,491,495,490
492,379,493,494,490
492,375,491,494,492
493,380,490,493,491
491,397,491,492,492
494,443,491,493,491
492,502,490,494,491
493,568,490,492,490
494,626,492,495,491
492,629,490,494,493
494,617,493,493,490
493,539,492,493,490
492,441,491,493,491
492,396,490,493,491
491,376,492,493,492
492,376,491,491,491
493,387,491,493,490
491,414,491,494,490
492,467,490,494,490
492,527,490,492,491
492,603,492,493,491
491,632,491,492,491
494,624,490,493,492
494,586,490,494,492
493,493,491,494,490
493,416,491,494,492
492,380,491,492,492
492,374,493,494,490
493,381,492,492,490
492,390,492,491,491
491,437,491,494,491
491,496,491,494,490
492,559,489,492,492
495,624,492,495,493
491,632,492,495,490
491,619,492,496,492
492,552,491,493,491
492,452,492,494,491
493,400,491,493,491
493,371,492,493,492
493,374,490,493,492
493,383,490,493,489
492,408,490,494,491
492,460,491,493,491
492,521,490,494,489
491,598,492,494,490
492,630,492,493,491
492,628,491,495,491
494,596,491,496,492
492,506,491,493,492
493,423,492,493,492
493,388,491,494,493
493,374,490,493,492
494,381,492,494,489
493,388,489,493,490
492,430,491,493,490
492,488,491,493,490
492,550,490,492,491
494,616,490,493,491
493,634,492,494,493
493,620,492,493,491
493,568,492,495,492
492,464,491,494,491
491,405,492,494,491
494,373,489,492,490
492,374,490,494,492
492,383,489,491,491
495,403,489,493,491
492,454,490,493,491
492,512,491,493,491
493,589,491,494,491
493,628,490,493,490
492,629,492,493,490
493,610,493,494,490
493,519,492,494,493
492,431,491,494,492
494,391,493,495,491
491,373,490,493,493
492,380,490,494,491
492,389,492,495,492
491,424,491,493,492
493,479,491,492,492
492,541,492,494,492
492,614,491,493,490
495,632,491,494,490
495,623,490,495,492
495,576,492,494,492
493,474,492,494,491
492,408,491,493,491
492,378,491,495,490
492,375,492,493,490
491,381,492,492,495
492,399,489,491,491
493,446,490,493,492
492,504,490,489,492
494,575,489,494,491
493,628,491,495,491
491,626,490,492,492
492,617,491,495,490
495,531,490,494,491
493,437,491,494,491
493,395,492,493,490
493,373,491,493,491
494,376,492,494,491
492,387,490,493,491
492,416,492,493,492
493,472,490,493,491
492,534,491,494,490
492,608,492,494,492
494,633,490,493,490
494,623,492,495,493
492,581,491,493,492
494,487,491,493,491
493,413,490,493,492
492,380,492,493,491
492,375,491,494,491
494,379,490,494,491
491,396,492,493,490
492,440,491,493,491
492,499,491,493,492
492,565,490,489,489
494,627,492,495,490
493,629,489,494,493
493,619,490,493,493
493,546,491,494,493
492,446,491,494,493
493,397,490,495,491
491,375,490,494,493
493,374,491,492,491
493,383,491,492,490
493,408,490,492,490
493,465,491,493,491
493,524,490,493,490
492,601,491,494,492
492,633,492,495,492
492,628,493,494,490
492,594,494,494,494
493,499,492,493,492
492,418,491,494,491
493,381,490,492,491
494,373,489,493,492
493,380,490,493,492
492,389,492,492,493
492,436,491,492,490
492,492,491,494,491
492,557,491,493,490
492,622,491,492,490
493,630,491,492,491
493,621,492,495,492
495,557,491,492,492
492,456,491,494,492
493,402,491,495,493
493,374,491,494,492
491,376,492,493,492
493,382,492,493,490
492,406,490,493,492
492,457,491,492,492
492,515,490,490,490
495,591,490,492,489
493,631,492,493,493
493,629,492,492,492
493,601,492,495,494
492,512,492,494,492
493,426,491,494,491
492,389,491,494,492
492,372,491,492,491
491,380,491,493,490
494,386,489,491,490
494,426,489,493,490
493,485,491,493,491
492,548,491,492,491
493,614,490,493,491
492,632,490,493,493
492,621,492,493,491
492,570,492,492,492
493,468,492,492,493
493,407,491,495,491
494,373,490,495,491
492,374,491,495,493
492,383,490,494,492
492,404,490,494,491
492,451,490,492,492
492,510,491,491,489
493,583,490,493,490
493,627,492,493,492
495,627,490,493,492
495,611,491,494,490
493,524,492,494,493
493,432,491,492,490
493,393,492,495,491
491,375,492,494,491
491,378,492,493,490
492,387,492,492,489
492,421,490,494,491
493,476,490,493,491
492,539,490,493,492
493,610,489,493,492
493,634,491,494,490
492,624,490,492,491
494,580,492,494,492
493,478,491,493,491
492,410,491,493,492
493,376,491,492,491
493,373,490,492,490
491,381,492,493,493
494,397,492,491,490
493,445,491,493,491
492,503,490,493,491
492,573,491,493,491
492,627,491,493,495
493,628,492,493,492
492,619,491,492,491
495,534,491,493,491
493,440,490,493,491
493,397,490,493,492
494,374,492,493,491
493,377,491,494,492
494,384,490,492,490
491,414,492,492,491
492,468,490,492,490
492,528,491,492,490
491,605,491,491,493
494,631,491,492,489
492,625,490,494,492
493,586,490,493,493
492,492,490,494,491
493,414,491,494,492
492,381,493,494,493
493,373,490,492,490
493,377,491,493,492
493,389,490,491,492
494,437,490,493,490
493,496,490,493,491
494,562,491,491,489
492,626,492,495,490
492,631,492,494,490
493,619,492,494,490
493,551,492,493,492
492,449,491,493,492
493,400,491,494,491
492,371,490,493,492
493,376,490,493,493
493,385,491,493,493
492,406,490,492,491
492,462,490,493,491
493,520,490,492,489
491,598,492,493,490
493,630,490,492,491
494,626,490,493,491
491,599,490,493,494
493,505,492,493,492
492,421,491,492,493
492,386,491,496,492
492,374,491,495,490
494,379,490,493,490
492,389,492,493,493
493,432,491,492,490
492,489,491,492,491
493,550,489,492,491
494,618,489,494,493
494,631,492,493,491
491,622,492,495,491
495,563,491,495,491
492,461,491,493,491
492,404,492,493,491
492,373,492,493,491
491,376,490,492,492
493,384,491,490,492
493,404,490,493,492
492,455,490,493,491
493,514,490,494,490
494,587,490,492,490
491,630,491,493,492
494,630,491,491,489
494,606,492,492,489
494,516,491,493,489
494,430,492,493,489
493,391,491,493,494
491,375,492,493,492
492,380,491,495,491
491,388,491,495,491
491,424,491,494,491
492,481,491,493,491
492,544,491,492,490
493,615,491,494,492
494,631,491,494,494
493,622,490,493,494
494,574,491,495,493
493,472,492,494,491
491,408,491,493,492
494,374,492,494,491
492,374,492,491,490
492,379,491,492,491
493,399,491,495,490
492,447,491,493,491
493,508,491,492,491
493,579,490,493,492
493,628,491,494,491
491,629,491,494,492
494,613,490,495,490
492,528,491,493,492
493,436,491,493,491
493,393,491,493,491
494,372,490,493,492
494,378,490,493,492
493,387,492,493,493
492,418,490,492,491
493,473,491,492,491
492,535,491,493,490
491,610,492,494,492
494,632,492,494,492
492,623,490,493,491
492,585,492,496,492
494,483,491,493,491
493,412,490,494,491
492,379,490,493,489
494,372,490,494,490
491,381,489,492,493
494,397,492,491,490
493,442,491,493,491
492,500,491,492,491
494,569,491,494,491
493,625,490,493,491
492,629,491,494,491
492,620,490,494,492
492,543,491,494,492
492,443,491,494,493
493,398,490,493,493
494,372,493,493,491
492,376,491,494,491
494,384,490,492,491
494,408,490,492,492
493,465,490,492,492
492,525,491,493,492
491,603,490,491,493
495,634,493,492,493
493,626,492,492,490
493,590,493,494,491
493,497,491,494,491
493,416,491,492,491
492,384,492,492,492
495,374,490,493,491
493,381,490,494,491
492,392,490,491,491
494,434,491,493,491
492,492,490,492,492
492,559,491,491,489
492,622,491,491,491
493,629,490,492,492
494,619,489,492,490
492,557,492,494,492
493,453,491,493,492
493,402,492,494,492
492,375,491,495,490
492,375,493,494,490
492,384,490,493,492
492,405,491,492,491
492,459,490,492,490
493,518,490,492,491
494,594,489,492,493
493,632,491,490,492
495,627,492,495,489
492,598,491,493,493
493,510,492,494,491
492,423,492,493,491
492,387,492,491,491
492,376,490,495,491
494,379,490,494,489
492,390,489,493,493
492,430,490,493,493
493,486,491,493,491
492,549,490,494,491
492,616,490,491,492
492,631,492,493,492
492,623,491,491,490
494,566,491,493,491
493,464,491,494,492
492,404,490,494,492
493,375,490,492,492
492,373,490,492,491
492,384,491,492,490
491,405,492,494,489
492,453,491,493,491
493,511,490,492,490
493,584,491,495,491
492,630,490,494,493
494,630,490,494,493
493,611,491,495,494
493,523,492,493,492
493,431,491,494,490
493,390,490,493,490
492,376,491,492,490
492,378,492,492,489
493,386,491,492,489
494,420,490,494,491
493,480,491,492,490
493,540,491,492,490
494,614,489,494,492
493,634,492,493,492
491,624,492,493,494
494,577,490,493,491
493,477,492,495,490
494,409,491,493,491
494,377,491,492,490
494,373,490,493,492
493,382,492,493,490
493,400,490,493,491
493,446,491,492,491
493,507,491,492,491
491,576,492,493,490
491,628,493,494,492
493,631,491,492,491
494,615,492,495,492
492,532,491,494,492
494,438,492,493,492
493,397,491,494,492
492,373,490,494,492
494,375,489,492,490
491,387,492,492,492
494,414,492,492,490
492,472,491,493,490
492,531,491,492,490
493,604,491,494,491
492,633,490,493,492
492,624,491,492,492
493,587,491,495,492
492,490,491,493,491
492,415,492,494,493
494,380,490,493,490
492,373,491,494,492
492,378,491,492,491
494,392,489,492,490
494,439,490,492,491
492,499,491,493,490
493,565,490,493,489
493,623,491,495,491
493,632,492,494,491
493,619,493,494,490
492,548,493,493,491
492,449,491,493,492
493,399,491,492,491
491,375,492,494,492
494,377,490,493,491
493,385,491,494,493
492,410,491,494,491
493,462,490,492,490
492,523,490,493,492
493,600,491,492,490
494,631,490,492,491
494,625,490,492,492
494,596,492,494,491
494,501,491,493,491
492,419,492,493,493
493,386,491,494,493
492,376,492,495,489
491,380,492,494,491
493,390,492,492,490
493,434,490,493,491
492,490,490,492,492
493,554,489,491,493
493,621,491,494,494
493,631,492,493,493
494,620,490,494,493
493,563,491,492,492
494,458,491,493,491
492,404,492,490,490
492,373,493,491,492
492,376,490,496,492
493,383,490,493,490
490,406,493,493,493
491,457,489,492,491
493,515,490,494,491
492,591,490,492,491
493,628,491,492,490
493,628,490,494,492
493,602,491,492,491
493,513,491,493,491
493,428,491,493,492
493,390,492,494,493
494,374,490,492,490
493,378,491,494,491
492,389,491,495,491
491,427,491,494,491
492,483,491,493,490
492,545,490,493,492
493,615,492,493,491
493,633,493,494,492
495,622,490,493,493
495,573,490,494,493
493,469,490,494,492
492,406,490,493,492
491,374,490,492,491
492,374,492,492,491
493,382,491,492,490
492,400,491,491,490
491,451,490,493,491
493,509,490,493,491
491,582,489,492,492
494,629,489,493,492
492,630,491,494,491
491,614,490,492,491
495,527,491,494,492
494,434,491,492,491
493,392,492,493,491
493,372,490,493,492
494,378,490,492,493
493,387,489,493,490
491,419,490,493,492
492,476,491,493,490
492,538,490,494,491
492,611,492,495,489
493,633,492,493,490
493,624,491,495,491
494,580,492,495,492
492,482,491,494,492
493,410,490,492,492
494,379,489,492,492
492,375,491,492,491
493,382,491,494,491
494,395,490,492,490
492,444,491,493,491
492,502,491,492,490
493,570,491,491,491
492,627,491,492,492
494,629,492,493,490
492,618,490,493,493
493,538,491,493,493
493,443,490,493,493
494,398,492,493,492
494,371,489,492,490
493,377,491,494,490
493,386,491,492,491
493,411,490,492,490
493,468,490,492,491
493,528,491,492,489
492,604,489,494,492
494,632,491,492,493
492,627,492,494,491
492,590,493,496,491
493,495,492,495,492
492,415,490,494,491
493,381,490,494,493
492,371,490,492,492
494,379,489,493,492
493,391,489,493,493
493,436,491,493,491
492,495,489,493,491
493,560,489,494,490
491,625,491,493,491
492,630,491,492,491
493,619,491,492,491
493,552,491,495,492
493,451,491,493,491
492,402,492,494,493
493,372,490,494,495
491,376,491,494,493
492,385,491,494,491
494,405,489,493,491
492,462,490,492,490
493,520,491,492,490
493,594,490,491,490
494,631,490,493,492
495,627,492,493,489
495,598,490,493,491
494,506,492,494,493
492,420,491,494,493
491,388,491,494,493
491,374,492,493,492
493,379,491,493,491
492,390,489,494,492
493,428,490,492,491
492,486,490,492,491
493,550,489,492,492
494,618,489,493,490
493,630,490,494,492
492,623,489,491,492
495,567,493,494,492
492,463,491,494,492
492,406,491,492,491
493,375,491,495,493
494,372,490,492,491
492,385,492,493,493
493,403,489,493,492
493,454,490,492,491
493,513,490,492,490
493,584,491,495,491
492,630,490,494,494
494,628,492,493,491
494,607,492,493,491
494,519,491,493,492
492,430,491,494,491
492,390,490,492,491
492,376,490,492,494
491,379,491,494,491
492,388,491,495,492
491,424,491,492,491
492,479,490,492,490
493,542,490,491,492
493,615,490,491,492
493,630,490,492,494
492,622,489,493,492
496,576,490,494,490
493,474,490,495,491
493,409,490,493,490
492,377,491,494,491
491,374,492,493,491
492,381,491,493,490
492,400,490,494,491
492,445,490,494,492
493,507,491,493,492
494,575,489,493,493
494,628,490,494,493
493,630,491,493,492
494,617,492,496,492
495,530,491,493,492
492,436,491,493,491
492,393,491,493,491
492,372,491,492,491
494,376,489,494,490
491,386,490,492,492
494,416,491,492,491
493,472,490,493,492
492,532,490,494,492
492,609,491,494,491
494,631,490,493,490
492,623,491,494,494
493,585,492,492,491
493,485,492,494,492
492,413,491,493,493
494,380,492,494,490
493,373,491,493,492
493,380,491,492,491
492,397,491,495,490
492,441,491,494,492
493,500,491,493,492
493,566,490,491,490
493,624,491,494,493
493,630,490,493,493
494,618,491,494,494
494,544,491,495,493
493,446,490,493,492
493,398,491,493,492
491,375,490,492,492
494,375,492,493,490
493,384,492,493,489
493,408,491,492,490
493,465,490,493,490
492,523,490,493,491
492,602,492,494,491
493,632,491,494,493
492,626,491,494,493
492,593,491,495,493
494,498,492,494,493
493,417,491,493,494
494,384,493,494,490
492,372,491,493,492
494,378,490,493,492
494,393,492,494,490
493,434,491,493,491
492,492,491,493,492
492,559,491,494,492
492,622,492,494,492
493,631,492,494,491
494,620,491,493,494
494,557,492,494,492
493,456,491,493,491
493,402,491,493,492
494,372,489,492,493
494,376,490,492,491
493,384,491,494,492
491,408,490,492,491
493,460,491,491,491
492,518,491,491,489
492,592,491,492,490
493,632,491,494,493
493,626,490,494,491
491,604,492,493,493
494,512,492,494,492
493,424,491,494,493
493,390,491,493,491
493,374,491,495,491
492,377,489,492,493
493,389,493,492,490
492,428,491,494,490
492,483,491,493,491
493,547,490,491,491
492,618,492,494,493
493,631,492,492,491
494,624,490,494,493
493,571,491,494,493
493,467,490,493,493
492,406,490,492,491
491,375,491,495,492
494,372,491,494,492
493,384,491,494,492
492,402,490,494,492
492,450,490,493,491
492,509,490,492,491
491,579,490,491,490
492,629,491,492,490
492,628,492,494,490
491,612,491,496,493
494,522,491,493,491
492,430,491,493,491
493,391,491,494,491
492,376,491,491,491
492,377,492,494,491
492,386,492,494,489
491,420,490,493,490
492,475,491,492,491
492,538,490,490,489
493,610,493,492,491
493,630,491,492,491
493,621,490,494,493
493,580,491,493,491
493,478,491,494,491
493,411,490,492,490
494,377,491,492,490
493,373,490,493,492
492,383,492,492,493
493,398,490,491,490
492,443,489,493,492
492,506,491,493,490
492,571,492,492,490
492,625,490,493,493
492,628,491,492,491
491,617,491,495,492
495,535,490,493,492
493,441,491,493,492
493,396,491,494,494
493,373,489,492,491
494,375,492,494,491
491,383,490,492,493
492,414,491,492,490
492,469,490,492,490
492,528,490,492,491
492,606,490,494,493
494,632,491,494,492
493,624,490,494,494
494,587,490,494,493
493,491,491,492,492
492,414,491,492,491
494,383,492,494,491
493,372,490,492,492
493,379,491,490,492
493,392,491,491,490
492,436,490,489,493
492,498,490,493,490
493,562,491,493,489
491,623,491,494,494
492,632,491,495,491
491,620,492,496,491
491,550,492,495,492
493,449,491,493,491
492,398,492,495,493
493,373,490,492,492
494,375,489,493,492
494,384,490,493,493
494,407,491,492,491
492,462,490,493,492
492,519,489,492,491
492,600,491,493,491
493,633,492,493,491
493,625,491,492,493
493,598,491,492,492
495,503,491,495,492
492,418,490,493,492
494,387,489,492,492
494,375,490,494,492
492,377,490,492,492
492,391,491,494,492
494,430,490,493,492
492,489,490,492,490
493,553,491,491,490
493,619,491,492,491
494,630,491,493,490
493,622,490,492,492
493,563,492,492,495
493,461,491,493,493
492,406,490,492,492
492,375,492,496,491
495,375,490,493,490
493,382,491,494,492
491,401,490,492,492
493,455,490,492,491
492,513,491,493,491
492,588,491,492,490
494,633,491,495,492
494,626,491,495,491
492,609,492,495,492
493,518,492,493,491
492,428,491,493,492
492,391,490,492,491
493,376,491,494,490
493,377,489,493,493
493,388,489,492,493
493,424,490,493,492
492,480,490,493,491
493,542,490,493,491
492,616,490,493,492
493,631,490,492,491
494,622,490,491,491
494,574,491,493,492
493,473,491,493,492
494,409,491,493,491
492,376,492,494,493
492,376,491,494,491
492,384,491,494,490
491,401,492,493,492
493,447,491,492,491
492,507,490,493,491
493,576,490,492,491
495,628,490,494,493
494,630,490,494,493
493,613,493,493,494
492,531,491,493,492
492,435,491,493,490
492,394,491,494,490
492,376,492,492,491
493,376,492,491,492
492,387,490,493,493
494,416,490,491,490
492,474,490,493,492
493,535,489,493,493
492,609,490,494,492
492,632,492,493,492
493,623,491,493,490
492,581,490,493,493
492,483,491,494,492
492,413,491,492,492
494,379,491,492,491
491,374,492,493,493
494,381,490,492,491
492,394,490,494,492
491,442,490,493,491
492,501,490,492,491
491,568,489,492,492
494,626,492,493,492
493,631,492,495,492
494,616,490,493,493
495,541,490,493,492
493,446,490,493,492
492,398,491,493,491
492,372,490,494,492
491,376,490,491,493
491,384,491,491,492
491,412,491,492,490
493,467,491,493,489
493,525,491,493,490
494,602,489,495,490
492,632,490,493,493
492,626,490,494,493
493,592,491,495,492
493,497,491,494,492
492,417,490,493,491
494,384,491,493,490
492,371,491,491,493
494,379,490,492,491
494,390,489,492,490
491,436,491,493,492
493,494,491,492,491
493,559,490,494,492
492,623,491,494,492
494,632,493,493,490
493,620,493,494,490
494,556,491,494,492
493,454,491,493,492
492,402,490,493,493
494,371,489,492,492
493,377,490,493,493
492,385,491,492,490
493,409,491,493,492
493,459,490,492,491
492,518,491,492,491
492,594,491,492,491
493,630,490,492,491
492,627,492,493,492
494,599,493,494,491
492,508,490,493,493
492,424,490,494,494
493,390,491,495,493
492,372,490,493,493
493,379,492,492,493
493,389,490,492,491
493,427,491,493,490
493,485,491,492,492
494,549,490,490,493
495,617,492,493,491
494,634,492,494,494
495,622,491,494,494
492,570,493,496,494
493,466,491,493,493
493,407,492,494,493
494,373,490,494,492
493,374,491,495,493
492,381,491,493,492
494,401,489,492,493
494,452,491,492,492
493,513,492,492,491
493,585,490,494,491
494,629,491,494,491
492,629,492,494,491
493,612,493,493,491
493,523,492,494,493
493,432,491,493,492
494,393,493,495,493
495,373,491,494,493
493,378,490,494,493
493,388,490,494,493
492,423,491,494,491
493,476,491,493,492
492,540,490,492,493
493,612,493,492,491
494,631,492,493,494
495,623,491,491,493
495,580,494,495,491
494,476,491,494,492
493,411,491,493,493
493,377,490,494,494
492,374,492,495,492
492,382,492,493,492
494,396,493,493,491
493,446,490,492,492
493,505,491,491,491
493,572,491,493,491
495,626,490,493,493
493,630,492,493,493
493,617,490,493,489
494,533,492,494,492
492,439,491,494,493
493,396,492,495,492
492,375,492,494,491
494,378,491,494,493
494,383,491,492,493
492,417,491,492,492
493,469,491,493,492
494,530,490,493,493
494,607,490,492,491
494,631,492,495,493
492,625,490,493,493
492,587,494,494,492
493,489,492,494,493
492,415,491,492,492
492,383,491,494,492
494,370,490,492,491
494,382,490,492,493
494,393,490,494,492
493,439,490,494,492
493,498,491,493,492
494,564,492,494,492
494,624,490,494,491
494,629,491,492,491
494,616,491,492,492
494,546,491,493,493
494,449,492,491,494
492,400,491,496,493
493,374,492,493,491
492,377,492,495,492
492,385,491,493,491
492,410,492,493,491
493,463,490,493,492
491,521,490,494,492
492,601,490,493,492
494,632,492,495,494
494,627,492,495,494
494,596,493,493,492
494,503,492,495,493
493,418,492,493,492
493,387,493,495,491
492,373,492,492,491
493,378,491,492,492
491,393,491,492,491
494,431,491,493,492
492,490,490,492,492
492,556,490,493,492
492,620,491,494,493
492,632,491,494,491
494,620,490,492,491
491,561,493,493,494
493,459,492,493,493
492,402,491,491,494
495,371,490,492,493
495,375,493,493,491
493,384,491,495,492
493,404,491,493,491
493,458,491,493,491
492,516,492,494,491
492,590,492,494,493
494,633,492,493,491
495,627,492,495,491
492,603,490,493,493
494,515,492,493,493
492,426,490,493,493
492,390,491,492,492
492,376,491,494,493
494,378,490,493,491
493,389,493,493,490
492,426,492,493,491
492,482,490,492,492
493,545,490,493,492
492,614,490,493,493
492,632,492,492,494
492,625,490,494,494
493,574,491,495,493
493,471,491,494,494
494,408,491,493,494
493,375,490,494,494
494,374,491,493,491
495,382,491,493,491
494,400,490,492,492
494,452,491,493,491
493,510,490,491,492
492,579,491,493,494
491,631,492,495,492
493,630,493,495,491
492,614,493,494,495
494,529,492,494,492
492,433,490,494,493
493,392,490,492,492
495,373,490,492,492
493,378,490,493,493
492,387,489,494,491
493,418,490,494,491
492,475,490,493,491
494,538,491,493,490
492,612,492,493,492
492,631,491,490,494
493,626,491,492,493
495,580,491,495,491
493,482,492,495,492
493,413,491,494,493
493,380,491,494,494
492,375,492,492,492
494,381,492,494,490
492,395,490,493,493
493,443,491,493,492
493,503,491,492,492
494,567,490,491,492
492,627,492,495,493
494,632,491,493,491
494,615,491,495,496
492,541,491,494,493
493,443,491,495,491
492,397,492,494,491
492,372,489,493,492
494,375,491,492,493
491,386,491,492,492
494,411,489,492,491
493,467,491,493,492
493,527,490,492,490
493,603,490,493,491
492,631,490,492,492
493,627,492,493,490
493,591,493,494,491
493,495,492,494,492
493,416,490,494,492
495,383,491,495,491
492,374,489,493,493
494,381,490,493,493
493,394,490,494,491
491,437,490,493,490
493,496,491,493,490
493,560,490,492,489
492,623,491,492,492
495,631,491,492,492
495,619,491,492,492
495,553,491,494,494
493,455,491,493,493
493,401,491,493,492
492,375,490,494,492
492,377,492,494,491
492,385,492,494,490
494,407,489,493,491
493,461,492,493,492
492,519,490,492,492
494,596,489,491,491
494,632,490,493,493
493,628,491,492,491
493,600,491,495,493
494,506,491,494,493
493,421,491,494,491
493,388,493,494,491
492,374,492,493,493
492,379,491,492,493
493,387,492,494,492
492,428,490,492,491
494,487,490,492,492
493,551,490,493,492
492,619,491,495,492
494,631,490,494,491
493,622,492,493,495
493,567,492,492,494
493,463,491,494,491
493,405,491,494,491
494,372,492,495,491
492,376,490,494,493
493,382,491,492,492
491,405,491,494,492
492,455,490,492,491
492,512,491,493,492
493,585,489,493,491
493,628,491,494,491
491,626,490,493,493
494,607,490,492,493
494,520,491,493,492
492,430,492,494,492
492,392,492,495,491
494,372,490,494,491
492,379,492,494,491
493,387,492,492,490
492,422,491,492,491
492,479,490,494,492
492,542,490,492,492
491,615,492,493,494
493,633,492,493,495
492,625,492,495,493
492,579,492,495,493
493,473,491,493,492
492,411,490,493,492
494,374,492,491,492
493,371,490,491,491
494,381,490,492,490
494,400,492,495,491
493,446,490,493,491
492,506,491,492,492
491,575,490,492,492
492,628,491,494,490
493,629,492,493,492
