Sensor0,Sensor1,Sensor2,Sensor3,Sensor4

567,490,492,493,495
625,491,494,492,493
629,491,493,4,561
490,493,491,492,624
490,493,492,492,628
490,492,491,492,618
8,490,492,491,493
499,490,492,491,493
561,490,493,491,492
624,490,493,492,492
628,490,492,491,492
618,492,495,492,492
549,492,494,491,493
450,492,493,491,493
400,491,494,491,494
373,491,494,490,492
377,490,493,493,493
385,490,493,493,493
411,490,493,492,493
463,492,493,492,493
523,491,494,491,495
598,490,492,490,492
629,491,492,491,493
624,491,492,491,494
593,493,492,490,492
503,492,493,492,494
420,492,493,492,493
387,491,494,493,493
374,491,494,493,492
381,492,493,492,492
393,492,494,490,494
431,490,492,491,492
490,491,492,491,492
554,491,492,490,493
617,490,492,492,494
630,489,492,492,493
619,492,494,490,492
561,491,493,493,493
459,492,493,492,492
404,491,494,492,492
375,491,495,490,491
376,492,493,494,492
383,491,492,492,493
404,490,493,491,492
456,491,493,491,493
513,490,492,493,494
590,489,492,492,493
627,492,492,491,491
627,492,494,493,495
603,491,495,491,492
515,492,494,493,492
427,491,493,491,493
391,492,492,490,492
375,491,494,493,491
378,489,492,492,492
390,493,494,493,493
426,490,492,492,493
482,490,492,492,493
546,491,493,491,493
612,490,493,491,492
632,490,493,492,493
621,492,492,490,492
571,492,493,492,493
471,491,493,492,493
411,491,494,491,494
376,490,492,491,493
375,491,494,492,492
384,491,494,492,491
404,491,494,491,492
451,491,492,491,492
508,491,493,491,492
580,490,493,492,493
627,491,492,492,494
626,490,494,494,494
612,490,493,494,494
529,491,493,491,492
434,492,493,493,492
396,490,492,491,494
376,492,494,491,492
377,492,493,491,493
387,492,492,490,493
420,491,495,492,493
473,490,493,492,492
537,492,492,492,494
607,490,493,492,492
632,490,494,492,492
624,492,492,491,494
578,493,495,492,493
481,491,493,491,492
413,492,493,491,492
377,492,492,491,493
372,490,492,492,492
383,493,494,493,493
396,490,492,492,493
443,491,493,492,492
501,491,493,491,491
568,491,494,491,492
626,492,493,491,493
629,491,494,492,493
614,492,492,493,492
542,492,493,492,493
443,491,493,492,493
397,490,493,494,494
374,490,493,491,493
375,492,495,492,492
384,490,493,492,491
414,492,493,491,492
467,491,493,492,493
526,491,492,491,492
604,491,494,492,494
629,490,493,491,493
625,491,494,493,493
588,491,495,493,493
495,492,494,493,493
419,492,492,491,493
385,493,495,491,494
373,490,493,491,492
380,491,492,490,493
389,491,492,491,494
435,490,492,490,493
494,490,493,490,492
558,490,493,493,493
622,491,492,491,491
631,492,494,491,491
619,492,495,491,491
556,492,493,491,493
453,491,493,491,492
401,490,494,492,492
375,491,492,492,494
375,490,493,492,493
384,490,493,494,493
408,491,492,490,492
460,490,493,492,493
517,490,492,490,492
595,492,493,490,492
629,491,492,492,493
623,490,492,492,492
601,492,492,493,493
507,491,494,492,493
423,491,493,492,492
389,491,494,493,492
374,491,495,492,492
381,492,493,491,494
389,490,492,490,492
428,491,492,492,493
487,491,492,490,492
548,490,492,491,494
615,490,493,492,493
631,492,492,490,493
622,491,494,494,494
565,491,492,492,492
466,491,492,491,491
407,491,493,491,492
375,493,493,493,492
377,491,492,491,493
382,491,494,491,491
403,489,492,492,493
452,490,492,491,492
510,489,493,492,492
582,490,491,491,491
629,492,493,493,493
627,490,492,491,493
609,492,492,490,493
520,492,494,492,493
432,490,492,492,493
393,492,494,490,491
373,490,494,492,493
377,491,492,492,491
390,492,494,491,491
423,491,493,491,494
478,490,492,492,493
541,490,492,490,492
609,490,494,492,492
630,490,492,491,493
621,490,494,493,495
575,490,493,494,493
477,492,494,492,493
411,491,494,492,494
376,490,494,491,492
376,493,493,490,493
381,492,492,491,493
398,491,494,492,492
448,491,492,491,492
505,491,493,491,493
574,489,493,492,493
627,491,494,491,491
628,491,494,492,491
615,491,495,492,495
533,491,494,491,492
439,490,493,492,492
396,491,492,491,493
372,491,493,492,493
375,490,493,492,493
387,492,494,490,493
415,490,493,491,493
470,491,492,491,492
532,491,493,490,491
606,492,494,490,492
629,491,494,492,492
625,491,493,491,494
585,492,495,492,494
488,491,493,491,493
414,491,494,492,493
380,490,493,493,493
372,492,492,492,491
382,492,493,492,493
391,492,493,490,492
440,491,493,490,492
497,491,493,491,492
560,491,491,491,493
625,491,494,490,493
628,490,493,490,493
616,492,493,494,493
548,491,494,492,491
447,491,493,493,492
401,491,492,492,494
373,492,492,490,492
376,491,493,493,493
384,491,491,490,494
407,491,492,491,493
462,490,492,492,492
523,491,492,492,493
598,490,492,491,493
630,492,494,492,492
626,492,494,491,492
595,494,495,491,492
502,491,493,492,493
421,492,492,491,492
387,491,495,492,495
373,490,493,492,493
380,491,493,492,492
391,489,494,493,492
432,491,491,490,493
489,491,493,491,492
553,489,492,492,492
619,491,492,490,493
629,491,492,491,494
617,490,492,492,492
564,492,494,492,493
458,491,493,491,492
404,491,493,493,492
375,490,494,491,492
375,492,494,491,492
383,490,493,493,494
406,492,492,490,492
455,490,493,491,493
514,490,492,491,494
588,490,492,491,493
628,490,493,491,493
626,491,494,492,492
606,491,492,491,494
516,491,494,492,493
430,491,494,490,493
391,493,493,491,492
375,492,493,492,492
381,491,494,491,493
388,490,494,491,491
427,490,493,491,493
482,491,493,492,492
545,491,494,492,492
614,490,492,492,493
632,492,493,490,493
622,491,494,491,493
572,492,493,491,493
471,492,493,491,493
408,491,493,491,492
378,492,493,492,493
376,492,493,491,493
384,491,493,492,492
403,492,494,491,492
450,491,494,491,492
506,490,492,492,493
578,491,492,492,492
628,491,492,492,494
626,489,492,492,493
612,490,493,493,493
527,491,494,493,493
435,491,492,491,493
395,491,495,491,494
370,490,493,491,493
377,491,492,491,493
386,492,492,490,493
416,491,492,492,492
476,490,493,491,493
535,492,494,491,492
609,490,493,493,493
633,491,494,491,491
623,492,494,493,492
579,490,493,493,493
484,492,494,492,493
412,491,493,492,493
379,491,492,491,494
373,490,493,492,494
381,490,494,491,492
398,489,493,492,493
442,491,493,491,493
502,490,493,491,492
569,491,493,490,492
626,492,493,490,492
627,491,492,493,492
618,490,492,491,494
539,491,494,492,492
444,490,492,492,493
398,490,493,493,493
374,490,494,493,491
375,490,492,492,491
387,491,494,491,494
410,489,493,491,492
468,491,493,491,492
527,491,492,490,493
600,491,494,491,492
633,490,493,492,494
624,492,493,491,495
589,491,494,493,493
498,492,494,492,493
418,492,495,492,494
384,490,492,491,492
375,493,494,493,492
382,491,492,492,494
391,490,491,491,494
437,490,492,490,492
494,490,492,493,493
558,491,492,490,493
622,491,494,491,493
629,490,494,491,492
620,492,494,490,492
555,492,493,491,492
455,491,494,493,493
404,490,492,491,494
375,492,495,491,494
375,489,493,492,493
385,491,493,493,492
409,491,494,492,493
458,490,493,491,493
519,491,492,492,493
593,492,493,490,493
629,491,492,492,494
624,491,492,492,494
597,492,495,492,492
509,491,492,492,492
425,492,493,493,492
390,491,494,493,492
376,491,494,490,492
381,492,493,490,492
389,493,493,494,493
430,491,493,491,493
486,491,493,492,493
548,489,492,492,495
616,489,493,492,493
631,491,494,493,494
619,491,492,493,492
570,492,493,492,493
464,491,494,492,492
408,491,493,491,493
375,493,493,491,493
374,492,495,492,492
383,490,492,491,491
405,492,493,492,493
453,490,492,492,493
512,490,493,491,492
585,491,494,491,494
627,490,493,490,493
627,491,493,492,492
607,492,492,491,494
521,491,493,491,493
432,491,492,491,493
394,490,493,492,492
376,492,492,492,492
381,491,492,491,493
387,491,494,491,492
423,492,493,491,492
478,491,493,490,492
538,490,493,493,493
611,491,492,492,493
632,492,494,493,495
622,491,494,494,495
577,491,494,493,494
478,491,494,492,493
410,491,494,491,492
381,490,492,491,493
374,492,493,491,493
382,491,492,491,493
399,491,491,490,493
446,491,493,492,493
504,490,492,490,492
574,492,493,493,494
626,490,493,493,493
629,491,494,491,492
615,491,495,492,492
535,491,493,492,494
440,491,493,491,492
396,491,494,491,492
372,491,492,491,494
376,490,492,491,494
386,490,493,490,491
416,492,493,492,493
470,491,493,491,492
531,490,494,491,492
606,491,494,491,492
631,492,493,490,492
624,490,494,493,493
582,492,492,492,492
490,491,493,491,492
413,490,493,492,494
382,490,492,492,493
375,491,492,491,493
380,491,494,492,492
393,490,492,492,491
440,491,494,491,492
497,491,493,491,493
562,491,492,490,493
622,491,492,492,492
629,491,493,493,494
619,493,494,491,492
547,491,494,493,493
449,491,493,492,493
402,492,494,492,491
372,490,493,493,493
377,492,493,493,493
386,491,492,490,493
407,490,492,492,493
463,491,493,491,493
521,490,493,490,492
599,489,492,493,493
631,491,492,491,492
626,492,494,491,491
596,492,495,491,493
503,492,493,492,493
421,491,493,492,493
385,491,494,493,492
375,490,492,492,493
379,489,493,493,494
391,489,492,493,493
433,491,493,492,493
490,490,493,492,493
555,492,494,492,495
618,491,493,491,493
629,491,492,491,494
619,491,492,492,494
562,491,495,493,493
461,491,493,492,493
406,492,493,491,493
374,490,494,493,492
376,491,494,493,492
386,492,493,490,494
404,489,493,491,492
457,491,492,491,492
516,491,492,491,493
587,490,492,492,494
629,490,492,493,494
627,492,493,490,493
604,490,494,494,493
515,491,493,492,492
428,491,494,492,491
392,492,494,491,492
376,492,492,491,493
378,492,494,492,491
389,490,492,491,494
428,491,493,491,493
481,491,493,492,493
544,490,493,493,493
614,490,494,492,493
629,490,492,492,492
621,492,493,493,494
572,494,494,492,493
470,492,493,492,492
409,491,493,492,494
376,492,495,492,492
374,490,493,493,493
383,492,492,493,492
402,490,494,492,492
449,490,493,492,493
508,490,493,492,493
576,490,493,491,492
626,491,494,493,492
626,491,493,493,494
610,491,493,493,495
528,491,493,493,493
437,491,493,493,493
395,492,493,494,493
376,492,493,492,494
378,493,495,491,492
386,492,493,491,492
419,491,492,491,492
474,491,493,492,492
533,491,492,492,491
610,492,493,492,493
631,490,494,493,492
623,491,495,494,493
582,491,495,491,493
482,492,494,492,492
414,490,493,493,493
379,493,493,490,492
372,491,492,492,494
380,489,492,492,495
398,493,494,491,493
441,490,492,492,493
502,491,493,492,492
568,491,493,492,491
625,491,494,491,492
628,492,493,491,493
616,491,494,494,493
539,492,493,492,493
446,491,494,491,493
398,491,493,493,494
372,490,493,493,493
378,491,494,491,493
384,491,494,492,491
414,489,492,492,493
468,491,493,491,492
525,491,493,490,492
600,491,492,491,494
633,491,494,491,494
622,490,493,491,492
590,493,494,494,493
496,491,493,492,492
417,490,493,493,492
386,491,491,491,494
373,492,493,490,492
380,490,493,493,493
391,491,491,491,493
434,490,492,491,493
494,490,492,492,494
557,489,492,490,492
621,491,494,493,492
631,490,492,492,494
620,493,496,492,492
556,493,494,492,492
455,491,493,492,492
404,491,494,493,493
372,491,493,492,492
377,492,493,491,493
385,491,493,493,493
408,490,493,492,493
460,490,492,491,492
517,491,494,491,491
593,490,492,493,493
630,492,492,491,493
624,491,492,492,494
598,491,492,492,492
512,492,494,492,493
423,491,493,492,493
390,491,494,493,492
376,491,494,491,492
380,492,494,491,492
391,492,493,490,492
429,490,493,492,492
485,491,492,493,493
550,491,492,491,494
614,490,493,493,493
630,490,494,493,493
621,491,492,491,494
566,492,494,492,492
465,491,493,492,492
408,492,493,491,492
374,493,493,492,493
373,490,492,492,492
385,492,494,492,494
402,489,493,491,493
454,490,492,491,493
511,491,493,492,491
584,491,494,492,492
628,490,493,492,494
626,493,493,491,493
610,490,494,491,494
521,492,494,492,493
432,491,493,492,493
393,490,493,493,495
375,490,493,491,493
378,491,494,492,491
387,489,491,491,491
424,492,493,491,492
478,491,493,491,493
539,491,492,490,493
612,490,494,491,493
629,490,494,491,492
623,490,493,493,494
577,490,494,493,493
477,491,494,492,493
413,491,492,491,494
379,492,495,491,494
373,490,494,491,493
382,491,492,490,493
396,491,492,491,493
445,490,493,492,493
506,491,493,492,493
571,492,493,491,493
629,491,494,492,492
629,492,495,492,492
615,493,496,492,492
536,493,495,492,494
441,492,493,491,492
395,491,495,493,492
376,491,493,492,494
376,491,493,492,493
386,490,493,493,493
415,491,492,491,493
470,491,493,492,493
529,490,492,490,492
606,492,494,490,492
630,491,493,491,493
622,490,492,492,492
588,492,492,492,493
489,491,494,492,492
415,491,493,493,493
384,491,494,493,492
374,491,494,492,491
380,490,492,492,491
395,493,494,493,493
438,491,493,491,493
498,491,493,491,493
560,490,492,491,494
620,490,493,493,493
630,491,492,490,493
618,491,495,494,494
547,491,494,493,493
451,491,494,492,491
401,492,494,491,492
376,492,493,492,492
377,491,492,491,493
382,491,494,492,491
409,490,492,492,493
462,490,493,491,493
520,490,494,493,492
596,491,492,491,492
631,492,494,493,493
625,490,493,491,493
595,493,493,490,493
503,493,494,492,493
420,491,494,492,492
389,491,493,492,495
374,492,493,491,493
381,491,494,492,492
392,491,495,492,491
433,491,494,492,492
488,490,494,492,493
552,490,492,490,492
617,490,494,492,492
629,490,492,492,494
619,490,492,492,494
561,491,493,492,494
461,491,493,491,492
406,491,494,494,494
372,491,495,490,492
376,492,493,489,492
383,492,494,491,492
404,492,494,492,493
457,491,493,491,492
515,491,493,491,495
588,490,492,492,493
630,491,494,492,492
627,491,494,493,495
604,491,492,491,492
518,492,494,492,493
428,492,493,492,493
391,492,492,490,493
374,491,491,492,494
379,490,493,493,494
390,493,494,491,493
426,490,494,491,492
482,490,493,492,492
546,491,494,490,491
615,492,494,491,493
631,491,494,493,493
623,491,492,490,493
574,491,495,492,493
471,492,493,491,494
409,491,493,492,493
376,490,493,494,493
373,490,492,491,492
385,492,493,491,495
399,492,493,491,493
450,491,493,491,493
507,492,492,491,493
574,491,494,492,492
627,490,493,492,492
627,493,493,493,493
614,491,494,494,493
531,492,494,493,493
436,491,495,492,492
396,492,493,493,495
374,493,494,491,493
378,491,494,493,494
386,490,492,491,494
416,490,492,491,493
472,490,493,492,492
535,491,493,491,493
608,490,492,492,493
630,491,494,492,492
624,492,494,491,491
582,493,494,491,493
484,491,494,492,493
415,492,492,490,491
381,491,495,492,494
373,490,493,492,494
381,490,493,493,492
396,490,494,491,493
441,490,493,491,493
502,491,493,492,493
567,492,493,491,492
625,491,493,491,493
627,491,492,492,493
615,491,492,492,492
545,492,494,492,493
446,492,494,491,492
398,491,494,493,492
375,491,495,492,491
377,492,495,491,492
384,490,493,493,494
412,492,492,491,492
465,490,493,492,493
524,490,492,492,494
600,490,492,491,493
630,490,494,491,494
624,491,494,492,493
593,492,493,492,494
498,492,494,493,493
420,492,494,491,493
385,493,493,490,492
374,491,494,493,494
380,490,493,491,492
393,492,492,493,493
436,490,493,492,493
494,490,493,491,492
558,491,494,492,491
621,489,493,492,494
630,491,493,491,492
619,490,494,491,493
555,491,493,492,493
455,491,493,491,493
403,490,493,491,492
376,492,492,492,493
377,491,492,491,493
385,491,494,492,492
409,492,494,491,492
459,491,493,491,494
515,491,493,493,494
592,491,492,493,492
631,492,493,492,494
625,490,493,493,495
601,491,494,494,493
511,491,494,492,493
424,491,494,492,493
389,491,493,492,492
375,492,494,491,493
380,492,493,491,493
390,492,492,490,493
427,490,493,492,492
486,490,493,491,493
549,491,494,490,492
615,489,495,493,493
632,491,495,491,492
622,492,496,492,492
566,490,494,493,494
469,491,493,492,493
406,491,492,492,493
374,491,492,491,494
375,490,493,492,494
383,490,493,491,492
404,490,493,492,493
453,492,493,491,492
511,490,493,491,492
584,491,493,490,492
628,492,491,490,492
627,490,494,491,494
609,492,495,493,492
525,491,494,492,493
432,491,493,492,494
395,491,493,492,494
376,491,495,492,492
376,491,492,492,492
390,492,494,492,494
421,490,493,491,492
478,490,493,491,493
539,491,492,490,493
609,491,494,491,492
632,490,493,492,494
623,492,493,490,493
578,490,495,493,493
480,490,493,492,492
414,491,494,491,494
377,490,492,491,493
375,492,494,492,492
383,491,493,491,494
397,490,491,491,494
446,490,491,491,493
505,491,493,491,492
573,490,492,493,493
626,491,491,491,492
629,492,493,490,492
616,492,492,491,492
537,492,494,491,492
442,491,495,493,492
398,491,492,491,494
376,492,493,491,493
376,490,492,493,493
387,490,492,494,493
415,491,494,492,493
467,491,494,491,493
530,491,493,491,494
603,492,493,491,493
629,491,492,491,494
623,491,493,492,494
584,492,495,491,492
491,491,493,492,492
417,492,493,493,492
383,491,495,494,493
374,491,494,491,492
382,491,493,492,493
391,489,493,490,493
437,490,493,492,492
497,490,493,491,493
559,489,492,492,495
622,490,493,492,493
631,492,494,492,494
615,492,492,494,493
553,494,493,492,494
450,492,494,491,493
401,490,493,492,492
374,491,492,490,493
374,491,494,492,491
384,490,492,492,491
411,492,493,492,493
461,489,493,492,493
521,489,493,492,492
598,491,493,491,493
628,490,493,491,493
625,491,494,493,494
594,493,493,492,493
504,491,494,492,494
423,491,493,492,493
389,493,494,491,495
374,490,494,491,494
380,492,493,491,491
392,491,494,492,492
433,491,493,491,493
489,490,494,491,492
551,489,494,493,493
617,491,492,491,492
631,492,493,492,494
619,489,492,493,495
563,490,493,493,494
462,491,491,491,492
404,491,493,492,492
377,490,491,491,494
375,492,494,491,492
383,491,494,491,492
405,490,493,491,493
456,490,494,491,492
513,490,493,491,492
589,492,493,492,492
629,490,495,493,492
628,491,493,492,492
608,492,491,492,494
516,492,494,492,493
430,490,494,492,493
390,492,493,491,493
372,490,493,492,494
379,489,493,493,494
389,490,491,490,492
423,491,491,492,493
481,491,489,491,493
544,491,494,491,491
614,491,496,491,493
631,491,497,492,493
623,492,501,494,494
572,491,495,493,493
474,493,496,493,493
409,490,495,493,493
377,490,492,494,493
376,491,491,492,494
381,491,492,491,492
400,489,492,492,492
449,491,492,491,492
506,491,492,491,494
575,490,491,491,492
628,492,490,492,493
628,490,491,491,495
613,490,493,492,492
531,491,491,493,493
437,491,491,492,493
397,492,493,490,492
374,490,495,493,493
376,490,494,491,491
389,491,493,490,494
416,490,493,491,493
472,491,492,493,493
534,491,492,491,493
606,490,494,492,492
632,490,493,493,492
623,492,494,492,492
582,492,493,492,493
486,492,493,492,493
415,491,494,492,494
379,489,494,491,493
375,491,494,493,492
382,490,493,492,491
396,490,493,491,492
442,490,492,489,492
499,490,493,490,494
564,489,492,489,492
624,491,493,491,493
627,490,494,492,494
615,490,496,492,495
543,491,498,491,492
446,490,491,491,494
400,492,490,489,493
374,489,492,490,492
377,491,492,492,492
387,491,495,493,494
409,490,491,495,492
466,490,492,493,493
525,490,492,490,492
598,490,492,490,494
629,489,492,493,494
624,491,493,491,491
589,490,493,496,493
499,492,494,496,493
419,491,495,495,492
386,491,496,493,492
375,491,494,490,493
379,490,493,490,492
390,489,493,493,492
434,490,492,490,492
491,491,492,491,493
554,488,491,491,495
619,489,491,491,493
629,491,491,492,492
620,491,493,491,495
556,492,494,491,492
456,491,494,492,492
404,491,494,492,492
376,490,493,493,493
374,491,493,491,492
386,491,494,490,494
405,489,492,492,493
458,489,493,494,494
516,490,492,494,492
592,492,493,490,492
631,490,490,489,494
627,492,496,489,491
603,492,495,490,492
511,491,493,491,493
425,491,490,491,493
388,491,487,494,492
375,491,488,494,494
379,490,494,493,493
389,489,498,494,493
428,490,500,492,493
484,491,495,490,493
547,491,491,490,494
614,492,493,490,492
630,494,496,494,493
619,493,496,495,494
570,491,497,494,492
468,489,490,491,493
407,490,491,490,492
376,490,492,491,493
375,492,494,493,492
384,490,493,493,492
401,489,492,491,492
452,490,493,491,493
510,490,492,490,492
582,492,491,490,492
626,490,491,492,494
626,489,493,491,492
613,490,491,492,495
525,492,492,491,494
433,491,493,491,493
396,491,495,493,492
375,491,492,492,492
380,493,491,492,493
388,490,494,490,491
420,489,494,491,493
477,490,494,490,492
537,490,493,491,494
608,492,492,493,494
633,493,493,491,493
623,491,493,490,494
578,492,493,491,493
480,488,492,486,491
413,491,494,492,492
381,494,495,497,494
375,491,493,493,493
382,490,494,491,494
397,489,492,490,494
444,490,493,489,493
503,490,491,490,493
571,492,491,490,493
627,492,494,491,494
628,492,495,492,492
617,493,496,492,493
537,491,496,493,493
443,489,498,491,494
400,490,499,491,494
372,490,497,491,493
378,491,495,495,493
387,491,493,499,492
415,491,489,492,492
468,490,491,491,493
528,491,493,490,492
603,488,494,492,494
631,490,494,491,494
623,490,495,491,495
585,489,495,493,494
495,492,491,491,493
416,491,492,494,493
382,492,494,494,491
375,492,494,490,492
381,491,494,489,493
393,489,493,492,494
437,490,493,488,493
496,489,493,490,495
561,490,485,489,495
622,491,489,490,493
630,492,494,493,492
620,492,496,492,494
549,490,496,492,492
450,491,493,493,492
402,492,492,491,493
373,494,491,493,494
375,492,492,495,492
386,495,495,494,494
408,492,501,493,492
463,488,498,487,492
521,490,492,489,492
598,491,494,491,493
630,490,495,491,494
624,492,494,487,494
597,490,498,489,496
505,492,493,488,495
422,494,488,489,495
388,493,488,491,493
375,494,490,494,491
382,492,492,490,493
392,492,495,488,492
432,491,491,491,492
488,490,494,493,493
550,490,496,495,493
620,490,499,493,494
630,491,495,488,495
620,491,489,490,495
566,491,492,490,493
462,487,494,491,493
406,486,491,493,493
376,492,490,489,492
375,491,493,491,493
382,491,491,491,493
403,491,492,492,493
453,491,492,495,493
515,490,492,498,493
587,490,494,493,495
631,491,502,487,494
629,492,506,489,494
608,493,503,490,493
520,493,498,495,492
430,496,484,496,492
393,497,487,494,495
374,490,495,488,494
379,489,495,491,493
389,489,493,491,492
424,489,491,489,492
480,488,493,490,493
541,486,490,491,493
614,489,491,490,493
630,489,488,488,495
620,489,483,491,492
578,493,484,493,495
475,492,486,492,493
411,487,496,491,493
379,489,498,490,492
376,492,502,488,492
382,489,498,489,493
402,491,495,491,492
448,489,493,490,493
506,490,490,491,493
575,490,488,492,494
626,489,497,491,494
628,490,505,492,495
613,491,506,490,495
533,491,500,491,495
439,491,488,489,493
397,494,490,491,491
375,495,491,494,491
380,494,491,491,492
385,491,489,491,491
416,487,492,490,493
472,491,495,491,494
532,491,499,494,494
607,489,496,495,493
633,491,494,490,494
623,489,487,493,493
583,494,480,493,493
486,493,479,492,492
414,491,482,491,491
383,486,492,491,493
374,492,501,490,493
384,491,504,496,495
398,492,506,495,496
443,495,504,497,497
502,494,495,496,494
566,493,493,494,492
624,487,507,483,493
628,492,486,488,493
617,495,484,493,495
545,490,488,494,495
448,487,491,489,494
402,490,494,492,496
373,490,496,491,494
379,489,501,490,493
387,489,494,488,492
410,489,495,490,491
466,489,490,490,492
524,490,485,496,494
600,489,485,495,493
633,490,491,489,494
626,491,497,489,496
591,490,493,492,494
502,490,490,493,493
418,490,493,492,493
387,490,494,491,493
375,490,493,491,494
380,491,491,489,493
393,487,489,494,491
435,489,499,492,493
494,490,498,492,494
558,490,503,484,496
623,492,504,488,496
632,491,502,492,495
622,491,495,490,494
561,491,493,494,493
457,490,495,495,493
405,491,492,494,492
374,489,492,493,492
374,491,489,495,493
386,492,492,495,494
405,492,491,493,492
459,491,490,489,494
518,495,493,486,496
590,494,495,484,496
630,491,500,487,493
627,487,494,488,493
602,490,488,492,492
515,497,487,495,492
427,496,491,490,493
389,495,492,490,493
378,497,497,491,495
380,498,503,490,497
390,489,496,501,496
429,488,499,498,492
484,488,499,498,490
547,489,486,492,492
615,490,483,490,494
629,491,481,490,494
623,491,493,490,494
574,492,510,492,496
471,490,512,491,496
410,490,495,492,492
377,491,483,495,493
373,489,481,492,493
383,488,489,491,492
402,489,491,489,493
450,491,485,487,496
511,491,495,488,496
583,493,501,489,496
629,491,508,492,498
628,494,501,491,495
614,492,499,491,495
525,490,497,494,492
435,492,505,503,493
396,490,501,500,492
375,491,493,497,491
379,492,479,488,493
386,488,475,492,498
421,493,474,493,496
476,492,486,498,495
537,490,501,498,494
611,490,522,497,494
633,488,503,489,493
622,490,487,490,495
583,489,501,488,496
482,487,496,488,495
415,487,497,486,493
382,491,492,487,493
375,491,493,491,495
383,489,498,489,494
401,490,498,493,495
444,490,494,492,493
504,492,487,494,493
571,491,495,494,494
625,491,499,494,494
630,489,492,497,494
615,493,488,497,494
538,491,486,494,493
443,490,492,489,493
398,489,502,489,493
377,491,494,490,493
378,492,491,491,492
387,492,496,487,493
415,491,491,487,494
469,488,488,491,493
526,485,481,491,493
603,493,480,489,493
632,492,487,494,494
623,490,483,492,495
586,491,497,498,495
496,492,525,499,496
419,489,531,494,496
385,492,511,491,494
376,496,469,488,493
381,497,481,492,494
395,495,492,490,492
439,486,490,491,493
496,486,488,487,493
561,484,492,483,494
622,485,497,485,495
632,490,497,493,493
621,491,493,498,491
550,491,485,492,493
454,492,493,490,494
402,490,494,489,493
373,490,493,491,494
376,489,490,493,494
385,490,498,492,493
410,489,502,497,494
463,490,502,496,492
521,488,504,494,492
598,494,495,493,495
632,496,497,494,495
627,492,495,492,497
598,491,500,489,496
509,493,495,490,494
423,494,495,493,493
390,495,490,491,492
376,495,499,488,493
381,490,493,492,493
390,491,485,493,492
431,492,482,495,494
487,487,480,490,498
552,489,497,489,498
619,490,511,493,493
633,489,508,497,492
622,491,498,496,492
568,492,496,499,492
465,493,492,495,492
409,491,483,488,493
373,487,488,486,494
375,490,496,489,497
387,490,506,492,500
405,489,501,493,496
456,489,492,492,487
513,491,492,490,487
586,489,491,491,489
628,490,483,487,488
626,491,486,488,491
608,491,484,488,493
520,492,485,491,496
431,490,498,489,498
394,490,514,489,497
376,491,503,492,495
380,491,486,495,494
390,492,477,494,492
425,490,485,493,493
479,487,493,490,492
542,491,493,490,494
612,492,488,490,493
630,490,502,496,493
621,490,500,493,495
576,492,492,490,495
475,490,500,494,496
413,491,504,497,492
379,489,492,494,491
375,491,497,490,492
384,492,502,494,496
401,491,504,494,493
447,494,486,489,492
507,498,479,489,495
573,494,488,492,497
628,487,497,493,496
628,483,498,491,494
616,486,502,493,496
533,488,498,491,494
439,489,489,486,494
396,492,485,492,492
374,493,476,490,493
376,492,480,489,490
386,490,493,492,491
418,491,501,493,494
471,490,503,497,494
533,490,492,490,494
608,490,491,491,495
632,489,512,495,494
623,489,497,497,494
582,490,491,489,494
487,490,494,489,496
416,490,494,490,498
385,493,507,491,494
376,490,508,492,495
382,487,495,490,492
397,491,491,490,491
440,492,483,488,492
499,490,480,487,492
564,489,483,484,494
626,492,487,489,495
630,498,490,493,494
618,491,485,498,494
546,494,490,499,495
450,488,501,495,495
400,487,503,494,494
376,487,497,495,493
376,491,500,494,494
384,491,507,491,492
410,492,490,488,494
466,494,496,482,495
523,492,499,482,495
601,494,489,486,494
633,493,483,489,492
626,491,496,500,493
597,494,494,498,493
501,490,486,494,491
420,489,491,492,492
385,490,481,488,493
372,489,482,493,494
381,489,490,493,493
391,491,500,492,494
435,489,495,489,495
493,489,496,489,494
556,491,498,495,493
620,491,496,490,494
630,490,496,490,493
620,491,495,490,494
559,491,481,493,494
459,491,494,499,494
405,491,496,497,492
376,491,505,496,492
377,491,488,487,494
383,488,493,488,494
407,488,482,490,494
457,491,486,490,494
515,489,489,489,495
589,487,502,489,497
631,488,502,491,496
628,489,501,495,493
604,494,507,494,490
516,492,512,495,494
428,492,496,493,491
390,490,482,494,491
372,491,484,490,490
379,492,487,490,492
388,490,486,490,493
425,489,492,491,497
483,490,494,493,499
548,490,507,490,499
615,490,514,493,495
634,489,501,495,494
621,491,491,490,489
569,490,482,494,490
471,489,502,493,492
410,491,491,489,495
375,490,472,488,494
374,490,485,490,494
385,491,497,497,494
404,491,490,490,492
451,489,483,484,491
508,492,482,491,490
580,491,498,496,493
627,490,499,492,493
626,489,495,492,493
611,490,500,490,496
528,491,493,495,498
436,490,499,486,497
397,491,505,490,492
376,492,486,488,491
376,490,494,492,492
386,489,479,489,493
422,491,485,484,494
473,492,497,486,493
537,490,488,486,492
609,491,506,492,493
632,490,502,494,492
624,491,494,498,495
581,492,492,493,493
481,487,489,494,492
414,491,501,495,493
377,493,493,491,495
374,495,483,492,495
383,495,485,496,495
399,497,491,488,495
447,496,512,493,496
505,498,494,487,493
567,484,474,494,492
627,484,502,495,492
628,487,510,493,489
617,489,490,491,494
540,490,495,490,494
444,493,495,490,494
399,490,491,490,492
375,489,485,490,492
376,491,486,490,492
385,489,493,491,493
412,491,491,493,493
467,490,492,494,495
526,488,492,491,494
605,490,486,485,495
631,489,504,489,497
628,490,509,493,494
592,492,491,495,494
496,492,486,496,495
418,490,490,492,489
383,492,480,489,489
374,491,503,490,493
380,490,491,491,493
391,488,494,493,494
436,488,496,490,495
495,489,495,490,492
558,489,499,492,490
624,490,496,491,489
629,491,496,493,489
616,491,488,494,489
552,490,492,495,491
454,490,494,489,494
400,491,474,488,493
374,488,496,490,494
377,488,508,491,494
385,490,494,488,492
407,490,492,492,491
461,491,497,493,490
518,490,485,492,493
594,491,479,490,495
629,491,487,494,496
626,490,494,493,496
602,491,500,496,495
509,492,503,495,496
428,491,505,491,496
392,490,499,489,494
376,490,490,492,493
381,490,481,489,490
388,491,480,487,490
431,491,496,488,492
487,491,493,489,492
550,487,490,489,493
616,485,490,490,493
630,494,497,487,493
623,497,503,495,497
566,488,482,487,495
466,486,489,493,492
408,491,508,492,493
374,493,505,491,494
379,491,492,489,496
383,489,481,492,493
406,488,488,495,492
455,489,489,492,493
512,490,494,494,493
584,486,490,492,489
628,488,491,492,490
627,490,489,492,493
607,490,493,491,495
521,489,502,488,494
433,490,505,493,493
396,491,499,496,493
373,489,486,489,492
380,489,491,491,493
390,492,498,494,493
424,493,498,496,494
478,492,478,491,493
541,487,490,488,494
613,490,493,491,494
632,491,492,485,494
622,493,482,486,491
577,494,488,489,493
475,495,494,493,492
412,492,500,496,494
377,489,505,493,494
373,489,498,491,493
380,488,489,488,496
397,491,500,491,492
448,490,493,493,490
504,491,486,493,490
574,490,485,492,492
627,491,493,492,494
627,491,490,494,493
615,488,498,488,493
533,490,491,489,494
438,490,491,488,494
396,489,496,489,494
372,488,491,493,491
377,489,495,492,492
385,490,491,492,491
417,494,493,495,492
469,495,500,496,493
532,494,500,491,495
604,490,492,490,497
630,489,473,491,493
623,490,465,496,489
584,492,493,496,491
490,489,508,488,490
416,490,507,490,488
382,490,503,489,490
371,489,492,489,491
379,489,489,489,492
391,489,492,488,495
438,489,496,488,495
498,490,494,489,494
563,491,496,490,495
623,490,496,496,492
627,489,497,493,490
619,491,500,494,490
548,491,481,488,491
448,489,483,489,492
398,490,487,494,493
372,492,481,494,493
377,494,514,502,496
387,493,523,496,496
413,492,519,486,494
463,488,497,485,494
521,487,485,485,490
600,489,488,498,490
629,492,481,492,492
624,491,486,496,494
593,490,486,494,494
503,491,484,494,495
422,493,492,492,495
387,498,496,495,495
377,499,508,493,492
383,497,487,486,491
390,491,478,487,491
431,485,494,489,491
489,487,489,488,491
551,488,488,496,493
617,489,488,495,494
630,489,492,494,493
621,489,492,489,494
560,490,497,492,493
461,490,496,489,493
405,490,493,489,492
376,492,494,486,492
374,491,492,491,493
384,490,494,494,494
404,489,484,493,491
456,490,491,493,493
515,489,489,492,495
591,488,481,489,493
630,490,493,493,494
625,493,492,490,491
605,492,500,493,492
515,495,501,494,492
430,496,498,493,492
391,490,493,490,491
375,488,494,491,494
381,488,494,488,494
388,487,499,489,494
427,488,499,490,494
483,489,499,491,491
544,491,496,489,490
613,488,489,494,492
630,490,490,492,491
621,492,489,493,494
572,490,485,493,493
471,492,497,495,492
410,490,497,494,493
374,490,493,497,491
373,490,490,492,493
382,491,491,489,493
401,490,491,490,493
449,490,492,490,492
508,490,490,491,493
577,490,489,490,491
626,491,492,494,491
628,490,494,493,492
614,491,490,489,491
528,491,494,492,493
435,491,503,492,492
395,489,500,491,492
370,490,488,490,494
376,489,493,490,494
388,488,497,489,494
418,488,492,488,493
473,489,483,490,492
534,490,489,494,491
609,492,489,492,493
630,491,491,491,494
623,491,499,491,492
583,491,496,495,494
484,491,491,495,491
413,490,490,497,492
380,489,495,498,493
376,492,491,486,492
382,490,485,488,493
397,492,496,487,492
443,490,496,489,491
499,491,494,491,492
565,488,492,491,493
623,488,496,493,491
627,490,503,496,495
618,491,499,494,495
542,491,495,495,493
444,491,476,490,491
399,492,494,492,492
376,492,498,491,493
377,489,499,491,494
384,489,491,489,491
413,489,493,491,493
466,489,495,488,493
526,490,496,488,491
602,490,489,489,493
631,490,487,490,492
624,489,489,492,491
588,491,492,492,492
495,491,492,493,492
418,491,492,491,491
384,491,491,492,494
373,492,490,490,492
380,491,494,492,491
392,490,493,492,491
436,491,492,491,492
492,490,492,491,492
555,490,491,492,492
622,491,492,491,493
627,489,493,493,493
618,490,492,493,494
556,491,493,492,493
454,492,493,492,493
403,491,493,492,494
372,490,493,491,492
375,491,492,491,493
384,490,491,491,493
406,491,486,491,491
459,489,489,492,493
518,491,494,489,491
593,489,493,493,492
631,490,495,492,492
627,492,494,490,492
598,490,493,492,492
510,491,492,492,492
426,491,492,490,492
387,490,493,492,493
374,490,492,494,493
380,490,493,492,491
389,489,493,495,492
428,491,491,492,491
486,490,493,490,491
548,490,492,486,492
616,492,492,489,493
629,491,492,490,491
621,492,492,490,495
567,492,494,489,493
464,492,494,492,494
406,490,493,495,493
376,489,494,493,492
373,490,493,493,492
383,491,493,492,493
403,489,492,490,492
451,491,492,491,492
510,490,491,491,493
581,490,493,491,491
628,489,493,493,492
627,491,492,490,491
610,491,495,493,492
523,490,493,493,493
432,491,492,491,493
393,490,492,490,491
375,491,493,492,492
380,490,492,492,493
387,489,491,492,494
421,489,492,492,494
478,490,492,492,492
539,491,492,490,491
612,490,493,492,493
630,490,492,491,492
622,491,492,491,492
578,492,492,492,493
480,492,494,491,492
412,490,493,492,494
380,492,494,491,492
374,490,494,493,491
382,490,494,492,491
400,491,494,491,492
443,490,492,492,491
502,491,492,493,492
572,492,492,491,493
624,490,492,492,493
626,490,493,493,494
615,494,494,490,492
534,491,494,493,493
440,490,493,492,491
397,491,495,491,491
374,492,494,491,492
376,492,494,492,493
385,492,495,493,491
415,490,493,492,493
471,490,493,491,493
529,490,493,493,492
604,489,493,492,492
632,491,493,491,494
622,490,492,490,491
586,492,493,493,493
490,492,493,492,492
415,491,493,492,493
380,490,492,491,494
373,492,493,490,492
380,490,493,493,493
393,492,492,492,492
440,491,494,491,492
498,491,494,491,492
561,491,492,493,493
622,491,492,491,493
627,491,494,491,491
617,491,493,492,494
548,491,494,492,493
449,492,494,493,493
402,491,494,492,493
373,492,493,493,492
376,492,493,494,493
385,492,493,490,491
408,491,492,492,492
462,491,493,492,492
520,490,494,491,491
595,489,492,493,493
630,491,492,492,491
626,491,494,492,491
595,491,495,493,491
504,491,494,492,492
419,490,494,492,492
386,490,494,495,492
372,490,492,492,493
378,490,493,491,493
389,489,492,492,493
432,491,493,491,492
489,490,493,492,493
552,490,494,491,491
620,491,494,491,492
630,492,493,491,493
619,492,494,492,493
563,492,494,493,492
459,491,494,493,492
405,491,494,493,494
373,490,494,493,492
375,490,495,493,492
384,491,494,492,493
403,490,494,491,491
455,490,493,492,492
515,491,493,491,492
586,491,492,491,493
627,490,493,493,493
627,492,494,491,493
604,490,495,492,493
516,491,494,493,492
429,491,494,492,491
391,491,495,493,491
376,491,493,492,492
379,492,493,491,492
387,490,494,493,493
424,490,492,491,492
480,491,493,492,492
541,490,493,493,493
612,490,494,491,492
629,490,495,492,491
621,489,493,492,494
574,493,494,492,492
472,492,494,493,492
409,491,494,492,493
378,491,496,493,493
372,490,494,491,492
382,491,494,492,492
401,490,495,492,491
448,490,494,492,492
506,491,493,491,493
575,492,494,492,491
626,490,494,493,493
626,491,493,492,494
611,491,493,492,494
528,491,494,493,492
437,492,494,492,492
396,491,493,492,492
372,491,495,492,491
379,492,495,491,491
386,491,495,491,491
416,491,493,491,492
473,490,493,492,492
532,490,492,492,490
608,491,494,492,492
631,490,494,492,492
622,491,494,494,492
583,491,493,493,493
484,491,495,493,492
411,490,494,493,492
380,492,494,491,492
371,491,493,492,493
379,490,495,493,491
398,492,497,492,493
440,490,496,492,492
500,490,493,493,492
566,491,490,493,491
624,492,492,492,492
627,490,493,494,493
614,493,495,492,492
543,491,496,493,493
445,491,494,492,493
398,490,494,493,494
372,490,493,494,492
377,491,492,492,493
384,491,497,493,491
409,489,494,492,492
467,491,494,492,491
524,491,494,491,492
598,491,494,492,492
632,491,494,492,493
622,490,494,491,492
590,490,494,494,492
498,491,495,493,492
418,491,495,493,492
386,490,492,492,494
374,493,494,490,492
380,490,495,491,493
390,491,492,490,493
434,490,494,490,492
492,490,493,491,492
557,492,493,493,492
620,491,493,493,493
630,492,495,492,491
620,492,495,492,491
557,493,495,493,493
456,492,495,493,493
404,491,495,492,493
371,491,496,492,492
376,490,494,493,493
384,490,494,494,492
408,490,495,493,492
458,490,493,491,493
517,492,494,491,493
590,489,493,491,493
628,491,492,492,493
624,491,493,493,494
599,491,494,493,493
512,492,494,494,492
424,493,494,493,492
391,491,495,493,492
376,492,495,491,491
380,492,495,491,492
388,490,493,494,492
428,491,493,492,492
485,490,493,491,493
547,490,492,492,493
615,490,494,494,493
630,491,494,494,492
622,491,492,492,493
571,492,496,493,493
465,491,494,493,492
409,492,494,491,492
375,493,493,492,493
373,490,493,493,491
385,491,493,493,494
401,492,494,491,492
452,490,493,492,492
511,489,494,492,492
582,491,495,494,492
627,489,493,493,492
627,492,493,494,493
610,491,493,493,494
523,492,494,492,493
433,492,494,493,493
393,490,495,492,492
377,491,494,493,493
377,492,493,492,492
389,491,495,492,492
423,492,494,492,493
477,491,494,492,492
536,491,493,493,494
610,490,492,492,493
629,491,495,491,492
621,490,494,493,495
578,491,495,494,493
479,491,495,493,493
412,490,493,492,492
381,492,496,492,493
373,490,493,491,493
381,491,493,492,493
397,492,493,491,493
443,491,494,492,493
505,490,493,492,493
571,492,494,491,493
627,491,494,493,492
630,492,495,492,492
616,492,497,493,495
536,491,495,494,493
442,492,495,493,492
396,491,493,493,494
373,492,494,493,494
377,490,494,493,493
385,490,494,494,493
414,491,493,491,492
469,491,493,491,492
527,490,495,492,492
606,491,495,491,492
630,492,493,491,492
622,491,495,494,493
588,492,493,493,494
492,492,495,494,493
416,490,493,493,494
384,490,493,494,493
375,491,495,494,493
379,490,493,492,492
395,492,493,493,493
437,491,493,492,492
497,491,493,491,493
559,491,492,491,493
620,491,495,492,492
630,490,494,494,493
616,492,494,495,493
552,491,495,494,493
452,492,494,493,492
403,492,495,492,491
374,493,493,493,493
377,492,493,492,493
385,491,495,493,494
406,490,493,492,493
462,491,493,491,493
518,490,494,493,493
596,492,493,494,492
632,492,493,493,494
624,492,494,492,493
598,494,494,491,493
506,493,495,493,493
421,491,495,494,492
388,491,493,492,491
375,492,495,493,494
380,490,494,494,493
392,490,494,493,492
431,491,494,492,492
487,490,494,492,492
552,490,493,493,493
617,492,493,492,494
630,490,493,492,494
619,490,493,492,494
563,491,495,494,493
464,491,494,492,493
406,491,494,492,492
373,490,495,492,491
377,492,494,491,491
384,492,494,491,491
404,490,494,493,493
455,491,493,492,492
513,491,494,492,493
585,490,492,492,494
630,491,494,493,492
627,491,495,492,494
607,493,495,494,493
521,492,495,493,493
430,492,496,493,493
393,493,494,492,492
376,492,493,492,493
379,491,495,493,493
388,490,492,491,491
425,492,493,492,493
480,490,493,493,493
543,490,494,493,492
613,491,495,493,491
630,490,494,494,494
622,492,494,491,494
573,491,495,494,493
473,492,495,493,493
411,491,494,492,494
375,490,493,493,492
375,492,494,493,494
383,492,493,492,492
401,490,495,493,492
449,490,494,492,493
507,491,493,491,492
574,489,493,493,492
626,491,492,493,491
628,492,493,493,494
612,490,493,493,495
531,491,494,493,494
439,492,495,493,493
395,491,495,494,493
373,491,493,492,491
378,491,495,492,492
386,492,494,491,492
417,492,493,491,492
471,490,493,493,493
533,490,492,492,494
606,492,495,491,492
631,490,495,494,493
624,491,495,494,493
584,492,496,493,493
484,492,494,494,493
416,492,495,493,493
380,491,494,493,493
372,491,492,493,494
381,490,493,492,494
393,490,495,492,492
442,490,493,493,493
501,492,494,491,492
566,490,495,493,492
626,491,494,492,492
629,492,494,491,493
617,490,494,492,493
543,492,495,493,493
447,491,494,492,493
398,490,493,493,495
373,490,493,493,493
377,491,494,493,492
384,490,493,492,492
413,492,495,492,493
464,491,494,493,492
524,491,493,491,493
600,492,493,491,493
630,491,495,492,492
626,490,494,494,495
593,493,495,492,493
499,491,495,494,493
419,491,494,493,492
388,492,496,493,494
372,490,494,491,493
381,492,494,493,492
393,491,493,491,493
432,490,493,492,493
492,491,493,492,494
555,492,494,491,492
619,490,494,494,493
629,490,493,492,491
620,492,496,493,492
560,492,495,493,493
458,491,494,492,492
404,492,494,494,492
374,491,493,492,494
377,492,494,491,493
382,490,494,494,494
406,490,494,493,493
457,491,493,492,492
515,490,493,492,492
592,491,493,492,493
629,492,493,492,493
625,492,494,493,494
602,492,493,493,494
513,492,496,494,493
426,491,494,493,493
391,493,494,495,493
375,491,495,493,492
381,491,495,492,492
390,492,495,493,494
426,490,494,492,492
483,491,493,492,492
545,491,492,491,493
613,491,493,493,494
630,490,493,494,493
622,490,494,494,492
570,493,494,494,493
470,491,494,492,493
408,491,495,492,492
376,492,495,492,493
375,491,493,491,493
382,491,495,493,492
400,490,492,492,492
453,491,494,492,492
509,490,494,493,493
581,490,494,494,493
629,492,494,492,493
625,489,494,491,492
613,490,494,494,494
525,492,495,492,492
434,491,494,493,493
394,490,493,492,494
376,492,495,491,493
378,489,494,492,493
387,492,495,493,492
421,491,495,493,492
476,490,494,492,493
537,491,493,491,491
609,490,494,493,492
629,490,493,492,492
623,493,496,493,495
577,490,495,494,494
481,491,495,493,494
414,491,494,492,492
378,492,495,494,492
376,491,494,493,494
383,492,494,491,492
397,492,493,491,493
444,491,493,491,492
503,490,494,492,494
567,489,493,491,492
626,491,494,493,492
629,491,495,493,492
616,490,495,494,492
541,492,494,492,493
443,491,495,492,493
397,490,494,494,492
374,493,493,491,493
374,490,493,492,494
385,489,493,492,494
413,490,493,491,492
468,491,493,492,493
528,490,493,491,493
605,491,495,491,492
631,491,493,491,493
624,492,493,491,493
588,491,495,494,494
493,491,494,494,493
418,492,494,493,494
383,491,493,494,495
374,490,495,493,493
382,491,492,491,493
390,491,495,492,492
437,490,493,492,493
495,491,494,492,493
559,491,493,492,493
620,490,492,492,492
630,492,495,493,493
617,489,495,492,493
553,491,495,493,493
452,491,495,493,492
402,491,495,493,492
376,491,495,491,492
375,490,494,493,493
382,491,493,494,492
410,490,493,491,493
460,490,494,492,493
517,490,493,493,494
595,490,494,490,493
628,491,495,493,492
624,489,493,493,492
599,492,496,492,493
507,492,495,494,493
425,492,494,492,493
389,491,495,491,493
372,490,494,491,492
382,490,493,493,493
389,490,494,494,493
430,490,494,492,493
487,490,493,491,493
550,491,495,492,494
616,489,493,491,493
629,491,492,491,494
618,491,493,493,495
565,491,494,493,494
465,491,494,492,492
408,490,494,494,493
375,493,493,492,492
377,492,495,492,492
384,491,494,491,492
406,493,493,491,493
454,490,493,492,492
512,491,495,492,492
587,490,492,492,494
628,490,493,493,493
626,490,494,493,493
609,492,493,491,493
521,491,495,494,493
431,491,493,492,492
393,492,494,491,492
374,491,493,492,493
377,491,492,492,492
391,492,493,492,495
421,492,494,492,493
480,491,493,493,493
542,490,494,493,493
612,490,494,492,492
631,491,494,491,494
621,491,495,492,493
576,493,495,493,494
477,492,494,491,493
409,491,494,493,495
376,490,493,492,494
375,492,493,491,493
383,491,494,493,493
399,490,492,492,491
448,491,494,492,492
505,491,494,492,492
574,492,493,493,493
627,491,493,492,493
626,492,495,491,492
613,490,493,493,494
532,491,494,493,493
439,491,494,493,493
396,491,493,492,491
376,491,495,493,493
376,489,494,491,493
386,492,493,490,492
414,491,493,492,493
470,490,493,492,494
531,491,494,490,491
604,489,493,493,493
630,491,492,492,492
625,492,495,493,492
585,493,496,493,493
489,492,495,493,493
415,490,494,491,492
379,491,495,494,492
373,491,493,493,494
380,490,494,493,493
393,489,493,494,493
440,491,493,491,493
498,491,494,492,494
562,489,494,491,492
626,492,494,491,493
628,492,493,491,494
616,492,495,494,492
550,491,494,492,493
449,492,495,493,493
402,490,493,493,494
374,490,494,493,492
378,491,495,493,492
386,491,495,492,494
409,490,494,492,492
464,490,493,492,493
523,491,492,491,493
597,491,492,491,494
630,489,493,493,494
626,492,493,491,494
593,490,495,492,494
501,492,495,492,493
421,491,495,492,492
387,492,495,491,492
374,492,494,493,493
382,491,493,492,493
392,491,496,493,494
433,490,492,492,493
491,491,494,492,492
552,490,494,494,494
619,491,493,492,492
630,492,494,494,494
619,493,495,491,492
561,493,495,492,493
459,492,495,492,493
404,491,493,493,494
377,492,496,491,494
373,490,494,491,493
384,491,494,493,492
408,490,495,492,492
457,491,494,493,492
515,491,493,492,494
589,492,494,490,493
629,490,494,493,494
625,490,493,492,494
601,491,493,493,493
515,491,494,493,493
430,492,494,493,492
392,491,493,492,493
374,491,495,490,492
381,492,494,491,492
389,492,494,491,492
425,490,494,493,493
483,491,493,492,492
546,491,495,493,495
614,490,494,493,493
631,491,495,493,492
621,492,495,494,493
574,492,494,493,494
470,492,495,493,492
407,490,494,494,493
374,493,493,492,493
373,490,494,492,494
381,489,493,493,492
403,492,493,493,493
449,490,493,492,493
507,490,493,492,492
580,491,495,491,492
626,492,494,491,493
626,490,494,493,493
611,492,493,491,492
527,492,495,493,494
436,491,493,492,493
394,490,494,493,495
373,491,494,492,494
377,490,495,492,491
388,489,492,492,494
421,491,494,491,492
475,491,493,491,492
534,491,493,491,493
606,491,493,492,493
632,492,494,493,493
622,490,493,491,492
581,490,495,493,493
483,491,495,492,492
414,491,495,492,492
381,490,493,493,494
374,492,494,491,493
383,491,495,492,494
395,491,492,492,494
443,491,493,492,493
501,490,493,491,493
568,491,494,493,493
626,490,493,492,494
630,491,494,491,493
617,494,495,492,492
541,493,495,493,493
444,491,494,494,493
398,491,493,493,492
376,491,494,493,495
377,491,494,493,493
387,491,495,494,492
412,490,495,492,493
467,491,493,491,493
526,491,494,491,494
601,489,493,491,494
631,491,493,492,494
623,490,493,493,495
587,490,493,492,493
498,492,494,492,493
418,492,494,492,493
386,491,495,494,492
375,492,494,491,491
381,492,494,492,492
392,489,493,494,492
436,491,493,493,493
494,490,493,492,494
557,490,492,491,495
620,490,494,493,493
630,490,493,492,495
618,491,495,494,493
553,492,495,494,493
455,491,495,493,493
404,492,494,491,493
376,493,494,492,494
375,491,493,493,492
387,491,493,492,494
407,492,494,492,493
461,490,494,492,494
519,491,494,493,492
595,490,495,493,492
629,490,493,493,493
627,492,494,493,495
599,490,493,492,494
510,492,495,493,493
424,491,494,492,493
388,490,495,493,491
377,490,493,493,494
380,492,494,491,493
391,489,494,493,492
431,490,494,492,492
486,491,494,492,493
548,489,493,491,492
617,492,494,493,492
630,490,493,494,495
620,490,493,493,496
567,491,495,493,493
466,491,494,493,493
409,491,494,491,493
376,490,495,492,493
373,489,494,492,492
385,492,494,491,491
405,492,494,491,492
453,491,493,492,493
510,491,493,491,493
584,490,495,492,494
627,489,493,492,494
627,490,494,493,492
609,490,495,494,494
521,491,494,493,493
433,491,494,491,493
392,491,495,492,493
376,492,493,491,493
378,492,493,492,493
386,490,495,494,491
421,490,492,492,492
479,490,493,492,493
540,490,493,493,494
612,490,494,492,492
632,491,494,492,492
621,492,493,493,495
576,493,494,492,493
476,491,494,493,493
411,491,493,492,494
378,491,492,491,493
373,490,494,493,493
383,491,493,493,493
400,490,493,491,493
445,490,494,493,493
505,490,494,491,492
574,492,493,490,491
625,490,494,493,493
627,490,492,492,492
616,492,496,494,495
534,491,495,493,495
441,492,493,492,493
398,491,495,491,493
373,492,495,492,493
379,490,494,492,494
387,491,494,492,492
415,491,493,491,493
471,491,493,491,492
529,490,493,491,492
606,491,494,492,494
631,490,493,491,493
622,490,495,493,493
586,491,496,493,492
491,491,495,492,492
415,490,493,492,494
383,492,494,491,493
374,490,495,492,494
379,490,492,492,493
392,490,492,492,494
439,490,493,492,493
498,490,493,492,493
563,491,492,491,494
624,491,495,492,493
630,492,494,491,493
618,493,494,491,493
548,491,494,493,493
450,491,494,492,492
402,492,494,493,494
372,490,494,494,494
378,491,495,493,493
386,491,494,492,491
411,489,492,491,494
464,491,493,492,493
520,490,493,491,493
598,492,493,491,494
630,491,492,492,493
624,490,493,491,492
596,492,493,493,495
504,492,494,492,492
419,490,494,493,492
388,491,495,494,492
376,491,494,491,491
378,489,493,493,493
391,492,493,493,493
433,490,493,492,493
490,490,493,492,494
552,489,492,492,494
618,490,493,491,493
629,490,494,493,492
619,491,492,491,492
564,492,495,493,493
461,491,493,492,493
407,492,494,491,493
375,493,494,493,493
376,490,492,492,494
383,491,494,491,491
403,489,493,493,494
457,490,493,492,493
514,491,494,492,492
586,491,492,491,492
631,491,494,493,494
626,490,493,491,493
605,493,494,492,494
516,492,494,492,494
429,492,494,492,492
393,490,493,492,495
377,492,494,491,493
379,491,494,494,492
390,490,495,493,492
426,491,494,492,493
480,490,493,492,492
543,491,492,492,493
613,492,492,492,493
629,490,493,493,494
620,490,493,492,495
572,490,493,493,493
472,492,494,493,494
410,490,494,491,493
375,492,495,493,492
376,492,494,491,492
383,491,493,491,491
402,493,494,493,492
447,491,492,492,493
509,491,494,491,494
575,489,492,493,494
627,490,493,492,493
629,491,494,492,494
611,492,493,494,493
531,491,494,492,494
437,492,495,492,492
395,492,494,492,492
376,492,492,492,494
377,492,495,492,492
386,490,492,492,492
420,492,493,492,493
472,491,493,492,493
534,490,494,493,492
609,491,494,492,492
631,492,493,493,493
622,492,493,491,492
582,490,494,493,493
483,491,494,493,493
414,491,493,492,494
380,490,492,491,492
375,492,493,493,493
383,490,492,491,493
394,491,495,492,491
442,490,494,492,493
501,491,494,491,493
567,490,493,493,493
624,491,492,492,492
630,491,494,492,494
615,490,494,494,495
542,491,494,493,494
447,491,494,492,493
399,491,495,494,492
375,490,493,492,495
378,493,494,491,493
385,491,493,491,492
412,491,493,491,493
467,491,493,491,492
524,490,494,491,494
600,489,494,491,493
632,490,494,493,493
625,490,495,494,493
592,490,495,493,492
499,492,494,492,493
419,491,493,492,494
385,490,493,491,492
372,491,493,492,493
379,490,492,492,494
391,490,492,491,492
436,491,493,492,493
494,490,493,489,493
558,490,494,493,492
621,491,494,492,492
630,491,494,491,493
619,490,493,494,492
555,492,493,494,493
456,491,493,491,492
402,490,493,492,494
372,490,493,493,494
377,490,494,493,493
386,492,493,491,493
408,491,494,492,494
459,490,493,491,492
518,491,493,491,493
592,491,493,491,494
629,491,492,492,492
626,492,494,494,495
599,492,495,491,493
510,491,494,492,493
423,490,493,493,493
391,490,495,493,493
373,491,493,492,492
380,492,494,493,493
390,489,493,490,492
427,491,493,491,492
484,490,493,492,493
547,489,494,491,492
616,490,493,493,493
631,491,492,491,492
622,491,495,494,492
570,491,495,493,493
468,490,493,492,492
409,491,493,493,493
374,489,493,492,493
374,490,494,492,492
381,490,493,492,494
401,489,493,493,494
452,490,492,492,493
511,491,493,491,492
583,490,495,491,495
628,491,494,491,492
627,493,494,492,494
610,493,493,492,494
524,492,494,493,493
434,491,493,492,494
395,492,495,491,495
374,491,494,493,492
379,490,495,493,492
389,490,494,493,494
420,490,493,491,492
477,490,493,492,494
539,491,493,490,492
610,492,493,491,493
629,490,492,493,494
622,489,493,491,495
580,493,495,491,494
478,491,494,492,492
413,491,494,492,492
379,490,495,493,492
375,491,494,491,492
383,491,493,492,493
397,492,493,491,493
446,490,493,492,493
504,491,493,492,493
569,489,492,493,494
626,489,493,493,494
627,491,492,493,492
616,490,493,492,495
536,492,495,492,493
441,491,494,492,492
397,491,493,491,493
374,491,494,493,492
375,490,493,493,492
387,491,494,492,495
414,490,493,492,493
469,490,494,493,493
528,490,494,493,492
605,490,492,492,494
630,491,494,491,493
624,490,495,494,493
585,493,493,492,494
491,492,494,493,494
417,491,493,493,493
385,492,495,493,495
373,490,493,492,494
381,491,494,492,491
395,491,495,492,492
438,491,493,492,493
496,490,493,491,493
559,491,492,491,493
622,490,494,492,494
628,490,493,493,494
616,490,493,494,495
550,490,494,493,492
452,491,494,493,492
401,490,493,492,494
376,491,494,491,492
376,492,494,491,492
384,491,493,491,492
408,491,492,491,493
462,491,493,492,493
519,489,493,491,492
598,489,492,493,493
631,491,494,493,492
626,491,495,494,493
598,491,493,493,495
506,492,495,493,493
422,491,493,492,493
388,493,493,491,493
374,491,493,492,494
379,490,492,491,492
393,492,492,491,493
431,491,493,492,492
489,491,493,492,492
553,491,494,492,491
618,491,494,492,492
630,490,493,493,493
619,492,493,494,493
564,491,493,492,493
462,491,493,491,492
405,490,493,492,494
373,489,492,493,494
377,492,492,490,493
384,491,495,493,493
403,490,492,491,492
457,490,494,491,492
513,491,493,491,492
586,491,493,493,493
630,491,492,492,494
624,491,495,492,493
606,490,493,494,494
519,491,494,493,493
431,491,494,493,493
392,491,493,491,492
377,492,495,493,494
379,490,494,491,493
389,492,493,490,494
423,491,493,491,492
480,490,494,492,493
544,490,492,492,494
614,492,493,491,493
632,490,494,493,492
623,491,495,493,492
576,491,495,493,493
474,491,494,492,493
410,490,494,491,492
376,490,494,493,493
373,490,492,492,493
382,490,493,492,494
398,489,492,492,494
450,491,493,492,492
507,490,494,491,493
574,490,494,492,492
629,492,494,491,492
628,492,493,490,493
613,492,494,494,494
533,492,494,491,492
437,491,494,493,493
395,490,493,492,495
373,490,493,493,493
378,490,494,494,494
386,491,492,492,491
419,491,493,492,492
471,490,493,492,492
534,491,492,490,492
606,492,493,491,493
630,490,493,492,495
625,492,494,492,495
582,490,494,492,493
487,492,494,493,494
415,490,494,492,492
383,491,495,493,492
374,491,494,493,495
381,492,494,491,492
395,489,494,494,493
441,490,493,491,493
500,491,493,491,494
563,489,493,492,492
625,491,493,493,493
630,491,492,492,494
615,491,495,492,492
546,492,495,492,493
447,491,495,492,492
399,490,493,494,494
374,492,492,491,491
377,491,495,492,494
385,490,493,493,494
411,490,493,492,493
464,490,493,492,493
523,490,493,491,494
599,491,495,492,492
630,490,494,493,494
625,492,493,492,494
592,492,494,492,493
500,492,494,493,493
421,491,494,492,494
386,490,495,491,492
374,490,494,493,493
383,491,494,491,492
392,491,495,492,492
434,490,493,491,493
492,491,494,491,493
555,490,494,491,493
620,490,492,492,494
629,490,493,492,494
618,489,493,492,492
559,492,493,493,493
457,491,494,492,492
404,490,494,492,492
376,491,495,491,492
376,492,493,490,492
383,491,493,491,493
407,490,494,491,493
457,491,494,492,493
516,490,492,492,494
591,489,492,492,493
630,491,494,492,492
626,490,492,492,494
605,491,495,492,494
511,491,494,492,493
428,491,493,492,493
391,492,493,491,493
374,491,492,493,492
381,492,493,492,494
389,493,494,490,492
427,490,493,493,494
485,491,493,492,492
546,491,494,491,491
612,490,493,493,493
631,492,493,493,494
621,491,493,491,494
570,491,493,492,494
469,492,494,492,493
408,490,494,492,494
375,492,495,491,493
376,490,494,492,493
382,490,493,493,492
405,491,494,491,492
452,491,494,491,492
509,491,494,492,493
580,489,492,491,493
626,491,495,492,492
626,489,493,493,494
610,490,493,494,493
526,491,494,493,493
434,491,494,491,492
396,491,495,491,494
373,490,495,491,492
378,492,493,491,493
388,492,493,490,492
419,491,495,493,493
476,491,493,492,494
539,492,494,490,494
609,490,494,493,493
632,491,494,492,492
624,492,495,493,492
581,492,496,493,494
481,491,494,492,492
414,491,494,493,493
378,492,493,491,493
373,490,493,493,494
381,491,493,493,494
399,492,494,491,493
445,490,493,491,492
501,491,494,493,492
571,490,495,492,492
626,492,494,490,492
627,492,494,494,493
616,492,493,490,493
539,493,495,493,493
442,491,493,492,493
398,490,493,493,494
373,490,494,494,493
376,490,492,492,492
387,491,492,491,494
411,491,494,492,492
469,490,494,492,493
527,491,493,490,492
602,491,493,491,494
632,491,494,492,494
624,490,494,491,492
589,494,495,494,494
495,491,495,494,494
418,491,494,492,491
385,491,493,491,495
373,492,494,491,493
381,490,494,493,493
391,491,492,491,493
436,490,493,491,492
494,491,493,493,492
559,491,494,492,494
620,490,493,491,492
628,491,495,493,492
619,490,494,494,492
554,491,494,492,493
452,491,493,491,493
403,491,494,491,495
373,490,493,491,492
375,491,493,492,494
384,491,492,491,493
407,490,492,491,493
461,491,494,492,492
520,490,492,492,494
597,492,494,491,493
631,490,494,493,493
626,490,493,493,493
597,490,493,493,492
507,491,494,492,493
422,491,493,490,492
388,490,493,493,494
375,490,494,491,492
382,490,493,492,492
390,492,493,490,493
431,490,494,492,493
487,492,493,493,492
551,492,494,491,492
617,492,492,491,493
629,491,493,493,492
620,491,493,491,493
565,492,494,492,492
462,491,494,491,492
405,490,492,492,494
374,491,492,491,494
374,490,492,492,491
384,491,494,493,495
404,491,494,491,492
454,490,493,492,493
512,490,492,492,495
584,490,492,491,493
628,491,493,491,492
627,489,492,492,491
610,491,494,492,494
519,491,493,492,493
431,491,492,491,493
393,490,493,491,491
376,491,493,493,495
379,492,494,491,492
388,490,493,493,495
422,490,493,492,493
478,491,493,491,493
542,492,494,491,495
611,489,493,490,492
631,492,495,493,494
623,490,494,493,495
575,490,494,494,494
477,491,493,492,493
412,491,493,492,493
379,489,494,492,493
374,489,493,490,491
382,491,494,491,491
401,491,493,490,492
447,491,493,491,492
503,489,492,491,492
574,489,492,492,493
624,490,493,491,493
626,491,492,490,493
615,492,494,490,492
533,490,494,492,492
437,491,492,493,492
396,491,492,491,492
372,492,492,492,493
376,490,491,492,494
386,491,495,491,491
417,489,492,492,494
473,490,492,490,492
532,490,493,492,493
606,488,494,492,492
632,491,494,491,492
624,492,494,493,493
584,489,493,492,493
489,491,494,492,492
414,490,493,491,493
380,489,492,491,494
374,490,493,493,493
381,492,493,492,493
395,489,493,489,493
439,490,493,492,493
498,490,495,492,492
564,491,494,491,492
624,491,493,492,493
628,491,493,491,494
619,491,494,494,492
545,492,494,493,492
448,491,493,492,494
401,490,493,492,491
376,491,495,493,494
376,490,493,491,493
385,490,494,493,492
411,490,494,492,492
464,490,493,492,492
523,491,493,490,492
597,489,493,493,493
630,490,492,492,492
626,491,493,492,494
590,490,492,493,494
502,490,494,492,493
422,490,493,491,492
386,490,494,494,493
374,490,492,492,492
381,491,494,491,492
391,491,494,491,492
433,491,493,492,493
491,491,494,492,493
552,490,494,492,492
621,490,494,493,493
629,490,494,494,494
620,491,494,494,494
562,492,493,492,493
459,491,494,493,494
404,491,493,491,492
376,493,495,491,493
374,491,493,492,493
383,490,492,491,493
405,490,494,491,492
457,490,493,492,493
516,491,492,491,493
591,490,494,493,492
630,491,494,492,492
628,491,493,491,494
602,490,493,491,492
515,492,494,493,492
429,491,494,492,493
389,491,493,491,494
373,490,492,492,494
380,492,494,490,493
389,489,493,494,493
426,490,493,492,493
483,490,493,492,492
545,491,494,491,492
615,491,493,492,493
631,491,493,491,494
619,492,495,494,492
571,491,494,493,494
469,492,494,493,494
409,490,493,493,494
378,490,493,494,493
374,491,493,492,492
384,491,493,492,494
401,492,494,491,492
450,491,494,492,493
508,491,493,491,493
577,490,494,492,492
626,489,493,493,492
627,492,493,493,493
611,490,494,494,493
527,490,494,493,493
435,491,493,491,493
395,491,495,492,492
376,490,493,492,493
378,492,493,491,492
386,491,493,491,493
417,490,492,491,493
476,491,493,491,493
535,490,493,490,492
609,492,493,492,493
632,491,494,491,492
623,491,494,492,492
582,492,495,492,492
484,491,494,492,493
413,491,493,492,492
382,490,494,490,493
372,490,493,492,494
381,490,494,493,494
396,489,493,491,492
442,491,494,491,493
501,491,492,491,493
570,491,494,490,491
625,492,494,491,493
627,491,493,491,494
618,491,495,493,494
539,491,493,493,492
445,490,493,491,493
398,490,494,493,494
373,490,494,494,493
378,491,492,491,493
385,491,494,492,491
410,489,493,492,492
468,491,493,491,492
525,491,492,490,492
600,491,492,492,494
630,490,492,491,491
625,492,493,493,494
588,493,494,492,493
496,491,494,492,492
417,490,494,493,492
385,491,495,493,492
373,490,493,493,492
380,492,493,493,493
393,489,492,490,493
434,490,493,491,492
493,490,492,493,493
556,489,493,491,492
622,491,495,493,492
628,491,492,492,492
621,493,495,492,492
555,492,495,492,493
455,491,494,492,493
403,491,494,491,493
372,493,495,493,492
377,490,493,492,494
384,490,493,493,494
406,489,493,493,493
459,489,493,491,493
517,490,492,491,491
594,490,495,492,494
629,490,493,490,493
624,492,493,491,493
598,492,492,492,494
510,491,494,492,492
425,491,493,492,493
390,492,494,491,494
375,490,494,492,492
380,490,495,492,492
390,490,495,492,494
428,490,492,491,492
485,490,493,492,493
548,491,491,490,493
615,491,492,491,493
629,490,493,493,494
619,492,494,491,492
568,490,494,493,492
465,491,493,492,493
408,491,494,491,492
376,491,495,491,492
375,492,494,491,492
383,492,494,493,493
403,492,492,491,493
453,489,493,492,493
511,490,492,492,494
581,489,493,493,494
628,489,494,493,494
625,490,492,492,492
611,492,492,493,495
522,491,494,492,493
432,492,494,492,492
393,492,493,492,493
374,490,495,492,492
377,490,493,492,492
388,491,494,493,494
423,489,493,492,493
477,490,493,492,492
539,490,494,491,494
610,490,494,490,492
631,490,494,493,493
622,491,492,490,493
577,492,493,492,493
478,491,494,492,493
412,490,493,492,492
381,492,494,492,493
374,490,493,492,493
382,490,494,492,491
401,491,495,491,492
446,492,495,492,493
505,490,493,492,493
572,492,492,490,493
626,491,494,492,494
627,490,493,492,494
614,490,494,493,495
535,490,494,493,493
442,491,494,492,493
397,491,493,492,494
376,490,495,491,492
378,492,494,491,492
386,492,493,491,492
416,490,494,492,493
469,491,493,493,492
530,491,492,492,494
605,489,492,492,493
631,491,494,492,492
624,491,495,493,493
585,490,493,492,494
491,491,495,492,493
415,490,493,491,493
383,492,493,490,492
373,491,492,492,494
380,490,492,492,492
396,492,492,492,493
438,491,494,491,493
499,490,493,492,493
562,490,494,492,492
623,491,495,491,492
628,489,493,493,493
618,493,494,495,494
549,491,494,492,494
450,491,493,492,493
401,490,493,492,494
372,490,494,492,493
377,490,494,493,493
384,491,492,491,492
411,490,494,492,492
464,490,493,490,492
521,491,494,490,492
597,491,493,493,493
631,491,492,491,494
622,491,494,492,492
593,490,493,493,494
504,491,493,492,492
420,490,493,493,493
387,491,492,490,492
375,491,494,492,494
379,489,493,491,493
392,492,493,489,492
431,491,492,491,492
489,490,493,492,492
553,490,492,491,494
619,491,493,491,493
631,490,494,492,492
621,491,494,493,492
564,491,495,493,493
460,491,493,491,492
405,491,493,493,493
373,492,493,491,494
374,490,492,492,494
383,491,493,492,494
403,490,493,492,494
457,491,493,491,493
514,490,493,491,493
586,491,493,493,492
631,491,494,490,492
627,492,495,491,493
607,493,493,494,494
519,492,494,491,493
428,490,494,492,494
391,490,492,492,495
374,490,493,492,494
379,490,493,493,493
389,491,492,493,492
427,490,493,491,493
480,490,493,492,493
545,491,493,490,492
613,492,492,490,493
630,490,494,493,492
621,490,492,491,492
575,492,495,493,494
472,490,493,492,493
410,490,493,493,492
378,490,494,494,492
375,491,492,492,494
382,491,494,491,491
399,489,493,493,493
449,491,493,492,493
507,491,492,491,493
574,490,492,492,492
628,491,493,493,494
628,490,494,492,494
612,490,495,494,493
531,491,494,493,493
438,491,494,492,492
396,489,493,493,495
376,492,493,491,492
378,491,494,492,494
385,490,491,492,495
417,490,493,491,493
472,490,493,491,492
533,490,492,493,493
608,491,492,491,494
632,491,494,491,492
623,492,493,491,492
584,493,494,491,493
486,492,494,492,493
415,489,494,490,493
379,490,495,492,492
375,490,493,493,494
382,490,493,493,493
396,490,494,492,492
442,490,492,491,493
501,490,493,490,493
564,489,492,491,492
625,491,492,491,494
628,490,492,491,494
615,491,492,493,492
547,491,493,492,494
447,491,494,491,492
399,490,494,494,494
375,490,494,493,492
378,491,494,492,491
384,489,493,492,492
413,492,493,492,493
465,490,493,492,493
524,490,492,491,494
600,490,491,491,494
630,490,493,492,494
625,492,493,491,493
592,490,494,493,493
498,492,494,493,493
420,491,493,492,493
388,492,495,491,492
375,492,494,494,493
381,490,492,491,494
391,490,495,492,492
433,490,493,491,493
493,490,492,491,493
556,489,493,492,493
619,490,492,491,492
632,491,494,492,494
618,489,495,492,492
558,492,494,492,492
458,491,493,491,492
403,491,494,493,492
375,490,492,492,494
377,492,493,490,493
384,490,493,494,494
407,490,494,493,493
459,490,494,491,492
516,491,494,492,494
589,489,494,491,493
630,491,494,493,492
624,491,493,493,495
601,491,492,491,494
513,492,494,492,493
427,491,494,492,494
391,490,494,490,491
375,492,495,492,492
381,491,494,491,492
391,492,495,490,491
428,491,493,492,493
483,490,493,491,493
548,490,494,491,493
613,490,493,492,494
630,490,493,493,494
622,490,494,493,492
569,492,493,493,494
469,491,493,491,493
408,491,494,491,492
376,491,495,491,493
375,491,493,491,493
383,491,492,491,493
403,490,494,493,494
452,491,493,491,493
510,491,493,493,494
581,489,493,493,494
629,491,494,492,492
627,492,493,493,495
608,493,496,492,493
525,491,494,493,493
433,491,494,492,493
394,491,492,491,494
374,491,493,492,492
379,492,494,493,493
389,489,493,491,493
420,490,494,492,492
476,489,493,492,493
538,491,494,491,492
611,490,493,493,494
631,491,493,491,493
624,491,494,490,493
576,490,493,493,494
480,491,494,492,494
413,490,493,493,494
380,490,494,491,493
373,490,494,492,492
382,491,493,492,492
400,492,495,491,492
445,491,493,492,493
504,491,493,491,492
569,489,494,491,494
625,489,494,491,492
629,490,494,493,493
615,490,494,494,494
539,491,494,492,493
443,491,493,491,493
398,491,494,492,495
373,490,493,491,493
376,491,493,492,494
386,491,493,491,494
413,490,492,491,492
469,490,493,492,494
528,491,493,490,492
604,490,494,492,492
631,491,495,492,492
626,491,495,492,493
589,492,495,492,493
493,490,494,492,493
417,492,494,493,493
384,491,493,491,494
373,489,493,493,494
381,490,493,492,493
393,493,493,490,493
438,490,493,492,493
496,491,493,491,491
561,491,494,491,492
623,491,493,490,493
630,492,492,492,492
619,490,493,491,495
550,491,494,492,492
451,491,494,491,493
401,490,494,493,494
375,489,493,493,492
375,490,493,491,492
385,491,494,492,495
408,490,493,491,492
461,491,493,491,493
519,490,492,492,494
595,491,492,491,494
629,491,494,491,493
626,490,494,494,494
599,493,493,493,493
507,491,495,493,494
425,490,494,492,493
391,492,495,492,495
373,490,494,491,494
380,490,494,492,492
388,491,492,491,494
429,490,492,491,493
487,490,492,491,494
551,492,493,490,493
617,489,494,491,494
630,491,495,491,491
620,492,495,492,492
568,492,495,492,493
466,491,493,492,493
407,491,493,492,493
377,490,494,492,494
374,490,493,492,493
383,489,494,493,495
404,489,493,493,493
455,491,493,491,492
511,490,494,491,492
587,489,492,492,495
629,492,494,491,493
626,492,492,492,495
609,492,492,491,494
522,492,495,493,494
432,491,493,492,493
395,493,494,495,494
375,491,495,494,492
380,491,494,492,492
390,491,493,491,494
421,491,494,491,492
480,490,493,492,493
542,491,492,490,493
610,491,492,492,494
631,489,493,492,492
622,492,493,494,495
576,491,493,492,494
477,491,494,491,492
411,491,495,492,492
379,491,495,492,493
376,492,493,491,493
383,491,494,493,493
398,491,492,492,492
449,491,493,491,492
504,490,492,492,494
573,489,493,493,494
628,490,492,491,493
626,491,495,492,492
613,490,492,492,492
533,492,495,492,492
439,491,494,492,493
396,491,492,491,492
375,491,494,492,494
376,490,494,491,492
387,490,493,493,493
416,491,494,492,493
470,491,493,492,493
532,490,492,491,494
607,491,494,491,493
631,490,493,490,493
622,491,492,491,494
582,491,493,492,494
488,491,494,492,493
415,491,494,491,492
382,490,493,493,493
374,492,492,491,492
383,491,495,491,491
395,490,495,492,492
441,490,494,491,493
497,490,493,491,492
563,491,492,492,494
623,491,493,490,493
626,491,492,492,494
615,490,492,491,495
546,492,494,492,492
447,490,493,492,492
402,491,493,492,493
374,490,494,492,492
377,490,495,492,492
386,491,494,491,495
408,490,494,491,492
464,489,493,492,494
523,491,492,490,492
597,491,492,491,494
629,490,493,492,494
624,489,493,493,492
595,493,494,494,493
501,491,494,492,493
420,490,494,492,492
388,491,496,493,492
374,492,494,492,493
382,491,494,492,493
389,492,492,490,492
434,490,493,491,492
489,491,493,491,493
551,489,492,491,494
617,489,493,490,492
630,492,494,492,492
620,491,493,491,493
562,492,495,492,493
459,491,494,492,492
405,491,494,491,492
374,490,491,492,492
375,492,493,492,492
385,490,492,491,493
405,491,492,491,493
456,491,493,491,493
515,489,493,492,494
589,492,493,490,493
630,490,494,492,494
626,490,492,491,491
606,492,495,490,492
516,492,494,492,493
427,491,493,492,492
391,490,493,491,492
373,490,495,492,493
378,490,493,492,493
388,489,493,493,494
426,489,493,491,493
483,490,493,491,492
545,491,494,491,494
612,490,494,491,492
631,492,494,490,492
621,493,494,491,492
573,493,494,493,493
471,492,494,492,492
409,490,494,492,494
375,491,492,492,494
374,490,493,492,494
383,490,493,492,494
402,489,493,490,492
450,491,493,492,493
508,490,492,491,494
582,491,494,491,491
627,491,493,491,492
626,491,493,490,493
613,490,494,494,493
526,491,494,493,493
435,490,493,490,493
395,490,493,492,494
373,489,493,493,493
379,490,493,491,493
387,490,495,492,491
417,489,492,491,492
476,490,493,491,492
536,492,495,491,492
609,492,494,491,494
632,491,494,491,494
621,491,495,493,492
583,490,493,492,494
483,491,494,492,493
414,490,493,493,493
381,489,493,493,493
374,491,492,491,492
383,491,495,492,495
395,489,494,491,492
445,491,494,491,492
501,491,494,491,492
567,491,493,493,493
625,491,493,491,493
629,491,494,491,495
616,490,492,492,494
541,490,494,492,493
444,491,493,493,493
400,491,493,493,492
375,490,492,492,494
376,491,494,491,492
387,491,493,490,491
412,491,493,491,493
467,490,493,492,493
525,490,492,491,492
602,490,494,493,494
630,490,493,492,493
623,490,494,493,494
588,490,494,494,494
497,491,494,492,494
417,491,494,492,492
383,490,493,492,492
375,492,493,490,492
380,491,493,491,493
391,491,492,491,492
437,490,493,491,492
492,490,494,491,492
559,489,493,492,494
620,490,494,492,492
630,491,494,492,492
619,490,493,492,495
556,492,495,492,494
454,491,493,492,492
404,492,493,492,492
375,493,494,491,494
374,491,493,493,492
386,491,493,491,494
406,492,494,491,492
460,490,492,491,493
518,490,493,492,492
593,490,494,493,492
630,490,493,491,494
625,490,493,490,492
600,493,493,494,494
509,492,494,492,493
424,492,493,491,493
388,491,493,491,494
374,491,494,491,492
379,490,494,493,493
389,492,493,494,493
431,491,494,492,493
484,491,494,492,492
549,490,494,491,494
614,490,493,490,492
630,490,494,493,493
620,491,493,491,493
567,492,493,492,493
466,492,493,492,493
409,491,494,491,494
374,490,492,491,492
375,492,494,494,493
385,491,494,492,492
405,490,494,491,492
453,490,494,492,493
511,490,492,492,494
583,492,493,491,494
628,490,494,491,494
625,491,492,492,494
608,491,492,492,495
522,491,493,492,493
433,491,493,492,493
395,492,493,491,492
376,491,494,492,491
380,492,495,492,492
388,492,496,492,493
421,491,493,493,493
479,492,494,493,493
539,490,492,491,494
610,491,493,492,494
631,491,494,493,495
622,491,494,493,494
580,491,495,494,494
478,492,494,493,493
412,491,494,492,492
381,492,495,492,493
375,493,494,491,493
382,492,493,493,493
400,490,492,491,493
444,491,494,492,493
504,491,493,492,494
572,490,493,493,494
627,491,494,494,493
628,491,493,492,493
617,492,496,493,496
535,491,495,494,494
441,492,494,492,493
399,492,493,491,493
375,493,494,493,492
379,490,493,492,494
387,492,495,491,495
415,490,493,492,494
470,491,493,493,493
530,491,494,495,494
603,491,493,491,493
634,492,494,493,493
624,492,493,491,494
586,492,493,492,494
492,492,494,492,493
416,491,493,493,494
385,493,496,492,495
376,491,495,492,494
380,491,495,493,493
397,492,495,491,492
440,491,494,492,493
497,491,493,493,493
562,492,492,491,493
623,491,495,492,494
629,490,493,494,495
619,491,493,494,495
550,491,494,493,493
452,491,494,493,494
403,492,493,492,495
373,492,496,493,493
378,493,494,492,494
385,492,493,491,493
409,491,494,493,494
464,491,493,492,493
522,492,495,493,495
597,489,493,493,494
631,490,494,492,493
627,491,495,492,492
597,491,492,493,495
505,491,494,493,493
420,491,494,493,493
388,492,493,491,493
375,491,492,492,494
379,491,493,492,492
392,492,494,493,494
432,490,493,491,492
489,490,493,493,493
554,491,494,493,493
620,492,494,492,493
630,491,494,495,495
620,492,494,492,494
565,492,495,494,494
461,492,494,493,495
407,491,493,492,495
373,491,493,492,493
376,492,494,494,493
386,492,492,492,493
408,491,495,492,493
457,490,494,492,493
514,491,493,491,492
587,493,494,491,494
630,491,494,492,494
625,491,494,492,492
608,490,493,493,495
518,491,494,493,494
431,491,493,493,493
393,492,493,492,493
376,491,495,492,495
379,491,494,492,493
389,492,494,491,493
426,492,493,492,493
482,492,494,494,493
543,491,492,492,495
613,493,494,491,493
631,490,494,493,493
623,491,494,494,493
576,492,495,493,493
472,492,494,493,493
411,491,493,494,494
377,490,494,491,493
372,491,492,492,494
382,490,492,492,495
399,490,492,493,494
448,491,493,493,493
508,490,493,492,493
576,491,492,493,493
628,491,494,492,493
630,492,494,490,494
615,494,495,494,494
532,491,494,492,493
438,491,494,492,492
395,491,493,493,495
373,490,493,493,495
379,491,494,493,492
386,491,493,491,492
419,490,493,491,493
472,491,493,492,492
533,491,493,491,493
607,492,493,491,493
630,491,495,492,492
624,490,493,492,495
585,493,495,492,493
486,491,494,493,493
414,490,494,493,493
383,491,494,494,492
376,492,495,493,494
380,490,493,491,492
398,490,494,493,493
440,491,493,492,493
500,491,492,491,494
564,490,492,492,495
626,492,495,491,494
630,490,494,491,495
616,493,496,494,493
545,492,495,493,493
448,491,494,492,493
401,492,494,493,494
374,493,493,493,494
379,491,495,492,494
384,490,493,492,495
409,489,493,493,494
466,490,493,491,492
524,491,492,493,492
601,490,492,491,494
630,492,494,491,492
624,492,493,491,492
592,492,493,491,493
500,492,494,492,492
419,490,494,492,494
384,490,492,492,492
375,493,493,493,493
380,490,494,493,493
392,490,494,493,492
435,491,493,491,493
491,490,494,491,493
555,490,493,493,492
619,491,493,492,494
627,490,492,493,496
619,491,493,493,492
561,492,495,493,494
457,491,493,492,493
405,491,494,493,492
375,491,496,493,492
376,492,494,491,493
385,490,493,493,494
405,492,492,492,493
458,490,493,491,493
516,490,492,492,494
589,489,492,492,494
630,490,493,493,494
627,490,492,491,494
602,490,494,494,493
513,491,493,492,493
426,491,494,492,492
391,492,494,491,493
376,492,492,491,492
381,491,494,492,494
388,490,494,491,492
428,490,493,492,493
484,490,493,493,493
546,490,493,492,493
616,491,492,492,493
631,492,494,489,494
622,490,493,491,493
570,493,493,492,493
469,492,493,493,493
409,490,492,491,492
378,492,493,493,494
374,492,492,491,494
385,491,494,492,492
404,491,495,492,492
451,491,494,492,493
510,491,493,490,493
578,490,493,491,493
626,491,494,492,492
629,490,493,493,494
609,491,493,494,495
527,491,494,493,494
436,492,493,491,493
395,491,495,493,494
374,490,493,491,493
379,492,494,491,492
387,492,493,491,492
420,491,492,492,493
476,490,493,491,493
536,491,494,491,492
610,490,492,492,493
632,491,494,492,493
623,491,494,493,493
578,491,492,492,492
482,491,494,492,494
413,490,493,491,493
379,493,493,490,493
373,490,492,492,494
381,490,493,493,495
397,492,494,490,492
444,490,493,492,494
504,491,492,492,493
572,492,494,492,492
626,492,494,491,493
629,491,492,493,494
617,491,493,491,493
537,491,494,493,493
444,491,493,491,493
397,490,494,493,495
373,490,493,494,493
377,491,492,492,492
387,491,495,491,495
412,489,493,491,493
470,491,493,491,492
527,491,492,490,492
602,491,493,491,492
632,490,492,492,494
624,492,493,490,494
587,489,492,492,493
494,490,493,492,492
417,490,493,492,492
386,490,494,491,493
373,490,493,490,492
381,489,493,492,493
392,492,492,490,492
435,491,492,491,492
