Sensor0,Sensor1,Sensor2,Sensor3,Sensor4

493,491,492,521,491
494,492,492,433,490
494,492,492,7,490
492,491,492,505,492
493,493,493,572,491
492,491,493,622,491
492,491,493,622,491
0,495,491,493,447
490,492,491,492,505
492,493,493,493,572
491,492,491,493,622
491,492,491,493,622
491,493,493,494,610
490,492,493,495,532
492,494,492,492,440
491,493,492,492,398
491,494,492,492,379
491,495,491,491,381
492,495,491,492,389
492,492,493,493,418
492,492,491,492,472
491,493,493,493,530
490,492,492,493,602
490,493,493,494,627
491,494,493,494,619
491,491,492,492,582
492,492,493,493,487
492,495,493,492,417
493,495,491,492,383
493,494,491,492,375
491,494,492,492,383
490,493,492,492,397
492,494,493,494,442
490,492,492,492,497
491,493,492,492,561
491,495,493,492,620
492,493,493,495,624
493,493,491,493,614
490,494,495,493,543
492,494,492,492,448
492,493,491,492,401
490,493,492,492,379
492,493,492,493,379
490,492,491,493,386
491,494,493,492,413
491,494,491,492,464
491,493,492,492,519
490,493,493,493,595
492,492,490,492,627
491,494,492,494,619
490,493,493,495,590
490,492,494,493,501
491,494,493,493,422
491,494,492,492,390
490,493,491,494,377
492,493,491,492,383
492,492,492,492,392
492,492,491,492,432
490,494,491,493,491
490,494,490,494,550
490,494,491,492,616
490,494,493,493,629
492,496,493,492,617
492,496,493,492,562
490,494,493,494,462
491,493,491,493,405
490,494,492,493,376
491,492,491,494,378
490,493,492,493,386
490,493,491,492,409
492,493,492,493,457
491,493,491,492,513
490,493,492,491,586
491,494,491,491,625
492,494,491,492,623
490,494,493,493,603
492,492,493,491,516
491,494,492,493,429
491,493,492,493,394
490,493,493,494,377
490,494,493,492,383
491,492,492,493,394
491,495,491,494,425
490,491,492,492,482
490,492,491,492,542
491,493,489,492,609
491,492,492,492,628
491,493,492,494,618
492,494,491,492,571
491,494,493,493,474
491,493,492,492,412
491,494,492,491,378
490,492,490,492,380
492,493,492,493,386
491,492,491,492,402
491,492,491,494,450
491,493,492,492,505
491,494,491,492,574
489,493,492,494,623
491,493,492,492,626
493,495,493,492,613
492,495,492,492,531
493,494,492,492,438
491,494,493,493,398
490,493,491,492,377
491,495,492,491,379
489,492,492,494,390
490,492,492,494,419
490,493,491,493,472
491,491,492,493,532
491,494,491,493,603
490,496,491,491,627
492,493,491,493,620
492,492,490,492,580
492,496,493,492,487
492,494,492,492,417
491,494,491,493,382
490,492,493,494,378
490,492,493,492,386
491,494,492,493,395
490,493,491,492,443
491,494,492,493,499
491,494,491,492,561
491,492,491,493,620
491,493,491,495,625
491,493,493,494,614
493,495,491,494,545
491,494,491,492,447
491,494,493,492,402
491,494,492,491,379
491,494,491,492,379
492,493,493,493,388
491,492,490,492,413
490,494,491,492,463
490,493,492,493,520
490,492,491,494,596
490,492,492,492,626
491,493,493,492,623
491,492,491,494,588
492,495,492,492,500
491,494,492,492,422
492,492,492,492,389
491,493,494,492,375
490,493,491,491,384
492,493,492,492,393
489,493,493,493,434
490,492,492,493,491
491,493,491,492,551
490,492,491,494,613
491,493,491,492,626
491,493,493,493,614
491,493,491,493,559
491,493,491,493,460
492,494,491,492,406
491,494,494,494,377
490,494,491,492,378
491,494,493,492,388
491,494,492,491,410
491,494,491,492,457
491,493,491,493,514
491,492,491,493,587
490,493,491,494,624
491,493,493,494,622
490,493,493,495,601
490,493,491,492,514
492,492,493,493,428
491,493,491,493,394
491,495,492,491,379
491,494,491,492,382
492,493,491,492,391
492,492,490,492,426
490,493,492,492,481
490,493,491,491,543
489,492,492,494,609
489,494,493,493,628
490,494,493,492,618
490,492,491,494,572
492,495,492,493,471
491,494,492,492,410
492,493,491,492,378
492,492,490,493,377
490,492,491,491,386
492,493,492,494,402
492,493,491,492,450
490,493,492,492,506
490,493,492,493,575
491,494,493,492,623
491,494,493,493,623
492,493,493,493,611
491,493,491,494,526
491,493,492,492,436
491,492,493,493,397
490,492,493,494,377
492,493,490,493,381
490,493,492,494,389
491,489,493,491,420
490,494,490,492,473
490,494,490,492,532
491,493,492,492,603
490,493,491,493,625
491,494,491,492,618
490,493,492,494,577
490,493,493,493,485
491,493,492,492,416
492,493,491,492,383
491,495,491,494,376
490,494,490,491,384
492,493,491,492,397
492,492,491,493,442
491,493,492,492,500
491,493,491,493,564
491,493,491,494,620
490,493,492,492,625
491,494,493,491,613
490,495,493,492,544
492,494,492,493,445
492,494,493,492,400
490,494,493,494,375
493,492,491,493,376
490,492,492,493,386
490,492,491,494,414
492,493,491,492,464
490,493,492,492,522
491,493,492,491,597
491,494,492,493,627
492,495,492,493,621
493,494,494,495,589
493,493,492,493,499
491,493,491,493,419
491,493,491,493,387
490,492,491,495,376
490,493,493,493,384
492,492,493,491,395
490,492,491,493,434
491,493,492,492,492
491,494,491,492,552
492,492,491,492,616
492,492,491,493,627
491,494,492,493,613
490,492,492,491,559
492,493,492,493,457
491,493,492,493,405
490,493,494,492,378
490,492,491,494,377
492,494,491,491,386
489,493,494,492,408
492,493,491,492,457
492,494,492,493,514
491,492,491,492,589
492,494,492,494,626
491,493,492,494,623
491,495,493,492,602
492,495,494,492,513
491,494,492,492,427
490,492,491,494,393
493,494,491,494,377
490,492,491,493,380
491,492,491,493,391
490,492,491,494,426
490,493,491,493,483
490,493,491,492,543
490,493,492,492,610
491,492,491,492,628
492,493,490,492,618
492,494,491,492,571
493,493,492,493,471
491,493,491,492,409
491,494,492,491,380
490,492,491,493,378
490,493,492,493,385
490,494,493,493,404
491,490,491,493,451
491,494,491,493,506
490,493,491,492,578
492,493,489,491,623
492,493,491,493,623
490,492,492,491,612
492,492,492,494,525
492,494,494,493,436
491,493,493,492,398
491,494,494,492,377
491,493,493,491,382
491,494,491,494,390
490,492,490,491,419
492,494,492,493,474
490,493,490,492,533
491,492,490,493,603
490,492,492,494,628
493,494,492,493,621
492,495,493,493,578
492,493,493,493,485
491,494,492,491,416
491,494,491,491,383
492,494,493,493,378
490,492,491,493,383
491,495,492,491,396
490,491,492,493,443
491,492,491,492,499
490,493,492,493,563
491,491,490,492,623
492,494,492,493,623
489,494,491,493,613
493,494,490,492,541
492,493,491,491,446
491,493,491,492,400
491,494,492,491,375
490,493,492,492,379
492,492,493,492,390
491,494,493,492,414
491,494,492,492,466
491,493,492,494,523
490,493,490,491,598
490,493,493,492,626
491,493,493,494,620
490,493,492,494,587
491,493,494,494,499
492,494,493,492,420
491,494,491,492,386
491,495,493,492,378
491,494,491,492,385
492,494,491,491,393
492,492,494,492,436
491,493,491,492,491
490,494,491,493,553
489,491,491,495,616
490,493,492,493,627
490,494,492,492,615
491,494,491,494,555
491,494,492,492,458
491,493,492,494,406
491,493,491,492,378
493,492,491,493,377
491,491,491,493,388
491,494,491,494,408
489,492,490,492,459
491,492,492,493,516
490,493,492,492,589
491,493,492,492,626
491,492,493,494,622
492,492,490,492,599
490,494,494,493,510
492,494,492,493,429
491,493,491,493,392
490,492,492,492,380
491,492,493,493,384
490,490,491,493,391
490,495,492,492,431
491,494,491,492,484
491,494,491,492,544
492,493,490,492,611
490,494,494,494,627
491,492,492,492,618
492,492,493,495,568
490,493,492,493,470
491,494,492,493,409
491,493,492,493,378
490,493,493,491,377
490,491,493,492,386
492,493,490,492,406
492,493,490,492,451
491,493,492,492,508
490,493,492,494,576
489,494,491,491,623
490,493,492,493,625
490,493,493,492,610
491,494,494,491,526
491,494,492,492,436
491,494,491,493,396
490,493,491,491,377
492,492,491,493,380
490,492,491,494,389
491,491,491,494,420
490,493,492,492,476
491,492,492,494,534
491,492,491,492,607
491,495,493,493,629
492,494,491,492,620
493,493,491,495,578
490,494,491,493,484
492,493,491,492,415
490,493,492,493,381
490,492,491,494,378
490,493,493,493,385
492,493,491,492,400
490,494,492,493,444
491,493,492,492,501
491,493,491,492,567
491,493,490,491,623
492,493,492,492,625
491,492,492,494,612
491,495,492,491,538
490,494,492,493,445
491,492,492,492,401
490,494,493,493,377
490,494,493,493,378
490,492,491,492,390
492,493,492,494,412
492,492,491,492,467
491,492,491,493,524
490,492,490,493,596
491,494,492,492,626
490,492,492,493,620
492,492,493,493,587
490,495,493,492,497
491,494,492,492,420
491,494,491,494,386
490,494,490,492,377
490,494,492,491,381
491,492,492,493,393
490,492,492,493,436
491,493,492,492,493
491,494,491,493,555
490,493,491,493,616
491,494,494,492,627
492,495,491,493,615
492,494,491,493,556
493,494,492,492,457
491,494,493,492,404
491,492,492,491,380
492,495,492,494,378
489,493,493,493,388
490,493,493,493,410
490,493,491,492,457
491,492,492,492,517
490,492,492,493,590
492,494,491,493,624
491,492,492,494,621
490,492,492,494,601
492,496,492,494,510
490,493,493,492,428
492,493,493,492,392
491,495,494,492,378
490,495,492,491,383
492,493,492,493,390
492,493,491,492,430
490,492,493,492,484
491,494,491,492,543
490,492,491,494,610
490,493,493,495,628
491,494,491,493,616
491,494,494,493,570
492,494,492,492,469
491,494,492,492,410
491,494,491,492,380
492,494,491,492,378
490,494,492,493,383
490,492,493,491,407
491,490,492,492,450
490,493,491,492,507
490,494,492,493,578
490,493,490,492,622
491,494,492,492,623
489,493,492,492,609
493,495,490,492,523
492,494,492,492,436
491,494,491,491,397
491,495,492,493,375
490,494,491,492,382
490,493,492,493,389
490,493,493,492,421
490,494,492,493,475
491,493,492,492,533
490,492,491,491,606
491,494,492,493,628
491,492,491,493,616
490,492,491,494,575
491,493,493,494,482
492,494,492,491,415
491,494,494,493,382
493,493,491,492,379
491,494,491,491,385
491,494,491,492,400
492,494,491,493,444
490,493,491,492,500
491,493,492,492,567
490,491,492,493,620
490,493,493,494,624
490,494,493,494,614
493,493,491,492,539
491,494,493,493,444
491,493,492,492,401
492,495,490,491,377
493,494,490,492,378
491,493,491,493,388
491,495,492,491,415
490,493,492,493,469
490,493,491,493,525
490,493,493,492,599
490,493,492,492,628
491,493,491,494,619
490,493,491,491,586
492,493,494,493,495
492,494,492,492,417
492,493,492,493,385
490,492,491,494,376
492,493,490,492,383
490,494,493,493,394
492,492,493,491,438
491,494,493,492,494
491,494,492,491,555
491,493,492,494,616
490,492,492,493,624
492,496,493,493,614
491,493,492,495,552
491,494,493,493,454
491,494,493,494,405
490,493,494,492,377
493,493,493,491,380
491,492,492,494,387
492,494,490,491,410
492,494,490,492,459
491,493,491,492,516
490,494,492,492,588
491,492,492,492,627
491,494,492,493,622
490,494,492,493,597
490,494,494,493,510
491,494,492,493,425
491,494,491,491,392
490,493,492,494,379
492,493,491,492,382
492,493,491,492,391
491,492,491,493,432
491,494,491,493,485
491,492,492,492,546
491,492,492,493,613
490,494,492,491,627
492,495,491,491,617
491,495,492,492,568
490,494,493,493,467
492,495,493,493,408
491,494,493,493,376
492,491,492,494,377
489,493,492,494,385
489,492,491,491,406
492,494,492,492,452
491,494,491,492,510
490,494,490,491,580
491,494,490,492,623
492,494,492,494,624
491,495,493,493,606
492,493,493,492,523
491,493,492,493,434
490,493,491,492,395
490,494,493,493,377
490,492,492,494,380
491,494,492,491,388
489,492,492,492,423
491,492,491,492,477
491,492,491,493,535
491,493,491,493,605
490,492,491,491,628
491,493,492,493,618
492,493,491,492,577
490,494,492,492,480
491,494,492,492,414
491,494,492,492,380
490,492,491,491,378
492,493,493,493,385
490,492,491,494,398
491,492,491,493,445
491,493,492,492,502
491,493,491,492,568
490,493,493,493,621
491,493,493,492,626
492,494,492,492,614
492,495,492,492,538
493,495,492,493,443
491,493,491,492,400
491,495,492,491,377
491,492,491,494,379
489,492,492,493,389
490,493,493,493,413
490,493,493,493,468
490,492,491,492,526
491,494,492,493,597
490,494,491,492,629
492,493,491,493,619
491,492,492,492,584
491,495,493,492,496
491,493,492,492,418
491,494,491,493,387
490,493,493,493,378
490,494,492,491,384
491,494,492,493,392
490,491,491,492,438
491,492,492,492,494
490,493,491,493,556
491,491,490,493,617
490,493,492,493,625
491,494,490,493,616
490,493,494,492,551
492,493,494,494,454
491,494,492,493,405
491,494,491,492,379
492,495,491,492,378
492,494,493,492,388
491,492,490,493,411
491,494,492,493,460
490,492,491,493,517
490,492,492,493,590
490,493,494,494,625
491,493,493,492,624
493,493,493,495,595
492,493,492,493,509
491,494,491,492,425
492,494,491,492,390
491,495,494,491,378
490,492,493,492,382
492,494,492,492,393
489,494,493,492,432
490,493,492,492,485
491,493,491,493,545
489,494,490,492,614
490,495,493,491,625
491,492,492,494,616
490,492,492,495,565
491,492,493,493,466
492,495,492,492,410
491,493,492,493,379
490,493,491,493,377
491,494,491,492,387
492,493,491,491,407
493,493,491,492,452
491,492,492,493,510
491,492,491,491,582
491,495,492,495,625
490,494,493,494,624
491,494,493,492,608
491,495,492,494,520
491,494,492,492,434
491,493,491,493,395
492,494,491,492,378
491,492,491,493,381
491,492,491,493,391
491,495,492,494,422
490,492,491,492,478
491,493,492,493,537
490,493,493,493,608
490,494,491,492,628
492,494,491,491,618
489,493,493,495,577
493,493,491,493,478
491,494,492,492,412
491,493,492,494,380
491,492,491,494,377
490,493,491,492,385
491,493,493,492,401
492,492,491,493,446
490,493,492,492,504
490,493,491,492,569
492,493,490,491,622
490,493,493,493,623
490,491,492,491,613
492,493,492,494,534
491,495,493,494,443
491,493,492,492,400
491,493,492,492,375
490,494,493,491,379
490,492,492,491,388
491,494,490,492,415
491,492,491,492,469
491,493,490,492,525
491,492,492,491,601
491,492,493,494,627
493,494,491,493,621
491,495,493,494,585
490,495,493,493,494
491,494,492,492,416
491,494,492,492,386
492,494,492,494,377
490,492,491,493,381
491,492,492,493,393
491,491,491,494,437
491,494,491,492,495
490,492,492,493,558
492,492,490,492,619
491,493,492,491,626
491,493,490,492,615
492,496,491,494,550
491,495,492,492,453
491,494,492,492,404
491,493,492,493,374
490,492,493,494,379
490,493,493,493,388
491,493,493,493,409
491,493,492,493,462
491,493,491,493,517
490,494,490,492,593
492,494,491,494,626
492,493,492,494,621
491,495,492,492,598
491,492,493,495,508
492,494,491,492,423
490,493,492,492,391
490,493,494,493,379
491,492,492,494,382
490,493,491,492,393
492,492,492,493,432
492,493,490,492,485
491,493,491,492,547
490,491,491,494,612
491,494,491,492,626
489,493,493,493,617
491,492,493,493,565
491,495,493,492,465
491,494,492,492,409
491,494,491,492,379
492,493,493,493,378
491,492,491,493,387
491,494,492,493,403
490,491,491,494,453
490,492,492,493,511
490,491,493,492,581
491,493,493,493,625
490,492,491,494,622
492,494,491,491,607
492,495,492,492,521
492,494,494,493,435
491,494,492,492,393
490,493,491,492,379
491,494,492,493,380
490,493,493,492,390
490,493,494,493,423
490,494,491,491,477
490,493,492,492,537
489,492,492,494,610
493,494,492,493,626
492,493,492,494,617
490,492,492,494,575
491,491,492,493,479
492,496,491,494,413
490,494,491,492,382
490,494,493,492,378
491,495,492,491,387
490,494,490,492,402
489,492,492,493,446
491,493,492,493,503
490,493,491,493,568
491,492,491,493,621
489,493,492,494,624
489,493,490,493,612
493,494,494,493,536
491,494,492,493,442
491,494,492,491,400
492,495,491,491,378
492,494,491,493,381
490,494,492,492,387
490,492,493,492,418
491,492,491,494,469
491,493,492,493,526
490,493,493,494,600
490,494,494,493,629
491,493,492,494,621
492,495,492,496,582
490,493,491,492,492
491,495,492,492,417
491,493,491,493,385
491,492,492,492,378
492,493,493,494,383
491,493,491,492,396
489,493,492,492,439
490,493,492,492,495
490,494,492,492,557
490,491,491,491,619
492,492,493,492,627
490,492,490,493,613
491,493,491,494,548
490,493,492,493,453
490,493,492,492,405
490,493,493,493,377
492,493,492,492,381
491,494,491,491,388
491,494,492,491,411
492,494,491,493,462
491,492,491,492,518
490,492,491,493,591
490,494,492,492,625
490,493,492,492,621
490,494,493,493,595
490,494,494,493,506
492,494,491,493,425
491,494,492,493,390
490,494,491,492,378
492,492,490,493,381
492,492,492,493,392
490,494,492,491,434
490,492,492,493,487
491,492,494,493,550
490,492,492,492,614
491,496,492,493,627
492,495,491,494,617
490,493,491,492,564
493,495,494,493,464
491,494,491,492,408
491,492,491,493,375
491,491,492,494,378
489,494,492,494,387
492,493,490,491,407
489,494,491,493,454
490,493,491,492,512
491,494,490,492,582
491,494,491,492,623
491,494,492,492,624
491,492,492,494,608
491,495,492,495,519
491,493,493,492,433
491,493,492,492,395
490,494,493,493,376
491,492,491,491,382
491,493,492,493,390
492,493,489,492,424
491,493,491,492,478
491,494,492,493,536
491,495,491,492,608
491,494,494,493,627
492,493,493,493,621
491,495,494,492,576
491,496,492,492,477
491,494,492,492,413
490,492,492,493,380
492,494,490,492,377
490,494,493,494,384
490,492,492,494,399
489,492,492,493,446
489,492,492,492,504
491,492,491,492,570
490,492,491,494,621
491,494,490,492,624
492,493,490,492,611
493,494,491,492,533
491,494,493,493,441
491,493,491,492,399
491,495,493,495,376
489,493,493,492,381
490,494,492,492,389
490,494,491,494,414
490,494,491,492,471
490,492,492,493,528
490,493,490,492,601
491,493,491,493,626
490,493,492,494,618
489,492,493,492,585
492,495,493,494,491
492,495,492,493,417
490,494,493,492,387
491,495,493,491,377
491,494,491,492,384
489,493,494,493,396
492,493,490,492,439
490,493,491,493,496
490,491,492,493,558
489,488,493,494,617
490,496,492,494,626
491,495,493,492,616
491,494,491,495,550
492,495,491,493,453
490,494,490,492,403
491,493,490,492,377
489,494,492,494,379
490,492,491,491,388
492,492,493,494,411
489,492,492,493,462
490,493,491,493,519
490,493,492,492,594
490,491,491,494,628
491,493,490,493,621
489,494,490,493,593
492,492,491,493,505
492,493,492,493,424
491,492,493,492,392
492,492,492,494,378
492,494,491,493,384
490,493,493,491,394
490,493,493,491,433
491,495,491,493,487
490,494,491,494,549
491,493,492,492,614
490,493,493,495,626
490,493,493,495,617
490,493,493,495,563
491,494,492,493,464
490,492,492,492,407
490,493,491,491,377
491,494,491,492,379
491,490,491,492,386
492,491,491,492,405
491,494,492,492,456
489,493,492,492,510
491,491,494,490,582
489,491,493,494,626
489,495,491,492,624
492,495,492,491,603
490,493,492,492,520
491,494,492,492,431
491,494,492,492,395
491,493,490,493,377
491,493,491,494,381
490,496,491,492,392
489,493,493,494,425
492,493,491,492,480
490,493,492,492,541
491,494,491,491,610
491,493,490,493,626
490,494,491,493,618
490,494,493,492,574
491,493,492,493,475
492,494,492,494,412
490,493,492,494,380
490,493,493,492,376
491,492,492,492,387
491,494,491,494,399
490,495,491,492,449
491,493,491,493,505
491,493,490,492,569
492,494,494,493,625
491,493,493,494,625
493,494,491,493,612
490,494,494,494,534
491,494,493,494,441
491,492,495,493,398
490,493,491,492,380
491,494,492,493,380
492,494,491,492,388
491,492,491,493,415
491,492,491,493,470
491,493,492,491,529
489,493,492,492,603
492,493,492,492,627
491,494,492,492,621
491,494,491,492,584
492,495,491,492,490
492,494,493,493,415
491,493,491,493,385
490,495,492,494,374
489,493,492,494,383
489,493,492,494,396
489,493,493,493,439
491,493,493,494,498
491,491,491,493,559
491,495,492,493,621
493,494,492,494,627
491,492,490,494,613
491,496,493,493,546
490,495,493,492,452
491,495,492,493,402
490,493,494,493,377
489,491,494,492,381
491,492,491,493,386
490,495,492,492,413
490,493,492,493,463
491,494,492,492,519
490,492,491,493,593
490,496,491,493,626
490,498,493,492,622
491,498,494,493,594
490,496,492,493,503
491,497,494,493,424
491,496,493,492,392
492,497,492,491,378
490,495,493,492,382
491,492,491,491,394
490,493,491,493,431
489,488,490,493,488
490,490,492,493,550
490,491,490,492,613
491,493,493,492,628
489,493,492,494,617
492,495,491,491,562
493,494,493,493,463
492,494,492,493,408
491,495,492,494,375
490,494,491,492,380
492,495,492,493,387
490,494,493,493,407
490,494,493,492,456
490,492,491,492,512
490,491,491,494,584
491,494,491,494,627
491,494,491,494,621
491,492,492,494,603
491,492,492,495,518
491,493,492,492,431
492,493,493,493,396
492,492,490,492,378
491,495,492,491,383
491,496,491,492,392
491,496,490,492,425
489,494,490,492,480
490,493,491,492,541
491,490,490,493,607
490,492,493,493,626
489,494,493,493,619
490,492,491,492,571
491,494,494,492,474
492,493,493,492,412
492,495,493,491,379
492,495,492,492,376
491,492,490,493,385
491,492,491,491,402
491,490,492,494,447
491,494,491,492,505
490,494,492,493,571
490,494,494,494,624
492,495,492,492,623
491,493,494,493,611
493,494,495,494,531
491,494,491,492,437
491,493,491,493,397
490,494,490,494,376
490,495,489,492,380
490,494,491,493,389
491,491,490,491,419
491,495,490,492,471
490,494,492,492,530
490,494,491,493,602
489,493,492,492,625
491,494,494,492,621
490,492,493,494,579
490,493,495,493,488
490,493,494,493,417
490,493,494,493,385
492,494,489,492,378
490,494,489,494,383
490,493,488,491,398
492,495,489,492,440
490,493,489,493,498
490,493,490,492,561
490,493,488,494,622
491,495,489,493,626
490,494,492,492,614
490,495,494,494,548
491,493,492,493,450
491,492,494,492,402
492,493,494,495,377
493,493,490,492,378
491,494,491,493,386
491,492,491,493,411
491,495,491,491,462
490,494,492,492,521
490,492,493,492,596
491,494,493,492,627
492,495,491,492,622
491,494,491,492,594
492,492,493,494,501
492,494,495,493,421
490,492,491,493,389
492,493,489,491,377
491,493,491,493,382
491,491,492,492,395
490,495,491,494,432
489,495,489,493,489
490,494,490,493,550
490,492,493,492,614
489,496,491,492,627
491,493,491,494,617
493,493,492,495,559
490,491,492,493,462
492,493,494,492,407
491,492,494,493,375
491,494,493,491,381
492,498,493,493,386
491,496,491,492,409
490,493,491,492,457
491,492,491,492,512
491,495,491,493,585
491,498,493,495,626
491,496,492,494,621
492,495,493,493,607
491,494,492,494,516
491,495,493,493,430
491,492,494,493,395
493,491,492,492,378
494,493,497,494,381
493,490,491,492,393
494,493,489,491,426
492,492,491,492,480
487,493,491,493,541
490,493,488,494,608
491,494,490,493,628
490,493,493,493,619
488,495,493,494,573
490,497,493,494,475
494,494,493,493,413
495,493,493,494,379
493,491,490,493,378
492,488,490,493,385
490,490,491,492,400
489,494,490,493,448
490,497,490,492,507
491,494,493,492,573
492,490,493,493,625
493,494,492,492,625
493,495,492,492,611
492,497,495,496,532
491,497,495,493,440
491,495,494,493,398
491,493,490,494,376
491,493,492,493,380
490,493,493,493,390
492,493,490,493,420
491,495,491,493,472
490,495,492,494,533
491,496,490,493,604
491,498,492,494,627
491,499,493,494,622
490,494,489,494,582
492,494,491,493,487
491,490,490,492,416
491,490,491,492,384
490,491,493,492,377
490,493,492,494,383
489,493,493,491,398
489,492,493,494,442
491,492,491,492,497
491,492,490,493,559
491,491,490,493,620
491,491,491,494,625
490,496,490,494,614
492,497,493,498,546
491,498,495,496,450
492,502,495,495,403
491,499,494,495,378
489,497,488,491,379
488,494,489,491,388
492,488,491,491,413
492,490,492,492,463
491,491,493,492,521
490,490,493,494,595
490,492,494,494,627
491,493,491,495,624
492,493,490,493,593
492,492,492,491,502
491,494,493,492,421
490,494,492,491,390
492,493,492,493,376
491,491,491,492,383
491,492,492,493,391
491,492,491,494,432
489,495,492,493,489
490,494,490,493,551
491,494,486,494,615
487,495,488,493,628
491,494,490,492,617
494,500,491,496,559
492,498,491,494,463
494,495,489,494,407
493,490,489,494,378
496,492,492,494,379
494,496,493,495,386
495,497,491,493,409
492,493,493,492,458
490,489,493,493,514
487,485,492,491,587
489,487,491,489,626
491,497,488,492,622
491,497,492,494,605
492,496,490,495,516
491,497,493,495,430
492,492,492,495,395
492,492,492,494,377
490,495,494,492,384
491,492,490,492,394
492,493,490,493,426
493,496,492,492,482
492,496,492,492,543
492,498,489,493,611
488,495,491,495,628
490,491,491,492,619
493,493,491,494,571
492,489,492,493,474
492,490,492,493,411
490,490,491,492,381
491,492,491,494,379
489,495,490,493,387
488,498,493,492,406
490,496,494,492,450
492,494,497,492,506
495,488,498,493,573
493,489,494,492,621
493,494,488,491,623
487,498,486,495,609
487,495,491,495,530
491,497,491,494,437
491,495,491,494,399
491,499,493,495,377
492,502,492,493,383
491,502,493,492,392
491,498,490,491,419
490,497,492,493,472
489,490,492,493,532
492,492,492,493,604
491,492,494,498,629
489,485,491,495,622
489,490,489,494,579
491,504,490,494,489
491,503,491,494,416
489,495,486,493,385
489,493,488,492,379
492,492,485,492,385
491,488,488,491,396
488,492,495,492,442
490,494,494,493,499
491,497,493,494,562
490,498,496,496,622
490,496,494,494,627
491,493,494,495,613
491,493,494,494,548
493,497,496,493,449
496,500,501,492,404
496,500,497,493,378
492,501,493,493,381
486,493,489,495,387
488,486,483,492,413
493,487,486,493,465
488,492,487,495,522
487,497,491,494,599
491,498,493,497,627
491,492,491,496,623
489,491,493,493,589
492,481,490,492,500
493,482,492,492,423
493,496,494,493,389
490,500,492,492,379
492,500,493,495,387
492,499,490,497,396
492,504,491,496,438
491,502,493,494,491
492,491,495,493,553
491,496,499,493,617
492,503,494,493,629
493,508,492,495,616
490,493,489,497,561
492,505,493,499,462
493,501,491,495,407
490,491,493,492,377
491,488,492,491,379
493,481,491,491,387
493,485,491,490,408
492,494,494,491,458
490,495,496,493,513
490,494,492,494,588
490,502,497,496,627
490,505,493,495,625
491,514,489,495,606
491,508,494,493,514
490,492,494,492,430
492,480,492,490,393
491,475,491,492,375
493,481,490,498,383
493,498,496,500,395
494,507,497,496,428
490,506,497,497,485
486,499,489,494,544
488,499,492,492,613
492,493,492,493,628
492,485,489,493,619
492,497,489,494,571
491,493,490,492,474
493,489,492,493,410
491,491,493,495,381
492,503,497,497,382
494,516,496,496,390
493,521,497,498,406
491,514,496,494,452
490,501,498,495,508
490,498,492,495,574
484,499,485,495,624
485,493,488,493,626
489,483,490,495,613
497,485,489,493,529
493,485,491,494,440
492,484,496,493,400
492,482,493,494,376
489,481,494,494,382
491,497,501,492,392
490,499,491,494,418
487,491,489,494,473
490,489,492,493,533
492,492,488,493,605
491,496,492,495,628
491,494,491,491,621
492,503,493,491,581
493,494,492,492,487
492,494,491,494,416
490,505,491,495,382
491,498,491,492,377
490,494,492,495,384
490,491,493,497,398
489,489,494,493,444
490,495,494,495,500
491,504,491,495,566
489,512,486,495,621
489,507,486,493,623
490,485,493,495,613
493,497,494,497,544
495,499,498,494,448
494,495,496,494,403
490,489,493,495,378
488,487,494,494,382
489,489,492,492,390
491,476,488,495,412
493,482,489,493,466
492,497,488,494,524
491,500,491,495,596
490,498,492,496,626
489,499,495,494,623
492,491,493,493,590
489,492,495,493,500
490,497,498,494,423
494,497,500,493,390
496,502,496,493,380
497,508,491,495,385
489,503,486,491,392
487,499,494,490,437
493,493,492,490,490
492,475,493,489,549
490,477,491,490,615
492,486,490,492,623
490,489,490,492,616
489,496,497,496,559
493,508,498,497,459
493,504,495,495,407
493,494,496,495,379
491,488,492,497,379
489,495,492,495,389
491,493,493,492,409
489,504,492,492,458
488,496,491,494,515
489,489,488,495,586
492,496,488,494,626
489,495,492,494,622
492,490,493,492,600
493,488,496,492,513
492,488,497,492,431
490,500,490,493,396
492,503,492,496,378
490,487,487,495,385
490,489,490,491,393
491,493,492,492,428
489,499,492,493,483
489,501,491,496,543
489,505,495,496,614
490,506,497,497,628
490,495,495,495,617
490,478,492,496,572
486,490,490,493,472
488,495,493,493,411
494,500,499,491,382
496,510,500,492,379
494,500,500,494,385
491,498,496,495,407
491,504,490,498,451
491,508,490,496,509
490,498,492,495,576
489,478,490,494,625
490,482,491,491,624
493,494,494,492,610
489,501,494,492,529
490,501,493,495,437
488,481,482,495,396
488,484,484,494,377
492,501,491,496,383
494,504,494,494,392
492,490,494,493,419
490,477,490,492,475
491,483,493,492,534
492,492,493,492,606
492,497,491,495,629
491,502,492,495,620
492,507,496,494,582
491,500,498,497,487
492,501,498,495,417
490,505,493,496,385
492,493,491,493,380
490,491,490,494,383
489,482,489,491,401
492,482,490,491,445
492,497,491,492,500
492,503,489,495,563
493,494,491,494,623
492,479,487,493,625
491,476,489,492,615
488,492,500,492,543
491,498,499,490,446
491,495,495,491,400
492,487,495,489,377
493,496,496,489,378
491,497,491,492,387
491,498,487,494,411
490,491,490,494,464
490,495,494,492,523
490,496,496,493,598
492,501,496,497,629
491,500,486,494,623
495,497,487,493,591
496,500,493,496,498
493,491,490,494,420
484,484,488,492,386
488,485,488,493,377
491,488,493,492,383
491,480,493,491,393
491,484,495,491,435
491,490,494,491,492
490,488,493,491,551
491,486,491,489,617
492,490,491,491,624
493,502,492,495,614
492,512,497,496,557
491,504,494,495,457
490,489,493,495,406
488,493,495,496,378
488,492,494,494,380
489,498,492,496,387
488,493,489,493,411
487,488,488,496,460
492,483,489,497,518
493,496,491,496,589
491,504,493,497,629
492,489,490,494,624
493,487,497,491,601
494,484,496,491,513
491,492,493,493,429
490,504,493,494,395
491,503,490,494,379
489,495,491,494,383
491,497,491,494,394
490,514,495,497,430
490,514,494,497,486
492,509,492,497,544
494,491,494,494,613
501,486,499,493,630
498,472,496,492,617
492,463,492,486,570
489,493,495,491,471
490,499,494,493,410
494,491,487,495,379
493,491,493,492,380
492,499,496,495,387
489,499,495,494,406
489,498,494,494,451
490,489,488,493,507
489,485,486,494,576
489,490,487,495,624
489,486,489,495,624
489,486,492,494,609
492,486,489,494,527
492,480,487,494,437
491,488,489,494,399
492,499,492,494,380
490,503,495,492,384
491,499,491,490,392
491,500,492,491,420
489,491,491,494,477
491,489,490,490,533
491,482,492,491,603
491,489,491,493,627
490,490,487,493,619
490,500,492,492,579
490,506,493,492,483
491,495,495,495,416
492,508,501,499,387
492,512,497,497,380
489,501,493,494,387
488,502,485,494,398
491,492,489,491,445
490,485,490,490,500
490,470,489,488,564
490,476,489,489,620
492,489,493,488,622
491,489,497,490,613
493,493,495,495,539
491,496,494,495,446
490,487,492,496,401
490,481,491,495,376
491,490,485,492,382
489,500,495,493,390
492,497,495,492,415
490,488,493,493,467
488,489,492,493,524
489,485,490,494,597
491,486,493,496,629
497,497,494,493,623
495,490,492,493,586
492,490,492,495,498
489,493,493,494,421
491,498,492,494,388
490,493,488,494,377
491,492,486,494,387
490,502,491,495,397
492,509,494,496,439
489,496,492,495,493
487,481,494,492,555
488,488,499,494,620
493,489,495,493,626
493,485,490,492,616
492,491,496,492,558
492,493,503,493,455
485,490,495,494,406
487,496,490,496,376
491,495,495,495,379
491,489,492,494,388
493,486,492,494,408
496,495,491,492,459
492,499,491,492,518
489,500,494,493,590
487,497,487,493,628
490,501,487,495,625
489,505,488,497,599
490,499,487,495,512
491,481,494,492,426
492,480,496,492,391
491,478,492,493,377
495,484,494,494,384
496,483,490,491,392
495,486,487,491,430
493,485,488,492,484
493,491,494,492,546
494,498,491,494,613
495,490,491,493,627
490,490,495,492,615
488,489,492,492,572
492,496,490,494,468
493,494,492,494,409
492,493,491,494,379
490,488,483,493,376
489,498,489,493,388
489,492,493,495,407
490,493,489,491,450
487,488,486,493,509
489,493,489,495,579
490,493,492,493,623
491,503,495,493,625
493,507,493,495,610
491,505,495,496,528
493,507,499,499,439
493,507,499,496,401
490,506,497,496,381
491,504,494,492,384
490,494,488,492,389
491,500,493,493,420
489,495,490,491,474
490,481,488,489,533
491,489,493,489,606
491,491,495,485,626
492,478,494,484,616
491,485,492,486,576
493,484,493,486,479
491,493,492,488,411
493,490,497,494,382
491,481,490,503,375
487,479,490,496,383
485,498,498,497,400
486,515,491,494,445
490,515,491,496,502
494,499,490,494,568
496,490,488,493,622
492,475,492,493,623
488,487,498,493,612
490,490,499,491,542
493,489,501,496,447
493,492,499,497,402
491,498,483,496,378
490,491,487,493,382
493,488,490,494,389
492,492,492,493,416
489,492,491,494,467
481,496,492,492,523
482,486,497,494,598
489,499,496,498,629
491,491,491,495,622
494,479,495,496,588
497,484,495,495,498
494,499,493,492,421
489,499,486,491,387
490,482,489,493,377
491,481,490,491,382
492,487,491,490,395
491,489,490,492,436
490,493,491,492,493
490,490,484,495,555
488,489,485,495,617
490,492,489,492,627
492,492,490,496,615
490,500,495,493,556
492,493,494,494,456
484,496,490,494,406
488,500,494,492,379
491,493,495,494,380
492,497,493,494,390
492,509,499,496,411
493,494,499,496,461
491,487,495,495,517
491,490,490,490,591
493,494,494,491,627
493,489,491,491,620
490,474,486,492,596
488,486,483,495,511
492,487,487,495,426
490,486,488,494,392
490,495,490,493,380
488,497,490,491,385
492,498,494,492,393
494,487,497,492,430
492,487,493,492,485
491,495,493,492,547
490,501,490,495,612
491,492,488,494,627
489,501,490,495,619
490,507,493,495,570
493,493,497,494,469
493,481,495,493,409
493,476,496,489,380
493,490,492,491,377
492,493,492,493,386
489,505,498,493,404
487,502,491,492,452
488,501,485,491,508
491,498,488,491,578
490,495,490,493,624
491,493,492,494,623
489,491,492,494,609
489,488,491,497,525
491,492,495,494,436
492,491,499,493,396
490,493,501,494,377
489,493,489,493,383
491,496,489,494,391
488,492,493,494,422
488,506,493,495,478
489,512,497,493,536
490,484,491,492,606
491,454,488,490,626
492,475,488,489,620
491,492,492,493,575
490,488,490,492,481
492,490,489,493,413
490,493,487,493,382
492,493,489,493,380
490,496,492,495,387
492,491,492,493,402
493,488,489,494,445
491,483,488,493,501
489,486,487,494,566
489,492,490,492,623
491,501,497,494,627
490,510,501,494,615
492,503,499,494,539
491,491,493,492,445
494,505,491,494,401
496,496,492,493,374
492,478,492,492,378
490,470,491,493,386
485,484,489,494,412
486,490,489,494,470
489,491,489,495,525
490,492,490,492,602
489,493,487,490,628
492,493,487,490,621
492,485,487,490,585
490,485,496,493,495
493,488,492,494,418
491,489,492,497,386
490,489,491,497,378
491,489,495,493,385
492,489,495,492,395
491,489,494,491,436
488,481,482,492,494
488,491,485,492,558
489,501,492,493,619
489,497,494,496,625
490,494,494,493,618
491,487,492,494,552
490,489,491,492,454
490,491,495,493,406
490,492,496,493,378
493,495,496,491,378
492,486,492,491,388
491,480,493,492,408
489,482,487,492,460
490,486,488,492,516
490,490,489,494,589
489,498,493,492,628
490,497,493,493,622
491,496,491,492,599
490,496,491,492,511
491,497,492,493,428
492,502,492,494,392
490,495,492,493,377
492,485,491,491,383
490,483,489,494,392
488,484,489,494,430
491,485,492,492,486
492,484,493,491,545
492,484,492,492,614
492,487,493,494,626
490,491,487,493,618
492,491,488,492,568
493,496,492,492,468
491,501,494,493,411
491,500,494,494,380
492,500,490,494,378
490,488,491,493,386
491,482,491,490,406
491,490,491,492,450
491,486,490,493,510
491,491,491,494,578
491,493,489,493,623
489,493,490,494,623
489,494,491,495,606
491,497,490,493,524
491,495,492,494,435
493,490,491,494,396
492,491,493,493,380
492,485,490,492,382
493,483,491,492,390
492,489,495,493,423
491,489,492,492,477
491,488,492,493,536
490,490,492,495,607
490,488,492,493,629
492,491,492,492,618
491,487,494,492,579
492,490,494,494,480
492,491,494,492,414
492,489,492,494,383
494,492,491,494,377
491,494,491,492,384
490,494,488,492,402
492,497,492,493,444
490,495,492,493,502
491,490,492,492,568
491,487,492,494,620
491,484,493,492,625
491,486,492,494,612
494,488,491,493,535
492,491,490,493,444
491,490,490,494,399
492,490,491,492,378
492,491,491,494,382
491,491,490,493,388
491,493,492,493,417
491,491,491,492,469
491,489,492,491,525
490,488,493,494,601
492,490,490,493,629
491,492,492,495,619
490,488,495,495,584
490,486,494,495,495
492,488,492,492,419
492,494,495,492,388
491,491,492,494,378
492,490,492,492,384
492,493,491,493,396
493,495,489,493,439
491,494,491,494,495
491,493,491,494,559
493,493,491,495,618
492,494,494,494,627
492,489,493,493,617
492,488,493,492,554
492,488,492,493,454
491,492,491,494,405
491,492,490,492,377
493,492,491,494,378
491,491,490,494,388
491,490,490,492,412
493,489,492,494,461
492,490,492,493,517
490,491,493,493,593
490,491,494,493,628
491,492,491,493,621
490,491,493,492,597
492,491,494,494,508
491,491,492,493,425
492,491,493,494,391
491,489,492,494,378
490,491,492,492,383
490,491,492,493,393
492,489,491,492,433
491,491,489,492,486
491,491,490,493,548
492,491,491,492,614
493,490,493,492,628
491,490,492,494,616
492,492,493,493,565
491,492,495,494,465
492,492,493,495,409
492,491,494,493,377
493,491,491,492,380
492,493,493,495,387
489,492,491,492,407
492,489,491,492,453
491,490,492,493,510
492,492,492,491,581
491,490,492,495,626
493,491,490,494,625
491,493,493,493,607
491,492,496,493,523
490,490,492,492,433
490,491,489,492,396
491,490,491,495,377
492,490,492,493,381
491,488,492,492,389
490,489,489,494,422
489,491,490,493,479
491,491,492,493,536
489,490,490,492,609
492,491,492,493,628
491,493,493,492,620
491,493,495,493,577
491,489,495,493,479
491,492,492,493,412
490,490,491,493,382
493,493,490,492,377
491,491,491,493,383
490,490,492,491,403
491,493,492,494,444
491,492,492,493,504
490,490,492,493,570
490,492,493,494,623
492,493,492,493,626
490,491,493,495,613
493,494,491,495,536
490,493,493,493,443
491,492,492,493,398
490,491,492,494,374
490,491,493,494,381
489,491,490,493,389
490,492,493,493,414
490,490,491,493,470
490,491,492,491,527
491,492,492,491,601
491,493,491,494,628
490,492,491,494,619
491,493,492,492,586
490,491,492,494,493
491,491,492,492,417
490,492,493,493,386
492,491,491,492,378
491,493,492,494,383
490,491,491,492,398
492,492,490,492,439
491,492,491,492,495
491,492,493,493,559
490,490,491,494,617
491,492,492,493,627
490,493,494,494,617
491,493,494,494,552
492,495,494,494,453
492,493,494,494,404
491,492,492,492,378
492,492,493,494,379
491,491,491,493,387
491,492,491,493,408
490,491,492,494,461
491,491,493,493,518
490,491,492,493,593
492,492,495,494,629
491,492,493,492,623
492,493,494,491,598
493,493,494,495,507
490,493,491,493,424
490,493,492,493,390
491,491,491,494,377
490,490,492,494,383
490,493,492,494,394
493,493,490,493,432
490,493,492,492,487
490,491,493,492,550
491,489,492,492,616
491,494,490,493,626
491,493,491,493,616
490,493,494,493,564
491,492,492,493,465
490,493,492,494,409
490,492,493,494,377
489,492,493,493,379
490,493,492,494,386
490,493,492,492,408
490,493,493,494,455
491,493,492,493,512
491,491,491,494,581
492,492,492,494,627
491,493,493,495,623
490,490,492,493,607
492,493,494,494,521
491,493,493,494,432
491,492,493,492,396
490,492,491,493,376
490,494,491,492,381
489,492,492,492,391
491,493,491,492,424
491,491,491,492,479
490,492,491,492,537
490,491,492,492,609
491,491,492,494,627
491,492,491,493,619
490,494,494,493,576
490,494,492,493,479
491,493,492,493,411
490,492,492,492,383
492,494,493,493,377
490,492,492,494,384
490,491,492,494,400
490,490,491,494,445
490,492,492,493,504
489,491,493,493,570
491,491,490,493,623
491,494,492,492,626
491,494,491,492,613
492,494,491,494,534
490,493,493,494,442
491,492,492,493,400
491,492,492,494,376
489,492,493,494,381
489,492,493,493,390
490,494,494,492,415
490,492,492,493,471
490,490,491,493,527
490,495,491,492,604
492,495,492,494,628
492,493,492,493,620
491,495,493,493,586
491,492,492,494,493
491,494,492,493,417
490,493,493,495,387
489,492,493,494,379
490,494,493,493,383
490,492,493,492,399
490,492,492,493,439
490,493,491,492,496
490,493,491,493,558
490,491,489,493,617
491,494,491,491,625
489,492,493,492,615
492,493,494,493,550
491,494,494,493,452
490,493,493,492,405
491,493,492,491,378
491,492,492,493,379
491,492,491,492,388
490,494,494,493,408
489,490,493,494,462
490,492,491,494,518
490,493,492,492,593
492,494,494,493,629
490,491,492,494,620
492,495,491,492,596
491,494,492,492,506
491,493,492,492,424
490,493,493,492,389
490,492,491,492,379
491,494,493,492,382
489,493,493,493,392
488,492,493,493,432
489,492,491,492,486
489,493,490,492,549
489,491,491,494,615
491,492,491,493,626
491,490,492,493,616
490,493,490,493,564
491,493,492,492,465
490,492,493,494,409
489,494,489,492,378
489,494,492,492,379
490,494,493,492,388
491,493,491,491,408
489,492,492,493,455
490,493,492,492,511
490,493,491,493,580
490,492,491,494,624
489,493,493,494,624
489,493,490,493,607
492,495,495,493,521
492,494,491,493,431
490,495,492,492,395
491,495,492,492,380
491,493,491,493,382
490,494,492,493,389
489,492,493,492,426
490,492,491,493,478
489,493,491,493,538
489,493,492,494,609
490,494,494,493,629
491,493,492,494,620
491,494,493,495,573
490,492,492,492,478
492,495,492,492,413
491,494,491,493,381
492,493,493,492,379
491,493,493,494,384
490,493,491,492,401
488,494,492,492,446
489,493,492,492,505
489,494,491,492,568
489,492,492,491,622
491,493,493,493,626
490,492,491,493,610
491,493,492,494,532
490,494,492,494,443
490,494,491,493,399
489,494,493,494,377
491,493,491,491,382
490,494,492,491,389
491,495,491,492,417
491,494,491,493,470
490,493,492,492,527
489,493,491,493,600
491,495,492,493,626
490,493,494,493,620
489,495,494,494,583
490,494,493,493,490
491,494,491,493,417
490,495,492,494,384
489,495,491,491,376
491,493,491,493,383
491,493,491,493,395
490,494,492,491,441
489,491,492,492,497
490,493,491,493,559
489,494,492,493,619
490,496,492,491,625
491,495,493,494,614
489,492,492,492,548
491,495,492,494,451
490,493,491,492,402
490,493,491,494,374
489,494,492,494,379
489,492,492,494,388
491,494,490,492,411
489,495,491,493,463
490,493,490,492,519
490,494,490,492,594
491,494,491,493,626
491,493,493,492,622
490,491,492,494,596
491,499,492,495,504
491,493,493,493,422
490,494,493,493,391
490,495,493,492,377
491,493,491,491,384
491,493,493,493,392
492,494,490,492,432
491,493,491,492,487
490,493,491,493,548
490,495,492,492,613
490,495,493,493,627
491,494,493,493,618
491,495,494,492,564
491,496,493,492,463
491,494,493,492,409
491,494,492,494,376
492,495,491,493,379
490,494,493,493,385
490,493,492,494,403
489,492,492,494,455
489,493,491,493,513
490,492,492,492,582
489,493,491,493,624
491,495,491,492,623
491,494,490,492,605
492,495,491,493,519
490,495,493,493,431
491,494,492,492,395
491,495,492,494,376
489,494,492,492,381
489,494,493,492,391
489,495,491,493,423
490,495,493,493,478
489,493,492,494,541
491,495,492,493,610
493,494,491,493,626
490,493,492,494,617
490,493,492,492,577
492,495,493,493,476
490,495,493,492,414
490,494,493,492,381
490,495,493,491,378
490,495,491,492,386
489,493,492,493,402
492,493,492,493,447
489,491,491,493,504
491,494,490,493,569
490,494,491,493,621
489,494,491,492,625
491,495,492,492,612
491,494,491,494,534
491,495,493,492,442
491,495,492,492,399
491,495,491,492,377
488,494,493,493,380
490,493,492,492,390
490,492,491,494,416
489,493,491,493,470
490,494,492,493,528
489,493,494,492,603
490,492,491,494,627
491,495,491,494,620
489,494,490,492,583
493,495,492,493,490
492,496,492,493,417
491,494,492,492,387
491,493,491,494,376
491,493,491,493,385
490,494,492,493,397
490,494,492,490,440
490,495,493,492,496
490,494,492,492,559
492,495,494,494,620
491,494,492,495,624
490,493,492,495,613
490,493,494,495,547
490,494,493,493,452
491,495,492,493,402
490,493,493,492,378
490,495,491,492,380
491,495,490,492,387
491,495,490,492,410
490,493,492,493,463
489,493,492,492,518
491,493,492,492,594
489,493,492,493,627
490,495,492,492,622
491,495,492,492,592
490,493,492,493,506
492,496,493,493,421
490,494,492,493,391
492,494,490,492,377
491,493,491,493,382
490,494,492,492,395
491,493,492,495,434
491,495,493,494,489
491,494,492,494,551
490,494,494,495,615
490,495,494,494,627
492,494,494,493,619
492,494,492,494,562
491,496,494,493,464
491,495,493,493,409
492,495,491,492,379
492,494,492,493,380
491,494,494,493,387
491,494,492,491,408
491,494,492,494,455
490,493,492,492,511
490,494,493,493,583
490,492,492,493,625
491,494,491,492,623
490,495,493,493,606
493,495,493,494,520
493,496,493,494,432
492,495,493,493,396
491,496,492,495,377
491,495,491,493,382
490,495,494,493,393
491,495,494,492,427
491,494,492,492,479
490,494,492,493,542
491,495,490,495,608
490,494,491,493,626
491,493,492,494,618
490,493,491,495,573
492,495,494,493,476
491,494,493,492,415
490,493,494,493,380
492,495,491,493,379
491,495,491,492,387
491,493,492,491,404
491,495,491,494,446
490,494,492,494,506
491,494,492,493,572
491,495,492,494,623
491,494,493,495,625
490,494,493,495,611
492,496,492,493,533
491,495,493,493,440
491,495,494,493,399
490,495,494,493,379
490,495,493,492,382
491,496,493,494,388
490,495,491,492,419
490,494,492,493,471
491,494,492,493,529
490,493,492,494,602
491,492,492,494,628
490,494,493,493,620
491,493,494,494,584
491,494,492,494,489
491,496,494,494,419
491,494,492,493,387
493,495,492,492,378
491,496,493,492,383
490,493,492,492,399
492,496,494,495,440
490,494,493,493,498
490,493,493,493,561
490,495,492,494,618
491,495,492,494,627
490,495,494,494,615
492,496,492,493,547
492,495,494,493,452
491,494,492,492,403
491,496,493,494,376
490,493,491,492,381
492,495,493,493,388
490,494,495,494,413
490,494,493,493,464
490,494,492,492,520
490,494,492,495,597
491,494,491,493,628
490,495,491,494,620
490,493,493,495,592
491,493,492,495,504
491,495,493,493,424
491,494,493,493,391
492,494,491,492,378
491,495,493,492,384
491,493,493,493,395
492,496,490,493,434
490,494,492,492,489
490,493,493,493,551
491,492,493,494,613
490,494,493,494,627
490,494,494,494,618
491,494,491,493,562
492,495,495,493,462
491,494,492,492,408
492,496,490,492,378
492,496,492,493,378
491,493,492,493,386
491,491,494,492,408
491,493,491,494,456
490,495,491,493,512
490,494,494,494,584
490,495,495,493,627
491,495,492,493,622
490,494,493,492,606
492,496,493,495,518
491,495,492,493,430
492,494,493,493,394
491,494,492,493,377
490,496,491,492,383
489,494,493,494,392
491,494,490,493,427
490,494,492,493,480
490,494,493,493,542
491,495,492,494,608
489,494,491,492,627
491,494,494,492,621
490,493,491,494,572
491,494,493,494,475
491,495,493,494,413
490,493,493,494,381
492,494,490,492,379
490,495,492,494,385
490,495,492,491,404
492,495,492,493,449
491,495,492,493,506
491,495,493,493,573
491,494,493,495,625
492,495,492,494,625
491,495,493,493,611
490,495,495,493,533
491,495,494,493,439
491,494,493,492,398
491,494,493,494,376
492,494,490,492,379
491,494,491,493,388
490,493,491,494,416
491,494,492,492,470
490,493,492,493,531
491,493,494,494,604
489,492,493,492,628
491,495,493,492,621
491,496,492,492,583
492,494,493,494,488
492,495,493,493,416
490,494,494,494,383
491,493,491,494,376
490,493,494,494,384
489,493,493,492,398
492,494,494,493,442
490,493,492,492,498
490,494,493,491,562
491,496,491,492,620
491,495,491,494,625
491,495,492,493,612
491,494,492,492,548
492,496,494,494,449
491,493,495,493,402
491,496,494,493,376
489,495,492,493,379
490,496,492,491,388
489,493,492,495,414
491,494,491,492,465
491,494,492,492,519
491,493,493,493,594
491,493,493,492,628
492,495,494,494,621
490,492,492,494,593
490,496,494,493,503
492,496,494,492,422
490,495,495,492,391
490,492,493,494,378
492,495,491,493,384
489,495,491,494,392
491,493,490,494,432
490,493,491,493,488
490,493,491,493,552
492,493,493,494,615
492,492,492,494,628
491,495,492,492,618
492,496,492,492,563
492,496,492,493,461
491,494,493,492,407
491,494,493,493,378
490,493,492,495,378
490,493,492,494,387
490,494,493,494,406
489,494,493,493,456
491,493,491,493,513
491,495,492,495,584
491,494,492,494,626
492,494,492,494,622
492,494,492,495,604
491,492,494,492,520
491,492,494,493,430
491,496,492,493,395
490,495,493,495,379
491,495,493,492,383
491,495,493,492,391
490,493,492,492,427
491,495,492,493,480
490,492,492,493,541
491,492,490,493,609
491,494,492,494,626
489,495,492,492,620
489,494,494,495,573
493,494,494,493,475
490,494,494,493,413
491,495,491,492,382
491,496,492,492,378
491,494,493,494,386
490,493,492,492,401
490,496,493,492,448
490,493,492,493,507
491,493,492,494,571
489,493,493,494,623
491,492,492,492,626
491,494,493,494,608
490,496,492,492,532
492,495,492,492,439
491,495,492,492,398
491,494,494,493,378
491,493,491,493,380
492,495,491,494,389
489,493,494,494,419
490,494,493,493,470
490,493,492,492,529
489,492,491,492,606
492,494,493,494,626
491,494,491,494,619
491,492,491,494,580
491,493,492,493,488
491,494,493,493,418
490,494,492,494,384
489,492,491,492,377
491,495,493,493,386
490,494,492,492,399
490,495,491,491,440
490,493,492,492,497
491,492,491,492,561
489,493,494,493,619
490,492,492,494,624
489,494,492,494,613
490,494,493,492,546
492,494,493,494,450
491,494,492,493,401
490,495,493,492,379
490,494,491,491,380
491,493,491,492,386
490,494,494,493,411
491,493,492,492,465
490,493,492,493,520
489,493,493,494,597
490,494,494,494,628
491,495,493,492,622
491,493,493,495,591
491,495,491,493,500
491,494,492,493,422
490,494,492,493,389
492,493,491,492,377
490,492,492,491,385
490,494,492,494,393
489,492,490,492,434
489,494,493,493,490
489,493,493,493,553
490,494,492,492,617
489,493,493,493,627
491,492,492,492,617
491,495,491,493,559
490,494,491,493,461
491,494,491,493,407
490,493,491,492,379
492,493,493,493,380
491,492,490,493,388
490,495,492,491,409
491,494,491,492,457
490,494,492,492,513
491,493,491,493,584
489,494,490,493,624
490,494,491,492,623
489,494,494,494,602
489,494,494,494,517
491,495,493,493,430
491,493,492,493,395
491,495,492,494,376
489,493,491,492,381
491,493,492,493,392
490,492,490,494,425
490,493,492,492,482
489,492,492,493,542
492,494,491,493,610
490,495,493,493,629
491,495,492,493,620
492,494,492,492,570
489,493,494,493,475
491,493,493,493,412
491,492,494,493,378
491,492,491,494,376
489,493,491,494,387
489,494,491,494,402
491,493,490,493,450
490,493,492,493,506
490,493,491,492,575
491,494,491,491,624
491,492,492,493,624
491,493,492,492,612
490,493,491,495,530
491,495,493,492,438
490,494,492,493,397
490,493,493,494,378
490,494,492,491,379
490,493,492,492,390
491,495,493,495,419
490,493,491,492,471
490,491,492,493,530
491,493,492,495,602
491,496,491,492,627
490,494,493,494,621
491,492,490,493,581
491,495,493,493,487
491,494,493,493,417
490,494,491,492,386
492,495,493,493,377
489,492,491,494,384
491,494,491,492,394
490,492,491,494,440
490,493,491,493,498
490,492,492,493,561
491,493,490,493,621
490,494,491,494,624
489,494,491,492,614
492,495,492,492,545
492,493,493,493,450
491,493,493,493,402
490,492,492,494,380
491,495,490,494,379
490,494,493,492,387
490,494,494,493,413
489,494,491,493,463
490,493,491,492,520
490,493,492,494,596
491,493,490,493,625
490,492,492,494,619
492,492,493,494,591
495,493,493,494,503
498,495,493,494,422
496,494,492,493,389
494,495,493,492,378
489,495,491,492,385
484,494,491,492,395
486,493,492,492,434
488,493,491,493,491
489,494,491,494,551
490,494,492,495,614
489,494,494,494,628
490,494,494,494,615
493,493,494,493,562
492,493,493,494,461
492,494,492,492,407
492,494,492,492,378
492,494,491,493,378
491,494,492,491,385
490,493,492,492,410
492,493,492,493,456
490,493,491,492,512
490,494,492,492,585
489,493,493,492,626
491,493,492,493,620
492,494,491,493,602
489,493,494,492,514
492,494,492,492,428
491,493,491,493,394
490,492,491,491,379
491,494,494,493,381
489,492,491,493,391
490,494,492,492,426
490,495,492,492,480
490,493,492,492,542
490,493,492,495,610
491,494,492,494,628
490,495,491,494,617
492,493,491,493,570
491,494,492,494,474
491,494,492,492,412
491,493,492,494,379
491,495,491,493,379
490,494,492,492,386
490,494,492,491,404
489,494,493,492,450
490,492,492,493,505
490,492,492,492,574
491,493,492,494,624
491,493,491,493,622
490,492,492,494,608
490,492,492,495,529
492,495,491,493,437
490,494,492,493,398
491,493,493,492,378
490,494,493,491,381
491,495,492,492,390
491,495,492,494,418
490,493,491,492,472
490,492,493,493,531
490,492,490,493,602
490,492,492,494,626
489,492,494,494,621
492,493,491,494,580
490,496,493,493,487
491,493,492,493,417
490,495,491,492,385
491,495,493,492,378
491,493,491,492,385
490,493,493,493,396
491,493,491,492,443
489,492,491,492,498
490,492,492,493,560
489,493,493,496,619
490,493,491,493,625
491,495,492,491,615
490,492,492,494,546
491,494,493,492,448
491,494,492,492,402
491,495,491,493,377
489,493,492,493,379
490,493,492,492,389
491,492,490,495,411
490,492,491,493,464
490,493,491,494,520
489,492,490,492,597
489,494,493,491,625
489,492,492,492,623
492,493,490,491,592
492,495,491,493,500
491,495,492,493,422
491,493,492,492,390
491,493,491,493,375
491,494,491,492,383
490,493,492,493,394
489,493,494,493,434
490,493,493,493,490
490,493,491,492,552
491,495,493,495,614
490,493,491,493,627
492,493,491,494,615
491,493,492,493,559
491,495,493,493,461
491,493,491,493,407
491,494,492,494,377
489,492,492,493,380
490,495,493,492,388
490,494,493,493,407
490,492,492,492,458
490,493,492,493,513
490,493,491,492,588
491,492,491,493,625
491,493,491,493,621
490,492,492,494,605
491,495,492,493,514
490,494,493,493,429
491,493,492,493,395
490,494,493,492,379
490,495,492,492,383
491,491,493,494,392
491,494,491,491,426
489,493,492,493,482
490,492,490,493,541
490,492,490,493,607
490,492,492,493,628
491,493,493,493,619
490,493,491,493,570
491,495,494,493,474
490,494,491,493,412
491,494,492,492,381
489,492,492,494,379
491,493,490,493,386
490,494,491,494,402
490,491,491,494,450
490,492,491,492,506
490,493,493,494,574
490,494,491,492,624
491,494,493,492,623
490,492,492,493,613
491,495,490,493,530
492,493,491,493,437
491,495,492,493,399
490,494,491,491,378
491,494,493,491,382
489,492,492,494,389
490,492,492,494,419
490,493,492,493,471
490,493,491,493,534
490,494,492,493,602
490,492,491,492,629
491,493,490,492,620
491,492,490,493,580
493,494,494,494,487
490,492,493,493,416
491,494,491,492,382
490,493,492,494,379
489,494,492,493,386
490,494,493,493,398
490,495,493,494,442
491,493,491,493,500
491,493,492,494,563
492,494,492,494,622
491,493,491,494,624
491,493,493,495,613
492,496,492,492,544
491,494,493,493,448
491,494,493,493,403
490,494,492,493,379
491,495,491,492,380
492,494,493,494,389
490,493,490,493,412
490,494,492,492,465
490,493,492,494,522
490,492,492,494,596
489,493,492,493,627
490,492,492,493,623
491,493,494,494,588
490,496,492,493,500
491,493,492,493,422
492,494,491,493,389
492,495,490,492,377
491,495,493,492,383
490,493,493,491,394
492,495,493,493,436
490,493,492,493,492
490,493,491,492,552
491,494,492,495,615
489,492,491,493,626
490,494,493,493,614
491,492,491,495,559
491,494,491,494,459
491,495,491,494,407
491,494,491,494,378
489,493,490,494,378
491,495,493,492,389
491,493,493,491,411
491,491,492,492,458
491,494,491,493,514
490,493,491,494,589
491,495,494,494,624
490,493,494,495,623
490,493,493,495,602
490,493,493,493,515
491,494,492,493,429
491,494,492,492,395
490,493,492,494,380
491,495,491,493,383
492,493,491,493,392
492,493,491,494,429
490,494,492,494,483
490,493,492,492,543
491,493,493,494,610
489,493,493,493,628
491,494,492,491,618
492,493,492,495,569
492,493,493,493,471
491,494,491,493,411
491,494,491,494,379
492,492,491,494,378
490,493,492,491,387
492,494,493,495,404
489,494,491,493,451
491,494,492,493,508
490,494,494,493,578
492,495,492,493,624
493,494,491,493,625
491,495,494,494,609
492,492,493,492,529
492,493,492,494,437
490,493,492,494,398
490,493,493,494,378
491,492,491,494,380
491,495,492,492,389
490,492,491,491,421
491,493,492,493,475
490,491,491,492,533
491,493,490,492,606
490,494,492,495,626
489,493,491,492,620
490,494,493,495,579
489,494,494,494,486
491,494,492,493,417
491,493,492,494,384
492,494,492,494,378
489,493,491,493,384
491,493,492,493,396
491,492,492,494,443
490,492,491,493,500
490,494,491,493,563
489,493,493,494,621
490,492,491,492,626
491,494,491,492,615
492,495,492,493,545
492,494,493,494,447
491,494,492,493,402
491,495,492,493,379
491,493,492,494,380
490,494,494,494,390
490,493,493,494,414
491,492,491,493,466
490,493,492,493,523
489,493,491,493,599
493,494,492,494,627
491,493,491,494,621
491,492,492,492,591
491,492,493,494,499
491,495,492,493,420
491,494,492,493,388
490,494,494,493,378
490,494,492,492,386
491,494,491,494,392
489,492,491,492,436
491,493,492,493,492
491,493,491,494,551
491,492,491,494,615
490,492,492,494,627
491,493,491,493,617
490,493,495,493,558
491,492,492,493,459
491,495,492,493,407
491,494,491,492,380
492,494,493,493,379
490,492,492,494,386
491,494,492,491,407
490,494,492,494,457
490,493,492,494,515
490,493,493,495,588
492,493,491,492,627
491,495,494,495,623
489,494,491,492,601
493,493,492,493,513
492,493,493,494,429
491,493,491,493,394
491,495,492,492,376
489,493,493,493,383
492,493,492,493,392
490,494,494,492,429
490,494,492,493,483
490,492,492,493,542
489,491,490,492,611
489,494,492,492,626
491,494,492,494,616
490,493,492,495,569
490,493,493,494,473
492,494,492,493,410
490,494,492,494,379
491,495,492,491,380
491,495,491,492,386
492,493,491,492,405
492,492,493,492,450
491,492,493,492,508
490,493,491,494,575
490,493,491,495,623
490,494,493,493,625
490,495,493,492,611
490,495,492,495,526
491,495,493,493,438
491,493,492,494,396
492,494,491,492,376
491,493,492,494,380
490,492,492,494,391
491,495,491,494,419
489,493,491,493,475
491,493,492,493,533
491,495,493,493,606
491,495,492,493,628
492,494,493,494,620
492,493,491,493,580
490,494,493,493,484
492,494,492,493,414
490,493,492,494,382
490,492,492,493,379
492,492,493,492,386
490,492,492,494,397
491,495,491,491,444
491,493,492,493,499
491,492,491,493,563
492,493,490,492,622
491,495,491,494,623
490,493,491,492,614
492,493,493,495,541
491,494,493,493,447
491,493,493,492,403
491,492,491,494,376
491,495,491,492,380
489,493,493,492,388
492,492,490,493,412
492,493,492,494,466
491,493,492,493,524
492,494,493,495,597
491,493,492,494,628
491,494,492,492,622
492,494,492,492,590
491,494,494,492,500
491,493,492,494,420
492,493,491,493,388
490,493,491,493,376
490,492,491,494,383
490,493,492,493,394
489,492,494,493,436
490,492,491,492,492
490,493,492,492,552
490,491,491,492,619
492,494,491,491,626
491,493,491,493,615
491,492,492,493,559
491,493,493,493,457
491,493,492,492,407
491,494,493,494,377
490,493,493,493,380
490,493,494,492,388
490,491,492,494,411
492,495,491,494,457
490,493,491,493,516
491,492,490,493,587
491,492,490,494,624
490,492,491,492,624
492,493,493,495,600
493,494,491,494,514
491,493,493,493,430
491,493,493,492,394
491,495,492,492,380
491,494,491,494,383
490,493,491,493,391
492,494,493,492,430
490,492,490,494,483
490,492,491,495,543
490,493,494,496,611
492,491,491,494,629
492,495,492,495,617
489,493,492,493,572
492,494,491,493,472
491,492,491,493,411
491,494,493,493,381
490,493,491,493,376
491,495,491,492,386
490,493,492,495,404
490,494,493,492,450
490,493,492,493,507
491,492,491,492,578
491,494,492,494,623
489,493,491,494,623
491,492,491,493,608
492,492,491,494,526
490,493,492,494,439
491,494,491,492,397
490,493,493,492,378
492,492,493,492,384
491,494,492,492,391
491,496,492,492,421
491,494,492,493,474
491,493,491,492,532
490,494,494,493,605
491,492,492,495,627
490,493,496,494,619
490,494,494,495,579
492,493,490,494,485
490,494,491,493,414
491,493,493,492,386
491,494,491,492,378
492,493,491,492,384
491,493,494,493,399
491,492,491,493,444
490,494,493,493,500
490,493,492,494,564
489,492,492,494,620
490,493,493,493,625
491,494,492,494,612
490,495,492,492,543
490,493,493,494,447
491,494,491,493,402
492,493,491,493,376
492,493,492,494,382
491,494,492,494,389
490,493,490,492,414
491,493,493,493,467
490,493,491,493,524
491,494,491,491,598
491,492,492,494,627
491,493,491,494,621
491,495,493,495,587
491,493,493,494,498
491,494,493,493,419
491,493,492,492,389
492,494,493,494,379
490,492,492,493,382
491,494,492,492,396
491,494,491,492,437
492,493,491,492,491
491,493,491,494,555
492,494,494,494,616
491,491,493,492,627
492,493,493,494,617
490,494,493,494,558
491,495,493,493,457
491,494,492,493,406
491,493,492,492,376
490,493,492,492,378
491,493,491,493,387
491,492,490,493,407
490,492,491,492,460
490,493,492,493,516
490,493,490,492,588
489,493,493,493,628
491,493,493,492,624
491,494,490,492,602
490,493,494,494,513
491,494,491,493,429
491,494,491,493,392
490,492,492,495,378
489,493,492,493,384
490,494,493,492,393
490,493,491,494,428
491,494,491,493,483
491,493,492,493,545
492,494,491,493,612
492,493,491,493,626
491,493,492,492,619
492,494,491,495,569
490,494,492,492,471
491,493,493,493,411
490,493,493,493,381
490,494,492,491,380
490,493,493,494,387
492,493,491,494,404
490,492,493,493,451
490,493,491,493,508
490,493,491,494,575
490,492,492,492,624
492,493,493,493,625
491,492,491,494,610
490,493,495,492,526
491,494,493,493,438
491,495,491,492,397
492,494,491,494,377
490,494,492,494,381
491,495,492,491,390
489,491,493,495,421
490,492,492,494,475
491,494,492,493,534
491,492,492,494,608
490,495,491,494,627
490,493,491,493,619
492,492,492,494,579
492,493,492,494,484
492,494,493,493,416
491,493,494,494,383
492,494,491,492,378
490,494,493,492,386
491,494,492,492,400
491,493,492,491,442
490,491,492,493,500
491,494,492,494,566
491,494,492,494,619
490,492,493,495,624
490,492,493,495,613
489,493,493,494,541
492,494,492,493,447
491,493,492,493,401
491,493,492,491,379
492,494,491,492,381
492,493,491,493,388
491,493,493,492,415
490,492,491,494,466
490,493,491,492,524
490,493,493,494,597
489,493,493,493,628
491,494,492,492,618
490,492,493,492,590
492,495,493,494,497
491,494,493,493,419
491,492,492,494,387
490,492,491,494,377
490,494,490,492,385
490,493,493,493,395
493,493,491,492,438
490,493,492,493,493
490,493,492,493,556
492,493,492,492,618
492,493,493,494,627
491,492,491,495,615
491,495,492,492,554
491,493,493,495,457
491,493,492,494,407
491,493,492,494,377
492,493,491,492,381
491,494,492,494,386
490,494,491,491,410
492,493,491,493,459
491,492,491,493,516
491,493,492,492,589
490,492,492,495,628
491,493,490,493,622
490,494,494,493,599
490,493,495,493,513
491,493,494,493,429
491,493,493,492,393
491,493,492,495,378
492,493,490,493,381
491,492,492,494,391
491,491,492,494,429
490,491,491,493,484
490,493,491,494,545
489,493,490,493,611
491,494,493,491,627
491,494,492,492,619
491,492,491,492,571
493,493,493,493,469
491,493,493,494,411
491,494,494,494,376
491,493,493,495,378
490,493,493,494,387
490,493,493,492,403
492,492,493,493,452
490,492,493,493,508
491,493,490,492,578
493,495,492,493,624
492,493,492,494,623
492,494,492,492,607
490,492,492,492,527
492,494,492,493,435
491,493,493,493,397
490,494,494,493,379
490,494,492,492,383
491,493,493,493,389
492,494,491,492,422
490,493,492,493,475
490,493,492,493,532
490,492,492,493,605
489,492,493,492,627
492,493,493,493,620
490,491,492,494,578
491,495,493,493,482
491,495,493,493,416
491,494,492,493,384
490,491,495,492,376
491,493,492,492,387
491,494,492,495,397
490,492,493,494,444
490,492,493,494,501
490,491,491,493,564
492,496,493,492,624
490,494,494,494,626
493,493,491,493,612
493,493,491,493,540
491,493,492,493,447
491,493,492,492,402
491,494,493,495,376
489,492,491,493,381
491,493,493,492,390
491,495,493,492,415
491,494,492,492,468
491,494,492,493,524
491,493,491,493,599
490,492,491,493,625
491,493,492,494,619
490,492,493,495,586
489,493,492,493,498
492,494,492,493,419
492,493,492,494,389
491,495,493,492,378
492,494,491,492,384
491,492,493,493,395
490,494,493,493,435
491,493,492,493,494
490,492,491,494,554
490,493,492,494,615
490,493,493,493,627
491,494,494,492,617
491,493,492,494,557
492,494,493,494,456
491,492,492,493,405
492,494,491,492,377
492,493,492,495,378
490,491,492,492,389
492,493,492,494,408
492,493,492,493,460
490,493,492,492,516
491,495,493,493,591
491,495,494,493,625
490,493,494,493,622
492,493,495,493,599
490,492,492,494,510
491,494,492,493,426
490,493,492,494,392
489,493,492,492,381
490,492,493,492,381
491,493,491,493,394
490,494,492,491,431
491,494,491,493,484
490,493,492,493,545
491,492,493,493,612
490,492,491,494,625
491,494,491,492,618
490,492,493,494,568
491,494,493,493,469
491,494,493,493,411
491,492,492,492,380
491,495,492,494,378
489,493,491,493,387
492,493,492,493,404
492,492,492,494,451
491,494,492,493,510
491,493,493,495,579
492,492,492,494,626
491,494,492,493,625
492,495,492,491,610
491,495,493,495,524
491,493,492,493,435
492,493,493,493,397
491,492,490,493,377
491,492,492,493,381
490,493,493,494,390
489,491,494,495,423
491,490,492,493,475
490,494,490,493,534
490,494,491,492,608
491,494,491,492,628
491,492,491,493,618
491,494,494,493,580
492,492,491,493,482
491,494,492,494,415
490,493,492,494,383
490,493,493,493,378
490,494,493,494,385
490,492,491,492,401
491,492,492,494,444
491,493,492,493,503
491,492,491,493,564
491,492,491,494,620
491,494,492,492,624
490,492,493,493,612
493,493,496,494,541
491,494,492,494,446
491,494,493,492,401
491,494,492,492,379
491,492,493,494,380
493,493,491,492,389
490,494,494,493,413
490,492,491,493,466
491,493,491,493,523
490,494,493,493,600
492,493,493,493,628
491,493,492,494,618
492,494,492,492,589
492,495,492,492,497
492,494,491,493,419
491,493,493,493,387
492,493,491,493,378
491,495,492,494,383
489,493,493,494,395
490,493,493,493,436
490,493,492,493,494
491,493,492,492,557
490,492,492,494,619
492,493,491,493,627
492,492,491,493,614
492,493,491,493,554
491,493,493,493,458
491,493,491,493,405
491,494,491,492,379
489,493,493,493,381
491,492,494,491,388
491,494,493,491,411
489,493,491,494,460
491,493,491,494,515
491,494,493,494,590
492,492,491,494,625
492,492,493,494,622
490,494,492,492,602
493,493,493,494,512
492,494,492,493,426
490,494,493,493,394
492,495,493,492,380
492,495,491,492,382
490,493,493,493,393
492,492,493,492,430
490,493,492,493,484
490,492,491,494,545
490,492,492,494,610
489,494,493,493,627
491,492,492,494,619
491,495,493,494,566
490,493,494,493,470
491,493,492,492,411
492,493,491,492,378
493,493,494,492,380
491,492,492,494,386
491,494,491,491,403
489,493,494,494,453
490,492,491,493,508
490,493,494,493,577
490,492,492,493,627
492,494,493,494,623
490,493,492,494,608
492,493,491,494,524
491,493,491,493,436
491,495,493,492,398
489,493,493,495,379
492,494,492,492,382
491,494,494,492,392
491,495,493,492,423
491,493,492,492,475
490,493,492,494,534
489,493,490,493,606
490,494,492,492,626
490,492,493,495,618
490,491,492,495,577
491,494,493,493,483
492,494,493,494,415
491,493,492,493,381
491,494,493,492,379
492,493,490,493,386
492,493,491,493,399
492,494,493,493,445
490,492,491,493,503
490,493,491,494,565
489,492,493,495,621
490,493,493,493,626
491,494,492,494,610
491,492,493,493,541
491,493,492,494,445
491,492,493,493,400
491,491,493,493,378
492,490,492,494,380
491,493,491,493,390
492,495,492,494,415
490,493,491,492,468
491,493,493,493,526
490,494,493,494,602
491,496,492,492,628
492,494,492,494,621
492,493,491,493,587
491,494,495,493,495
491,493,493,493,419
491,493,492,494,388
490,491,492,491,378
492,491,492,493,385
490,493,491,493,394
491,495,493,492,438
491,494,492,493,494
491,493,491,492,556
490,493,493,493,616
490,491,492,492,627
491,493,492,494,615
490,492,494,494,553
490,494,493,494,456
491,494,492,493,406
491,493,492,494,376
491,495,492,492,379
490,493,493,493,387
491,493,491,493,410
491,492,490,493,460
491,492,491,493,517
491,493,492,495,590
489,493,491,493,626
491,494,493,492,623
491,495,493,493,602
492,495,493,493,512
491,494,493,493,426
492,494,491,493,393
490,494,490,493,376
490,492,493,494,382
489,493,493,494,393
489,492,490,492,430
491,493,493,493,485
490,492,491,494,548
492,495,492,492,613
492,494,491,493,627
492,493,491,494,616
491,492,490,492,569
491,495,493,494,468
491,494,492,492,410
490,494,493,493,378
490,494,494,492,380
491,495,492,492,387
490,493,492,494,406
492,494,492,493,452
490,493,491,493,508
492,492,491,493,576
490,490,490,495,624
490,490,492,492,623
493,492,496,492,609
492,489,494,493,525
491,496,492,493,435
491,495,491,492,398
492,496,491,492,376
490,494,492,493,380
491,493,492,492,392
492,492,491,494,420
491,493,492,493,475
491,494,493,495,536
491,494,493,494,607
492,493,492,494,628
492,494,493,494,618
490,493,490,491,578
493,495,492,493,482
492,493,492,492,415
491,492,493,492,383
491,491,492,493,376
492,494,491,492,385
490,495,493,492,399
489,494,493,492,445
490,492,493,493,500
491,490,493,492,566
491,491,492,495,622
490,493,491,493,623
491,492,491,494,610
490,494,491,495,538
490,495,491,492,445
492,494,493,493,400
491,492,491,492,379
490,495,491,491,380
492,494,491,491,389
491,492,491,492,415
492,491,493,493,467
491,493,491,493,524
491,491,492,492,597
490,491,493,493,626
490,492,494,493,621
491,491,495,493,584
491,494,492,492,496
491,496,493,493,418
491,493,491,492,386
493,493,491,492,376
491,494,492,494,383
490,494,491,492,397
489,492,493,494,438
491,492,491,492,494
490,493,493,492,557
491,493,493,493,618
492,494,492,494,626
491,495,491,493,613
491,495,494,493,553
491,494,492,492,454
491,494,492,493,403
490,493,493,494,376
489,492,492,493,380
492,492,491,492,388
491,494,491,493,409
490,494,491,492,461
491,493,492,492,517
491,493,492,492,590
492,493,493,492,627
491,492,492,494,623
492,494,491,494,596
490,493,494,494,509
491,494,493,493,428
490,493,493,493,391
491,492,492,491,379
491,492,495,494,383
492,493,491,493,392
492,493,491,494,429
491,492,492,493,485
491,494,492,493,546
491,494,493,492,613
492,493,493,493,629
491,494,492,492,618
492,495,492,492,569
492,494,493,493,469
491,493,493,493,409
491,493,491,493,378
490,494,492,493,377
490,492,492,494,385
489,493,492,494,404
489,492,493,493,454
491,493,491,492,509
490,492,491,494,577
491,494,491,491,625
492,494,491,492,622
492,493,491,493,607
490,495,493,492,522
491,494,492,493,434
491,494,492,493,396
490,493,492,494,377
490,493,494,492,382
490,493,492,493,390
490,494,491,491,423
489,493,493,493,478
490,491,491,493,536
491,493,490,493,605
491,493,492,494,626
490,493,492,493,620
492,493,493,495,577
491,493,492,494,482
491,492,493,493,415
491,494,492,492,383
491,495,492,492,378
490,493,493,493,385
491,492,491,492,401
490,493,493,494,445
490,491,492,493,501
490,492,493,494,565
490,492,492,493,623
491,495,492,492,626
490,494,492,495,614
492,495,491,492,539
492,495,492,492,444
491,494,492,492,401
490,494,493,494,377
491,492,491,492,380
492,493,493,494,390
490,493,493,493,415
490,494,492,492,467
490,493,492,493,525
490,492,491,495,601
491,494,490,493,626
490,494,491,494,620
491,492,492,494,584
491,493,492,494,495
491,493,492,493,421
491,493,492,493,387
492,493,491,492,379
490,494,492,492,385
492,494,491,493,396
493,494,491,492,437
490,492,492,493,495
491,493,492,493,556
491,492,492,496,617
490,493,493,494,626
490,493,493,494,615
490,491,491,494,552
491,494,492,492,453
491,493,492,492,404
491,493,492,492,379
492,493,491,492,378
491,493,490,492,386
490,493,493,492,413
491,492,491,493,459
490,493,492,492,517
489,491,494,493,592
490,492,492,492,626
491,495,491,492,620
489,493,493,492,599
493,493,495,493,508
490,493,492,493,427
491,494,491,493,391
491,493,491,494,377
489,494,491,493,384
489,493,493,493,392
492,492,491,492,432
490,493,492,493,486
491,492,492,492,547
492,493,490,494,612
489,492,491,493,626
491,494,492,491,618
490,493,493,495,566
490,492,493,494,468
492,492,494,493,410
490,492,492,493,377
491,492,492,492,381
491,494,492,493,385
489,495,490,491,406
492,492,491,492,453
491,493,492,492,508
492,495,493,493,581
490,492,492,495,625
492,493,492,493,624
490,493,494,491,609
490,495,492,492,524
491,494,493,493,433
490,493,491,492,397
492,493,493,494,377
491,492,492,494,381
490,492,492,494,391
490,491,491,494,422
491,493,492,492,478
490,493,492,492,536
491,492,492,492,608
490,494,492,492,628
492,493,490,492,618
492,493,491,492,576
492,494,494,493,481
492,493,492,492,413
491,494,492,494,380
489,492,492,494,377
490,493,493,493,386
491,494,492,494,398
491,492,492,492,446
491,493,491,492,502
491,493,491,493,567
492,493,492,493,623
491,493,492,494,623
492,495,492,492,612
489,492,493,492,538
492,494,493,493,442
491,493,494,493,401
491,493,493,491,380
490,494,492,494,379
490,494,491,492,390
490,493,492,493,414
491,491,491,493,468
490,493,492,493,526
490,492,492,493,598
489,491,492,492,627
490,491,493,492,623
491,493,490,493,583
491,496,492,492,495
491,495,492,493,420
491,494,491,492,387
490,493,495,493,376
491,490,492,491,386
492,494,491,493,393
489,493,493,494,438
490,493,492,492,495
491,493,491,492,554
490,494,492,492,620
490,493,491,493,625
492,493,491,493,614
492,494,491,493,552
492,493,492,492,455
491,494,493,493,404
490,492,491,492,380
493,493,492,493,380
491,494,493,492,388
491,494,493,492,412
491,494,491,492,459
490,493,492,494,518
492,493,491,493,592
491,494,491,494,624
491,493,492,494,621
490,492,492,494,596
490,492,491,492,508
492,493,492,493,426
492,493,490,492,392
491,495,493,492,378
492,494,491,492,384
492,493,490,493,392
490,493,493,494,429
490,491,491,493,486
491,492,492,492,545
489,492,493,494,612
489,493,494,493,628
490,492,492,494,615
492,495,493,492,565
490,493,492,492,466
491,493,492,492,410
491,492,492,493,377
492,491,491,493,378
490,492,490,491,387
492,493,492,496,405
493,493,491,492,453
490,493,492,493,510
491,495,492,493,581
492,495,492,492,623
490,494,492,493,622
492,492,493,492,608
490,492,491,494,521
491,494,492,493,434
491,493,492,493,397
490,494,490,492,379
490,494,493,492,381
491,492,491,491,392
491,495,492,491,423
491,493,491,492,478
490,492,491,493,536
490,493,490,493,606
491,492,493,492,629
490,492,492,494,618
490,495,493,494,576
490,494,494,493,481
491,493,492,492,413
491,493,492,491,383
491,492,492,493,377
490,493,490,492,384
491,492,493,493,399
491,492,491,493,445
491,494,491,492,502
490,492,492,494,569
492,492,490,493,623
491,494,493,491,625
491,494,492,492,613
491,494,491,494,535
490,494,492,492,443
491,494,493,493,400
492,493,491,492,375
492,493,492,494,379
490,492,492,494,389
492,492,490,491,415
490,493,492,492,468
491,492,492,492,527
492,495,492,492,601
493,495,492,492,627
493,493,491,493,619
492,494,493,492,584
492,492,493,494,495
491,494,492,493,417
491,493,492,493,386
490,492,493,494,378
490,493,492,493,382
491,492,492,491,396
491,491,492,493,437
492,493,491,492,494
491,493,491,493,555
491,491,490,493,617
492,493,491,491,624
490,492,493,492,615
493,493,493,493,552
491,495,493,493,453
491,493,494,492,404
491,493,492,494,375
491,495,491,492,379
490,494,493,493,387
491,493,490,493,409
491,492,492,493,460
490,492,492,494,517
490,492,493,493,593
493,493,494,493,628
491,493,493,494,622
493,495,491,491,598
492,495,492,492,508
491,492,494,493,426
490,494,490,493,391
492,493,491,492,379
491,494,492,493,383
489,493,492,493,391
489,492,493,493,431
490,493,491,492,486
491,493,492,492,547
489,491,492,494,616
492,492,491,492,626
491,492,491,493,616
491,492,491,493,568
491,494,492,492,465
491,493,491,492,410
491,493,492,493,378
490,493,493,492,379
491,494,492,491,386
491,493,493,492,407
490,490,492,493,453
491,493,492,493,509
490,492,490,493,578
491,492,490,493,623
490,493,493,494,622
489,493,491,494,608
493,494,494,493,522
492,493,492,494,434
491,494,492,492,397
492,494,492,491,379
492,493,491,492,382
490,493,492,493,389
490,492,492,491,423
491,492,491,493,477
491,492,492,494,536
491,493,493,494,606
490,493,492,493,627
491,494,491,491,616
489,493,492,492,577
493,493,491,492,480
492,493,492,492,412
491,493,492,493,380
491,491,493,492,380
492,493,492,494,384
492,493,491,492,401
489,493,492,492,446
491,493,492,492,503
490,493,491,492,566
490,491,491,492,622
491,493,493,492,625
491,491,491,494,611
491,491,492,494,535
491,492,493,493,444
491,495,491,493,401
491,493,494,492,376
492,492,493,491,382
492,495,490,492,390
493,495,490,491,416
492,493,491,493,468
490,493,490,493,526
491,495,492,492,602
491,492,492,494,628
490,493,493,493,622
491,494,493,493,585
490,495,493,492,494
492,494,492,492,418
491,494,492,493,385
490,494,491,492,378
492,492,491,493,383
491,492,492,493,393
490,494,491,492,441
491,492,491,492,495
491,493,490,493,559
489,493,492,493,619
491,494,492,491,625
491,494,491,494,614
489,492,490,492,551
492,494,493,493,453
491,492,492,492,403
491,490,492,494,376
490,492,493,493,379
492,493,491,492,389
490,493,493,493,409
490,493,492,492,463
490,492,492,492,519
491,492,490,491,592
492,494,490,493,625
491,493,493,493,623
490,492,492,495,598
492,495,492,494,507
491,492,493,493,424
491,494,492,492,391
490,495,494,493,377
490,492,491,491,384
492,493,492,493,391
492,493,490,492,431
491,493,490,492,486
491,494,491,494,546
492,494,492,493,612
490,494,492,493,626
492,493,493,492,618
491,494,493,492,567
491,494,491,492,466
491,494,492,493,407
490,493,491,492,378
490,493,492,492,376
490,492,492,494,386
489,492,491,494,404
490,492,492,492,453
490,493,492,493,510
491,492,492,492,581
491,491,490,493,623
491,493,491,492,623
492,492,492,492,607
493,494,490,493,520
491,494,492,493,434
491,493,491,491,396
492,495,492,494,376
490,493,492,493,383
490,494,492,492,391
490,495,491,494,421
490,493,492,492,479
491,494,492,494,537
492,493,491,494,607
492,493,491,494,626
491,493,492,494,619
492,492,492,495,575
490,494,490,492,479
492,494,492,493,413
491,494,492,492,383
491,495,492,491,379
492,494,490,491,385
