Sensor0,Sensor1,Sensor2,Sensor3,Sensor4

495,493,488,495,490
495,493,487,494,489
495,493,486,495,488
495,493,486,494,488
495,493,486,494,489
495,493,487,494,489
495,493,488,494,489
495,493,489,494,490
495,493,489,494,491
495,493,490,494,490
495,493,489,494,490
495,493,489,494,490
495,493,488,494,489
495,493,487,494,490
495,493,487,494,489
495,493,487,494,489
495,493,487,494,489
495,493,487,495,490
495,493,488,494,490
495,494,489,493,490
495,491,489,494,490
495,492,489,494,489
495,492,489,494,489
495,494,489,494,489
495,493,489,495,489
495,493,488,495,490
495,493,487,494,491
495,493,487,494,491
495,493,486,495,490
495,493,486,494,489
495,493,487,494,489
495,493,488,494,490
495,493,488,494,490
495,493,489,494,490
495,493,489,494,489
495,493,489,494,489
495,492,489,494,490
495,494,488,494,489
495,493,488,494,489
495,493,487,494,490
495,492,486,494,489
495,493,486,494,489
495,493,487,494,489
495,493,488,494,489
495,493,488,494,489
495,493,489,494,489
495,493,489,494,489
495,493,489,494,490
495,493,489,494,490
495,493,488,494,490
495,493,488,494,490
495,493,487,494,490
495,493,486,494,490
495,492,486,494,490
495,493,486,494,490
495,493,487,494,489
495,493,488,494,489
495,493,488,494,489
495,493,489,494,489
495,493,489,494,489
495,493,489,494,490
495,493,489,494,489
495,493,488,494,490
495,494,488,494,489
495,491,486,494,490
495,493,486,494,490
495,493,486,494,489
495,493,486,494,490
495,492,487,494,490
495,493,488,494,490
495,493,488,494,489
495,492,489,494,489
495,493,489,494,489
495,493,489,494,490
495,493,488,494,490
495,493,488,494,490
495,493,487,494,490
495,493,487,494,490
495,493,486,494,489
495,493,486,494,489
495,493,487,494,489
495,493,488,494,489
495,493,488,494,489
495,493,489,494,488
495,493,489,494,489
495,493,489,494,489
495,493,489,494,490
495,493,489,494,490
495,494,488,494,489
495,493,487,494,490
495,492,487,494,490
495,493,486,494,490
495,491,486,494,491
496,494,487,493,490
495,493,488,494,490
495,493,489,494,490
495,493,489,494,490
495,493,489,494,490
495,493,489,494,489
495,494,489,494,489
495,493,488,494,489
495,493,487,494,489
495,493,487,495,490
495,493,486,494,490
495,493,486,494,490
495,493,487,494,490
495,493,487,494,490
495,493,488,495,490
495,493,489,494,490
495,493,489,494,489
495,493,489,494,490
495,493,489,494,490
495,493,488,494,489
495,493,488,494,489
495,493,487,494,490
495,493,487,494,489
495,493,487,495,489
495,493,487,494,490
495,493,487,494,490
495,493,488,494,490
495,493,489,494,490
495,493,489,494,489
495,493,490,494,489
495,494,489,495,488
496,494,489,494,488
495,493,488,494,488
495,493,488,494,489
495,493,487,494,489
495,493,486,494,490
495,494,487,494,492
495,492,487,494,491
495,493,487,494,490
495,493,488,494,490
495,493,489,493,490
495,493,489,493,490
495,493,489,494,490
495,493,489,494,490
495,493,488,494,489
495,493,488,494,490
495,493,487,494,490
495,493,486,494,490
495,493,486,494,489
495,493,486,494,490
495,494,487,494,490
495,493,487,494,489
495,493,488,494,490
495,493,489,494,490
495,493,489,494,490
495,492,489,494,490
495,492,489,494,490
495,495,488,494,490
495,493,487,494,489
495,493,487,494,490
495,494,486,494,490
495,492,486,495,490
495,492,486,494,490
495,494,487,494,489
495,493,488,494,489
495,493,489,494,490
495,493,489,494,490
495,493,489,494,490
495,493,489,494,490
495,493,488,494,489
495,493,488,495,488
495,493,487,495,488
495,493,487,495,489
495,493,486,494,490
495,493,486,494,491
495,493,487,494,492
495,493,488,494,491
495,493,488,494,490
495,493,489,494,490
495,493,489,494,490
495,493,489,494,490
495,493,489,494,490
495,493,488,494,490
495,493,488,494,490
495,493,487,494,490
495,493,486,494,490
495,493,486,494,489
495,493,486,494,490
495,493,487,494,490
495,492,488,494,490
495,493,489,494,490
495,493,489,494,489
495,493,489,494,490
495,493,489,494,490
495,493,488,494,490
495,493,488,494,490
495,493,487,494,490
495,493,486,494,489
495,493,486,494,488
495,493,486,494,488
495,493,487,494,489
495,492,487,494,489
495,492,488,495,490
495,491,488,494,492
495,493,489,494,491
495,493,489,494,489
495,494,489,494,490
495,494,489,495,490
495,493,488,495,490
495,492,487,494,490
496,493,486,494,489
495,493,486,494,490
495,493,486,494,490
495,493,487,494,490
495,492,487,495,490
495,492,488,494,490
495,492,489,494,490
496,494,489,493,490
495,493,489,493,490
495,493,489,494,490
495,493,488,494,490
495,493,487,494,490
495,493,487,494,490
495,493,486,494,490
495,493,486,494,489
495,494,487,494,490
495,493,487,494,490
495,492,488,494,489
495,493,489,494,490
495,493,489,493,490
495,493,489,493,490
495,493,489,494,489
495,493,488,494,489
495,493,488,494,488
495,493,487,494,488
495,493,486,494,488
495,493,486,494,489
495,492,486,494,490
495,493,487,494,490
495,493,488,494,490
495,493,488,495,490
495,492,489,495,489
495,493,489,494,490
495,493,489,494,490
495,492,489,494,489
495,493,488,494,490
495,493,487,494,491
495,493,487,494,492
495,493,486,494,491
495,493,486,494,490
495,492,486,495,490
495,493,487,494,491
495,493,488,494,490
495,493,489,494,490
495,493,489,494,490
495,493,489,494,490
495,494,489,493,490
495,493,489,494,490
495,493,488,494,490
495,492,487,494,490
495,493,486,494,490
495,493,486,494,490
495,492,486,494,490
495,492,487,494,490
495,494,488,494,490
495,493,488,494,489
495,494,489,494,490
495,492,489,494,490
495,493,489,494,490
497,493,489,494,490
498,494,488,494,490
499,492,487,494,490
499,493,487,494,490
498,494,487,494,490
495,493,486,494,490
491,493,486,495,489
493,492,487,495,490
494,494,488,494,490
494,494,489,494,490
495,493,489,494,491
495,493,489,494,490
495,493,489,494,490
495,494,489,494,490
495,494,488,495,491
495,493,488,494,490
495,493,487,494,490
495,493,487,494,490
495,493,487,494,490
495,494,487,494,490
495,493,488,494,490
495,493,489,494,490
495,493,489,494,490
495,493,490,494,490
495,493,490,494,490
495,493,489,494,490
495,492,488,494,490
495,493,488,494,490
495,493,487,494,489
495,493,486,494,490
495,493,486,494,490
495,493,486,494,490
495,492,487,494,489
495,492,488,494,488
495,493,489,493,487
495,493,489,493,488
495,493,490,494,490
495,493,489,494,490
495,493,489,495,490
495,493,488,494,491
495,492,487,494,491
495,492,486,494,491
495,492,486,494,491
495,493,486,494,491
495,494,487,494,491
495,494,487,494,490
495,493,488,494,490
495,492,489,495,490
495,493,489,494,490
495,493,489,494,490
495,494,489,494,490
495,493,488,494,490
495,493,488,494,490
495,493,487,494,490
495,493,486,494,490
495,493,486,494,490
495,492,486,494,490
495,493,487,494,490
495,495,488,494,490
495,493,489,494,490
495,493,489,494,490
495,493,489,494,490
495,493,489,494,490
495,493,489,494,490
495,493,488,494,490
495,493,487,494,490
495,491,486,494,490
495,493,486,494,490
495,493,486,494,490
495,493,487,494,489
495,493,487,494,490
495,493,488,494,490
495,493,489,494,490
495,493,489,494,490
495,493,489,494,490
495,494,489,494,489
495,495,489,494,489
495,492,488,494,488
495,493,487,494,487
495,493,487,494,488
495,493,486,495,489
495,493,486,494,490
495,493,487,494,490
495,493,488,494,491
495,493,488,494,491
495,493,489,494,490
495,492,489,494,490
495,493,489,494,490
495,493,489,494,491
495,493,488,494,490
495,493,487,494,490
495,493,487,493,490
495,493,486,494,489
495,493,486,494,490
495,493,486,494,490
495,493,487,494,490
495,492,488,494,490
495,493,489,494,490
495,493,489,494,490
495,493,489,494,490
495,493,489,494,490
495,493,488,494,490
495,493,488,494,490
495,493,487,494,490
495,493,486,494,490
495,493,486,494,490
495,493,486,494,490
495,493,487,494,490
495,493,488,494,489
495,493,488,494,490
495,493,489,494,489
495,493,489,494,489
495,493,489,494,489
495,493,489,494,490
495,492,488,494,490
495,492,487,494,490
495,492,487,494,491
495,492,486,494,491
496,493,486,494,490
495,494,487,494,491
495,492,487,494,490
495,491,488,494,490
495,493,488,494,489
495,493,489,494,490
495,493,489,494,490
495,494,489,494,489
495,493,488,494,489
495,493,488,494,489
495,493,487,494,489
495,493,486,494,490
495,493,486,494,491
495,493,486,494,492
495,493,487,494,490
495,493,488,494,490
495,493,488,494,490
495,494,489,494,490
495,492,489,495,490
495,493,489,494,490
495,493,489,494,490
496,493,488,494,490
495,492,488,494,489
495,493,487,494,489
495,493,486,494,490
495,493,486,494,490
495,493,487,494,490
495,493,487,494,490
495,493,488,494,490
495,493,489,494,490
495,493,489,494,489
495,493,489,494,489
495,493,489,494,490
495,493,489,494,489
495,493,488,494,489
495,493,487,494,490
495,493,487,494,490
495,493,486,494,490
495,493,486,494,490
495,493,487,494,490
495,493,488,494,490
495,493,488,494,491
495,493,489,494,491
495,493,490,494,490
495,493,489,494,490
495,493,489,494,490
495,493,489,494,490
495,493,488,494,490
495,493,487,494,490
495,493,487,494,490
495,493,486,494,490
495,493,487,494,490
495,493,487,494,490
495,493,488,494,490
495,493,489,494,490
495,493,490,494,490
495,493,490,494,490
495,493,489,494,490
495,493,489,494,490
495,494,488,494,490
495,492,488,494,490
495,493,487,494,490
495,493,487,494,490
495,493,486,494,490
495,493,487,494,490
495,493,488,494,490
495,493,488,494,490
495,491,489,494,490
495,493,490,494,490
495,493,489,494,490
495,493,489,494,490
495,493,489,494,490
495,493,488,494,490
495,493,487,494,490
495,493,487,494,490
495,493,486,494,490
495,494,487,494,490
495,493,487,494,490
495,492,488,494,490
495,492,488,494,490
495,493,489,494,490
495,492,489,494,490
495,493,489,494,490
495,493,489,494,490
495,493,488,494,490
495,493,488,494,490
495,493,487,494,490
495,493,486,494,490
495,492,486,494,490
495,493,487,494,490
495,493,487,494,489
495,493,488,494,490
495,493,489,494,489
495,493,489,494,490
495,494,490,494,490
495,493,489,494,490
495,492,489,494,490
495,493,488,495,490
495,493,487,494,490
495,493,487,494,490
495,493,486,494,490
495,493,486,494,490
495,493,487,493,490
495,493,488,494,490
495,493,489,494,490
495,493,489,494,490
495,493,490,494,490
495,493,490,494,490
495,493,489,494,490
495,493,488,494,490
495,493,488,494,490
495,493,487,494,490
495,493,487,494,490
495,493,486,494,490
495,493,487,494,490
495,493,487,494,490
495,493,488,494,490
495,493,489,494,490
495,493,489,493,490
495,493,490,493,490
495,493,489,494,490
495,493,489,494,490
495,493,488,495,490
495,493,487,494,490
495,491,486,494,490
495,493,486,494,490
495,493,486,494,489
495,493,487,494,490
495,493,488,494,490
494,493,488,494,490
495,493,489,494,490
495,493,489,494,490
495,494,490,494,491
495,493,489,494,490
495,493,488,494,490
495,493,488,494,489
495,493,487,495,490
495,491,486,494,490
495,493,486,494,490
495,493,486,494,490
495,493,487,494,490
495,493,488,494,490
496,493,489,494,490
495,492,489,494,490
495,493,489,494,490
495,492,489,495,490
495,492,489,494,490
495,493,488,494,490
495,493,487,494,490
495,493,487,494,490
495,493,486,494,490
495,493,486,494,491
495,493,486,494,490
495,494,488,494,490
495,493,488,494,490
495,493,489,494,490
495,493,489,494,490
495,493,489,494,490
495,493,489,494,490
495,493,488,494,490
495,493,488,494,490
495,494,487,494,490
495,493,486,494,490
495,493,486,494,490
495,493,486,494,490
495,493,487,494,490
495,493,488,494,490
495,493,489,494,490
495,493,489,494,490
495,492,489,494,490
495,493,489,494,490
495,493,489,494,490
495,494,488,494,490
495,493,487,494,490
495,493,487,494,490
495,493,486,494,490
495,493,486,494,490
495,493,487,494,490
495,493,487,494,490
495,493,488,494,490
495,493,489,494,490
495,493,489,494,490
495,493,489,494,490
495,493,489,494,490
495,493,489,494,490
495,492,488,494,490
495,490,487,495,490
495,495,487,494,490
495,494,486,494,490
495,493,487,494,490
495,493,487,494,490
495,493,488,494,490
495,493,489,494,490
495,493,489,494,490
495,493,490,494,489
495,493,490,494,489
495,493,489,494,490
495,493,488,494,490
495,493,488,494,490
495,493,487,494,490
495,493,487,494,491
495,493,486,494,490
495,493,487,493,490
495,493,487,494,490
495,493,488,494,490
495,492,489,494,490
495,493,489,494,490
495,493,489,494,490
495,493,489,494,489
495,495,489,494,490
495,492,488,495,490
495,492,487,494,490
495,493,487,494,490
495,493,486,495,490
495,493,486,494,490
495,493,487,494,489
495,493,488,494,489
495,494,489,494,488
495,492,489,495,489
495,493,490,495,490
495,493,489,494,490
495,492,489,494,490
495,492,488,494,491
496,493,488,494,492
496,493,487,493,490
495,493,486,494,490
495,493,486,494,490
495,493,487,494,490
495,493,487,494,490
495,493,488,495,490
495,493,489,494,491
495,493,489,494,490
495,493,489,494,490
495,493,489,494,490
495,493,489,494,490
495,493,488,494,490
495,493,487,494,490
495,493,487,494,490
495,493,486,494,490
495,493,486,494,490
495,493,487,494,491
495,493,487,494,490
495,492,488,494,490
495,493,489,494,489
495,493,489,494,490
495,493,489,494,489
495,493,489,494,490
495,493,488,494,490
495,493,487,494,490
495,491,486,494,490
495,494,487,494,490
495,493,486,494,489
495,493,486,494,490
495,493,487,494,489
495,493,488,494,489
495,493,489,494,489
495,493,489,495,489
495,493,489,494,490
495,493,489,494,489
495,493,489,495,489
495,493,488,495,489
495,492,487,494,490
497,493,487,494,490
498,494,486,495,491
498,493,486,494,490
498,493,487,495,490
496,492,487,495,490
492,494,488,495,490
492,493,489,494,490
494,493,490,494,491
494,493,490,494,491
495,493,489,495,491
495,493,489,494,490
495,493,488,494,490
495,493,487,494,490
495,493,487,494,490
495,493,486,494,490
495,493,487,494,491
495,493,487,494,490
495,494,488,494,490
495,494,489,494,490
495,492,489,495,491
495,491,489,494,490
495,493,489,494,490
495,493,489,494,490
495,493,488,494,490
495,493,488,494,490
495,494,487,494,490
495,492,486,494,490
495,493,486,494,490
495,493,487,494,490
495,493,487,494,490
495,493,488,494,490
495,493,489,494,490
495,493,489,494,490
495,492,489,494,490
495,493,489,494,490
495,494,489,494,489
495,493,488,494,490
495,493,487,495,490
495,493,487,495,490
495,492,486,494,490
495,493,486,494,489
495,493,487,494,490
495,493,488,494,490
495,493,489,494,490
495,492,489,494,491
495,493,489,494,490
495,492,489,494,490
495,493,489,494,490
495,492,488,494,490
495,493,488,494,491
495,493,487,494,490
495,493,486,494,490
495,493,486,494,490
495,493,487,495,490
495,493,487,494,490
495,493,488,494,489
496,493,489,494,490
496,493,489,494,490
495,493,490,494,490
495,493,489,494,490
495,492,488,494,489
495,492,488,494,490
495,494,488,494,489
495,493,487,494,490
495,493,486,494,491
495,493,487,494,491
495,493,487,494,490
495,493,488,494,489
495,493,489,494,489
495,493,489,494,490
495,493,490,494,490
495,493,490,494,490
495,493,489,494,490
495,493,489,494,490
495,493,488,494,490
495,493,487,494,490
495,492,486,494,490
495,493,487,495,490
495,494,487,494,490
495,493,487,495,490
495,493,488,494,490
495,493,489,494,490
495,493,489,494,490
495,493,490,494,490
495,493,489,495,490
495,492,489,494,490
495,493,488,494,489
495,493,487,494,490
495,493,487,495,489
495,493,486,494,488
495,493,486,494,488
495,493,487,494,489
495,494,488,494,490
495,492,488,494,490
495,494,489,494,491
495,492,489,494,492
495,492,489,494,491
495,493,489,494,490
496,493,488,494,490
495,493,488,494,490
495,493,487,494,491
495,493,486,495,491
495,493,486,494,490
495,493,487,494,490
495,493,487,495,490
495,492,488,494,490
495,492,489,494,491
495,493,489,494,490
495,493,489,495,490
495,493,489,494,490
495,493,489,495,490
495,493,488,494,490
495,493,488,494,490
495,493,487,494,490
495,493,486,494,490
495,492,486,494,490
495,492,487,494,490
495,493,487,494,489
495,493,488,494,490
495,493,489,494,490
495,491,489,495,490
495,494,489,494,490
495,494,489,494,490
495,493,488,494,490
495,493,488,494,490
495,493,487,494,490
495,493,486,494,489
495,493,486,494,489
495,493,486,494,489
495,493,487,494,490
495,493,488,494,490
495,493,488,494,489
495,493,489,494,489
495,493,490,494,489
495,493,489,494,489
495,493,489,494,490
495,492,488,494,490
495,493,488,494,490
495,493,487,494,490
495,493,486,494,489
495,493,486,494,489
495,493,487,494,490
495,493,487,494,489
495,493,488,494,490
495,493,489,494,490
495,493,490,494,490
495,493,490,494,490
495,493,489,494,490
495,493,489,495,490
495,493,488,494,490
495,493,487,494,490
495,492,487,494,490
495,493,486,494,490
495,492,486,494,490
495,493,487,495,490
495,493,488,494,490
495,495,489,494,490
495,494,490,494,488
495,494,490,495,489
495,492,490,495,489
495,494,490,494,489
495,492,488,494,490
495,492,488,494,491
495,493,487,494,492
495,492,486,495,492
495,493,486,494,490
495,493,487,494,490
495,493,487,494,490
495,492,488,494,490
495,491,488,494,490
495,493,489,494,490
496,493,489,494,490
495,493,489,494,490
495,493,489,494,490
495,493,488,494,490
495,493,487,494,490
495,493,487,494,490
495,493,486,494,490
495,493,486,494,490
495,493,487,494,490
495,493,487,494,490
495,493,488,494,490
495,493,489,494,490
495,491,489,494,490
495,493,489,494,490
495,494,489,494,490
495,493,488,494,490
495,493,488,494,490
495,493,487,494,490
495,493,487,494,489
495,493,486,494,490
495,493,486,494,490
495,493,487,494,490
495,493,488,494,490
495,493,489,494,491
495,493,489,494,490
495,493,489,494,490
495,493,489,494,489
495,493,489,494,490
495,493,488,494,490
495,493,487,494,490
495,493,487,494,490
495,493,486,494,490
495,493,486,494,490
495,493,487,494,490
495,493,487,494,490
495,493,488,494,490
495,493,489,494,490
495,493,489,494,490
495,493,489,494,490
495,493,489,494,490
495,493,488,494,490
495,492,487,494,490
495,493,487,494,490
495,492,486,494,490
495,493,486,494,490
495,493,486,494,490
495,493,487,494,490
495,493,488,494,490
495,493,489,495,490
495,493,489,494,490
495,493,489,494,489
495,493,489,494,490
495,493,489,494,489
495,494,488,494,490
495,493,488,494,490
495,493,487,494,490
495,493,486,494,489
495,492,486,494,490
495,493,487,494,490
495,495,488,494,490
495,492,488,495,491
496,491,489,494,490
495,493,489,494,491
495,493,489,494,490
495,493,489,494,490
495,492,488,494,490
495,493,488,494,490
495,494,487,494,490
495,494,487,494,490
495,493,486,494,489
495,493,486,494,490
495,493,487,494,490
496,493,488,494,490
495,493,489,494,489
495,493,489,494,490
495,492,489,494,490
495,492,489,494,490
495,493,489,494,490
495,493,488,494,490
495,492,487,494,490
495,490,486,495,490
495,495,487,494,490
495,494,486,494,490
495,493,486,494,490
495,493,487,494,490
495,493,488,494,490
495,493,489,494,490
495,492,489,494,490
495,493,489,494,490
495,493,489,494,490
495,493,489,494,490
495,493,488,494,490
495,493,487,494,490
495,493,487,494,489
495,493,486,494,490
495,493,486,494,490
495,493,487,494,490
495,493,488,494,490
495,493,489,494,490
495,493,489,494,490
495,493,489,494,490
495,493,489,494,490
495,493,489,494,490
495,492,488,494,490
495,493,488,494,490
495,493,487,493,490
495,492,486,494,490
495,493,486,494,490
495,493,486,494,490
495,492,487,494,489
495,493,488,494,490
495,493,489,494,490
495,493,489,494,490
495,493,489,494,490
495,493,489,494,490
495,493,489,494,490
495,493,488,494,490
495,493,487,494,490
495,492,487,495,490
495,493,486,494,490
495,493,486,494,489
495,493,487,494,490
495,493,488,494,490
495,492,488,494,490
495,493,489,494,490
495,492,489,494,491
495,493,489,494,489
495,493,489,494,489
496,492,488,494,489
495,493,488,495,489
495,493,487,495,489
495,493,486,494,490
495,493,486,494,491
495,494,487,494,490
495,494,488,494,491
495,492,488,494,491
495,493,489,494,491
495,493,489,494,490
495,493,490,494,490
495,493,489,494,489
495,493,489,494,490
495,493,488,494,490
495,493,487,494,490
495,493,487,494,490
495,493,486,494,490
495,493,486,494,490
495,493,487,494,490
495,493,488,494,489
495,493,488,494,489
495,493,489,494,490
495,492,489,494,490
495,493,489,494,489
495,493,489,494,489
495,493,488,494,490
495,491,487,494,490
495,493,487,494,489
495,493,487,494,490
495,493,486,494,490
495,493,486,494,490
495,493,487,494,490
495,493,488,494,489
495,493,489,494,490
495,493,489,494,490
495,493,489,494,490
495,493,489,494,490
495,493,489,494,491
495,493,488,494,490
495,493,488,494,490
495,493,487,494,490
496,492,486,494,490
495,492,486,494,490
495,493,486,494,490
495,493,487,494,490
495,493,488,494,490
495,493,489,494,490
495,495,490,494,490
495,493,490,494,490
495,493,489,494,490
495,493,489,494,490
495,493,488,494,490
495,493,487,494,490
495,493,487,494,489
495,493,487,494,489
495,492,486,495,489
495,493,487,494,489
495,493,488,494,489
495,493,489,494,490
495,493,489,494,490
495,493,490,494,491
495,493,490,494,492
495,493,489,494,491
495,492,488,494,490
495,493,488,494,491
495,493,487,494,490
495,493,486,494,490
495,492,486,494,490
495,493,487,494,489
495,493,487,494,490
495,494,488,494,490
495,493,489,494,490
495,493,490,494,490
495,493,490,494,490
495,495,490,494,490
495,492,489,494,490
495,492,488,494,490
495,493,488,494,490
495,493,487,494,490
495,493,486,494,490
495,493,487,494,489
495,493,487,494,490
495,493,488,494,490
495,493,488,494,489
495,493,489,494,490
495,493,490,494,490
495,493,489,494,490
495,493,489,494,490
495,493,488,494,490
495,493,488,494,490
495,493,487,494,490
495,492,486,494,490
495,491,486,494,490
495,493,486,494,490
495,493,487,494,489
495,493,488,494,490
495,493,489,495,490
495,493,489,494,490
495,493,490,494,490
495,493,489,494,490
495,493,489,494,490
495,493,488,494,490
495,493,487,494,490
495,493,487,494,489
495,493,486,494,490
495,492,486,494,490
495,493,487,494,490
495,493,487,494,490
495,493,488,494,490
495,493,489,494,489
495,493,489,494,490
495,493,489,494,489
496,494,489,494,490
495,493,488,495,490
495,492,488,495,490
495,493,487,494,490
495,494,487,494,490
495,493,486,494,490
495,493,487,494,490
495,493,487,494,490
495,493,488,494,490
495,493,488,494,490
495,493,489,494,489
495,493,489,494,490
495,493,489,494,490
495,493,489,494,489
495,492,488,494,489
495,493,487,494,489
495,493,487,494,489
495,492,486,494,489
495,493,486,495,490
495,493,486,495,491
495,493,487,495,492
495,493,488,494,490
495,493,489,494,490
495,494,490,494,490
495,493,490,494,490
495,492,489,494,490
495,493,489,494,490
495,493,488,494,490
495,493,487,494,490
495,493,487,494,490
495,493,486,494,490
495,493,486,494,490
495,493,487,494,490
495,493,488,494,490
495,493,489,494,490
495,493,489,494,490
495,493,489,494,490
495,493,489,494,490
495,493,489,494,490
495,493,488,494,490
495,493,488,494,490
495,494,487,494,489
495,492,486,494,490
495,492,486,494,490
495,493,487,494,490
495,492,487,494,490
495,493,488,494,490
495,493,489,494,490
495,493,489,494,489
495,493,489,494,490
495,493,489,494,490
495,493,489,494,490
495,492,488,494,490
495,490,487,495,490
495,494,487,494,489
495,494,486,494,489
495,493,486,494,490
495,493,487,494,490
496,493,488,494,489
495,493,489,494,490
495,492,489,494,490
495,493,489,494,490
495,493,489,494,490
495,493,489,494,490
495,492,488,495,490
495,493,488,494,490
495,493,487,494,490
495,493,486,494,490
495,492,486,493,490
495,494,487,494,489
495,493,487,493,490
495,493,488,494,490
496,493,489,494,489
495,493,489,495,489
495,493,490,494,489
495,494,489,494,489
495,493,489,494,489
495,492,488,494,490
495,493,487,494,491
495,493,487,494,491
495,493,486,494,489
495,493,487,494,489
495,493,487,494,489
495,493,488,494,489
495,493,488,494,490
495,493,489,494,491
495,493,490,494,491
495,493,489,494,490
495,494,489,494,490
495,492,488,494,490
495,492,487,494,490
495,493,487,494,489
495,493,486,494,490
495,493,486,495,491
495,493,486,494,490
495,493,487,494,490
495,493,488,494,490
495,493,489,494,490
495,493,489,494,490
495,493,489,494,490
495,493,489,494,490
495,493,489,494,490
496,492,488,494,490
496,493,487,494,489
496,493,487,494,489
496,493,486,494,489
495,493,486,494,490
495,493,487,494,490
495,493,487,494,489
495,494,488,495,489
495,493,489,495,489
495,493,490,495,489
495,494,490,494,489
495,495,490,494,490
495,493,489,494,491
495,492,488,494,491
496,492,487,494,491
495,493,487,494,490
495,493,487,494,490
495,493,487,494,490
495,492,487,494,490
495,491,488,494,490
495,494,489,494,490
495,493,489,494,489
495,493,489,494,490
495,493,489,494,490
495,493,489,494,490
495,493,488,494,490
495,493,487,494,490
495,493,487,494,489
495,493,486,494,489
495,493,486,494,490
495,493,487,494,489
495,492,487,494,490
495,493,488,495,490
495,493,489,494,490
495,493,489,494,490
495,493,489,494,490
495,493,489,494,490
495,493,488,494,490
495,493,488,494,490
495,493,487,494,489
495,493,487,494,490
495,493,486,494,490
495,493,486,494,490
495,493,487,494,490
495,493,488,494,490
495,493,489,494,490
495,493,489,494,490
495,493,490,495,490
495,493,490,494,490
495,493,489,494,490
495,492,488,495,489
495,493,488,494,489
495,493,487,494,489
495,494,487,494,490
495,492,486,495,490
495,493,487,494,489
495,493,487,494,490
495,493,488,494,490
495,493,489,494,489
495,493,489,494,490
495,493,489,494,490
495,493,489,494,490
495,493,489,494,490
495,493,488,495,491
495,493,487,494,490
495,493,487,493,490
495,493,486,494,490
495,493,486,494,490
495,493,487,494,489
495,493,488,494,490
495,493,488,494,490
495,493,489,494,490
495,493,489,494,490
495,493,490,494,490
495,493,489,494,490
495,493,488,494,490
495,493,488,494,490
495,493,487,494,490
495,493,486,494,489
495,492,486,494,489
495,493,486,494,489
495,493,487,494,489
495,493,488,494,489
495,492,489,494,490
495,492,489,494,490
495,495,490,495,490
495,495,490,494,490
495,491,489,494,490
495,492,488,494,490
495,492,487,495,489
495,493,487,494,489
495,493,486,494,489
495,493,486,494,489
495,494,487,494,489
495,493,488,495,490
495,492,488,495,492
495,493,489,494,491
495,493,490,494,490
495,493,490,494,490
495,493,489,494,490
495,493,489,494,490
495,493,488,494,490
495,493,487,494,490
495,493,487,494,489
495,493,486,494,490
495,492,486,494,490
495,493,487,494,489
495,493,488,494,490
495,493,489,494,490
495,493,489,494,490
495,493,489,494,490
495,493,489,494,489
495,493,489,494,490
496,493,488,494,489
495,492,487,494,490
495,492,487,494,490
495,493,486,494,490
495,493,486,494,489
495,494,487,494,490
495,493,488,494,490
495,493,488,494,490
495,493,489,494,490
495,493,490,494,490
495,493,490,494,489
495,493,489,494,489
495,493,489,494,489
495,493,488,494,489
495,494,488,493,489
495,492,487,494,490
495,494,487,494,490
495,493,487,494,489
495,492,487,494,490
495,492,488,494,490
495,493,489,494,490
495,493,489,494,490
495,493,490,494,491
495,493,489,494,491
495,493,489,494,489
495,493,488,494,490
495,493,487,494,490
495,493,487,494,489
495,493,486,494,489
495,493,486,494,489
495,493,487,494,489
495,493,487,494,490
495,491,488,494,490
495,495,489,494,490
495,493,489,494,489
495,493,489,494,490
495,493,489,494,489
495,493,489,494,489
495,493,488,494,489
495,493,487,494,489
495,493,487,494,489
495,493,486,494,489
495,493,487,494,490
495,493,487,494,489
495,493,488,494,489
495,493,489,494,489
495,493,489,494,490
495,493,490,494,489
495,493,489,494,489
495,493,489,494,489
495,493,489,494,489
495,493,488,494,489
495,493,487,494,490
495,493,486,494,491
495,493,486,494,489
495,493,487,494,489
495,493,487,494,490
495,493,488,494,490
495,493,489,494,490
495,493,489,494,490
495,493,489,494,490
495,493,489,494,489
495,493,489,494,490
495,494,488,494,490
495,493,487,494,489
495,493,487,494,490
495,493,486,494,489
495,493,486,494,489
495,493,487,494,489
495,493,488,494,489
495,493,489,493,489
495,493,489,493,489
495,493,490,494,489
495,493,490,494,489
495,492,489,495,490
495,494,489,494,489
495,492,488,494,489
495,492,487,494,490
495,493,487,494,490
495,493,486,494,490
495,493,487,494,489
495,493,487,494,489
495,493,488,494,490
495,491,488,495,490
495,493,489,494,490
495,493,490,494,490
495,493,489,494,489
495,493,489,494,489
495,493,488,494,489
495,492,487,494,490
495,493,487,494,489
495,494,487,494,489
495,492,486,494,490
495,492,487,494,490
495,492,488,494,490
495,492,488,494,489
495,493,489,494,490
495,493,490,494,490
495,493,489,494,490
495,494,489,494,490
495,494,489,494,489
495,493,488,494,489
495,493,487,494,489
495,493,487,494,489
495,493,486,494,489
495,493,487,494,489
495,493,487,494,490
495,493,488,494,489
495,493,489,494,489
495,493,489,494,488
495,493,489,494,489
495,491,489,494,489
495,494,489,494,489
495,493,488,494,490
495,493,488,494,491
495,493,487,494,490
495,493,486,494,490
495,493,486,494,489
495,493,487,494,489
495,493,488,494,490
495,493,488,494,490
495,493,489,494,490
495,493,489,493,490
495,493,489,494,490
495,493,489,494,490
495,493,489,494,490
495,493,488,494,489
495,493,487,494,489
495,493,487,494,489
495,493,486,494,490
495,493,487,494,490
495,493,487,494,490
495,493,488,494,489
495,493,489,494,489
495,493,489,494,489
495,493,490,494,490
495,493,490,494,490
495,493,489,494,490
495,493,488,494,489
495,493,488,494,490
495,493,487,493,490
495,493,486,494,490
495,493,486,494,490
495,493,487,494,489
495,493,488,494,490
495,493,488,494,489
495,493,489,494,489
495,493,490,494,489
495,493,490,494,489
495,493,489,494,490
495,493,489,494,489
495,494,488,494,490
495,492,487,494,490
495,493,487,494,489
495,493,486,494,489
495,493,487,494,490
495,492,487,494,490
495,493,488,494,490
495,493,489,494,489
495,493,489,494,490
495,492,489,494,489
495,493,489,494,489
495,493,489,494,490
495,492,488,494,490
495,494,488,494,490
495,493,487,494,490
495,493,486,494,490
495,493,486,495,490
495,493,487,494,490
495,493,487,494,490
495,493,488,495,490
495,493,489,495,489
495,493,489,494,490
495,493,489,494,489
496,493,489,494,489
495,493,489,494,490
495,493,488,494,490
495,493,487,494,490
495,493,487,494,489
495,493,486,494,489
495,493,486,494,489
495,493,487,494,489
495,493,488,494,489
495,493,488,494,489
495,493,489,494,490
495,493,490,494,490
495,492,489,494,490
495,491,489,494,490
495,494,489,494,489
495,493,488,494,489
495,493,487,494,489
495,493,486,494,489
495,493,486,494,488
495,493,487,494,489
495,493,487,494,489
495,493,488,494,489
495,493,489,494,491
495,493,489,494,491
495,493,489,494,490
495,493,489,494,490
495,493,489,494,490
495,493,488,494,490
495,493,487,494,490
495,493,487,494,490
495,493,486,494,490
495,493,486,494,490
495,493,487,494,489
495,493,487,494,490
495,493,488,495,490
495,493,489,494,489
495,493,489,494,489
495,493,489,494,490
495,494,489,494,489
495,493,489,494,490
495,493,488,494,489
495,493,487,494,490
495,493,487,494,490
495,493,486,494,489
495,493,486,494,489
495,493,487,494,489
495,493,488,494,490
495,493,489,494,489
495,494,490,494,489
495,493,490,494,490
495,492,489,494,490
495,493,489,494,490
495,493,488,494,490
495,493,487,494,489
495,493,487,494,490
495,493,486,495,490
495,492,486,494,489
495,493,487,494,489
495,493,487,495,490
495,493,488,494,489
495,493,489,495,489
495,494,490,494,490
495,492,490,494,490
495,492,489,494,489
495,494,489,494,489
495,492,488,494,490
495,492,487,494,490
495,492,486,494,490
496,493,486,494,489
495,492,486,494,490
495,493,487,494,490
495,492,487,494,490
495,492,488,494,490
495,493,489,494,490
495,493,489,494,489
495,494,489,494,490
495,493,489,494,490
495,492,488,494,490
495,495,488,494,490
495,494,487,494,489
495,493,487,494,490
495,493,486,494,490
495,493,487,494,489
495,493,488,494,489
495,493,488,494,489
495,493,489,494,489
495,493,490,494,488
495,493,490,494,489
495,493,490,494,489
495,493,489,494,489
495,493,488,494,490
495,493,487,494,491
495,493,487,494,491
495,493,486,494,490
495,493,486,494,489
495,493,487,494,489
495,493,488,494,489
495,493,488,494,489
495,493,489,494,489
495,493,490,494,489
495,493,489,494,489
495,493,489,494,490
495,493,488,494,490
495,493,488,494,489
495,493,487,494,489
495,493,486,494,489
495,493,486,494,489
495,493,487,494,489
495,493,487,494,489
495,493,488,494,489
495,493,489,494,489
495,493,489,494,490
495,493,490,494,489
495,493,489,494,490
495,493,489,494,489
495,493,488,494,489
495,493,487,495,489
495,493,487,494,489
495,493,486,494,489
495,493,486,494,489
495,492,487,495,489
495,493,488,494,489
495,494,489,494,489
495,492,489,494,490
495,491,489,493,489
495,492,489,494,490
495,492,489,494,490
495,493,488,494,489
495,493,488,494,489
495,495,487,494,490
495,493,487,494,490
495,493,487,494,489
495,493,487,494,490
495,493,487,494,489
495,493,488,494,489
495,493,489,494,490
495,493,489,494,489
495,493,490,494,489
495,493,489,494,489
495,493,489,494,489
495,493,488,494,489
495,494,488,494,489
495,494,487,494,489
495,494,487,494,489
495,492,486,494,490
495,492,487,494,489
495,493,488,494,489
495,493,488,494,489
495,493,489,494,489
495,493,490,494,489
495,493,490,495,490
495,493,489,494,489
495,493,489,494,489
495,493,488,494,490
495,493,487,494,489
495,493,487,494,489
495,493,486,494,489
495,493,487,494,489
495,493,487,494,489
495,493,488,494,489
495,493,489,494,489
495,493,489,494,489
495,493,489,494,490
495,493,489,494,490
495,491,489,495,490
495,494,488,494,490
495,493,487,494,490
495,492,487,494,489
495,493,486,494,489
495,494,487,494,489
496,493,487,494,489
495,493,487,494,489
495,493,488,494,489
495,493,489,494,489
495,493,490,494,490
495,493,490,494,489
495,493,489,494,490
495,493,489,494,490
495,493,488,494,490
495,493,487,494,490
495,493,487,494,489
495,493,486,494,489
495,494,487,494,490
495,493,487,495,489
495,493,488,494,489
495,493,489,494,489
495,493,489,494,489
495,493,490,494,489
495,493,490,494,489
495,492,489,494,489
495,492,488,494,489
495,493,488,495,490
495,493,487,494,490
495,493,486,494,490
495,493,486,494,490
495,492,487,494,489
495,493,488,494,489
495,493,488,494,490
495,493,489,494,489
495,494,490,494,489
495,493,490,494,490
495,493,489,494,489
495,493,489,494,489
495,493,488,494,490
495,493,487,494,490
495,493,487,494,490
495,494,487,494,489
495,493,487,494,489
495,493,487,494,489
495,493,488,494,490
495,492,488,495,490
495,493,489,494,489
495,494,490,494,489
495,493,490,494,489
495,493,489,494,489
495,493,489,494,488
495,494,488,494,488
495,494,488,494,489
495,492,487,494,489
495,493,486,494,489
495,493,487,494,490
495,493,487,494,490
495,493,488,494,489
495,493,489,494,489
495,493,489,494,489
495,493,489,494,489
495,493,489,494,489
495,493,489,494,489
495,493,488,494,489
495,494,488,493,489
495,493,487,494,489
495,492,486,494,489
495,493,486,494,489
495,492,487,494,490
495,491,487,494,489
495,494,488,494,489
495,492,489,494,489
495,493,489,494,490
495,493,489,494,489
495,493,489,494,489
495,493,488,493,489
495,493,488,494,489
495,493,487,494,489
495,493,487,494,489
495,493,486,494,489
495,493,487,494,489
495,493,487,494,489
495,493,488,494,489
495,493,489,494,490
495,493,489,494,489
495,492,489,494,489
496,493,489,494,489
496,494,489,494,489
495,494,488,494,489
495,493,487,494,490
495,493,487,494,489
495,493,486,494,489
495,493,486,494,489
495,493,487,494,489
495,493,488,494,489
495,493,488,494,490
495,493,489,495,490
495,493,489,495,489
495,493,489,494,489
495,493,489,494,489
495,493,489,494,489
495,493,488,494,489
495,493,487,494,489
495,493,487,494,490
495,493,486,494,490
495,492,486,494,490
495,493,487,494,489
495,493,488,494,490
495,492,488,494,489
495,494,489,494,490
495,493,489,494,489
495,493,489,494,489
495,493,489,494,490
495,493,488,494,489
495,492,487,494,490
495,493,487,494,490
495,493,486,494,489
495,493,486,494,489
495,493,487,494,489
495,493,487,494,489
495,493,488,494,489
495,493,489,494,489
495,493,489,494,489
495,493,489,494,489
495,493,489,494,489
495,493,489,494,489
495,493,488,494,489
495,493,487,494,489
495,493,487,494,489
495,493,486,494,489
495,493,487,494,489
495,493,487,494,489
495,493,488,494,489
495,493,489,494,489
495,494,489,494,489
495,492,490,494,489
495,493,490,494,489
495,493,489,494,489
495,493,489,494,489
495,493,488,494,489
495,493,487,494,489
495,493,487,494,489
495,493,486,494,489
495,493,487,494,489
495,493,487,494,489
495,492,488,494,490
495,493,489,494,490
495,494,489,494,489
495,493,490,494,489
495,493,489,494,489
495,493,489,494,489
495,494,488,494,489
495,493,487,494,489
495,494,487,494,489
495,493,486,494,489
495,492,486,494,489
495,493,487,494,489
495,493,488,494,489
495,493,488,494,489
495,493,489,494,489
495,492,489,494,489
495,494,490,494,489
495,493,489,495,489
495,493,489,494,489
495,493,488,494,489
495,493,487,494,489
495,493,487,494,489
495,493,486,495,489
495,493,487,495,489
495,493,487,494,489
495,493,488,494,489
495,493,489,494,489
495,493,489,494,489
495,492,489,494,490
495,492,489,494,490
495,493,489,493,489
495,494,488,494,489
494,493,487,494,489
495,492,487,494,490
495,493,486,494,489
495,493,486,494,489
495,493,487,494,489
495,493,488,494,488
495,493,488,494,488
495,493,489,494,488
495,493,490,494,489
495,493,489,494,489
495,493,489,494,490
495,493,489,494,491
495,493,488,494,490
495,493,487,494,489
495,493,486,494,489
495,493,486,494,489
495,493,487,494,489
495,493,487,494,489
495,493,488,494,489
495,493,489,494,489
495,493,489,494,489
495,493,490,494,489
495,494,490,494,489
495,493,489,495,490
495,493,488,494,489
495,493,488,495,489
495,493,487,494,489
495,494,487,494,489
495,493,487,494,489
495,493,487,494,489
495,493,488,494,489
495,492,488,494,489
495,494,489,494,489
495,495,490,494,489
495,493,490,494,489
495,493,489,494,489
495,493,489,494,490
495,493,488,494,490
495,494,488,494,489
495,493,487,494,489
495,493,487,494,489
495,492,487,494,490
495,491,487,494,490
495,494,488,494,489
495,494,489,494,489
495,494,489,494,489
495,493,490,494,489
495,493,489,494,490
495,493,489,494,489
495,493,488,494,489
495,493,488,494,489
495,493,487,494,489
495,493,486,494,489
495,493,486,494,489
495,493,487,494,489
495,493,487,494,489
495,493,488,494,489
495,492,489,494,489
495,493,490,494,489
495,494,490,494,489
495,493,489,494,489
495,492,489,494,489
495,493,488,494,489
495,493,487,494,489
495,493,487,494,489
495,493,486,494,489
495,493,487,495,489
494,493,487,494,490
495,493,488,494,489
495,493,489,494,489
495,493,489,494,489
495,493,490,494,489
495,493,489,494,489
495,493,489,494,489
495,493,488,494,489
495,493,488,494,489
495,493,487,494,489
495,493,487,494,489
495,493,486,494,489
495,493,487,494,489
495,492,487,495,489
495,493,488,494,490
495,493,489,494,490
495,493,489,494,489
495,493,490,494,489
495,493,489,494,489
495,493,489,494,489
495,493,488,494,489
495,493,487,494,489
495,493,487,494,489
495,493,486,494,489
495,493,487,494,489
495,493,487,494,489
495,493,488,494,488
495,493,489,494,488
495,493,489,494,489
495,493,490,494,489
495,493,490,494,489
495,493,489,494,490
495,493,489,494,490
495,493,488,494,489
495,493,487,494,490
495,493,487,494,489
495,493,486,494,489
495,493,487,494,490
495,493,487,494,489
495,495,489,494,489
495,493,489,494,489
495,493,490,494,489
495,493,490,494,489
495,493,490,494,489
495,493,489,494,489
495,493,488,494,489
495,493,488,494,489
495,493,487,494,490
495,491,486,494,489
495,495,487,494,489
495,493,487,494,489
495,493,488,494,489
495,493,489,494,489
495,493,489,494,489
495,493,490,494,489
495,492,489,494,489
495,491,489,494,490
495,493,489,494,489
495,494,488,493,489
495,494,487,494,489
495,493,487,494,489
495,493,486,494,489
495,493,487,494,489
495,493,487,494,489
495,493,488,494,489
495,493,489,494,489
495,493,489,494,489
495,493,490,494,489
495,493,490,494,489
495,495,490,495,489
495,492,489,494,489
495,493,488,494,490
495,493,487,494,490
495,493,487,494,489
495,493,486,494,489
495,493,487,494,489
495,493,488,494,489
495,493,489,494,489
495,493,489,494,489
495,493,490,494,489
495,493,490,494,489
495,493,489,494,489
495,493,489,494,489
495,493,488,494,489
495,493,487,494,489
495,493,487,494,489
495,493,486,494,489
495,493,487,495,489
495,493,487,494,489
495,493,488,494,489
495,493,489,494,489
495,493,489,494,489
495,493,490,494,489
495,493,490,494,489
495,493,489,494,489
495,493,488,494,489
495,493,488,494,489
495,493,487,494,489
495,493,487,493,489
495,493,487,494,490
495,493,487,494,490
495,493,488,494,490
495,493,488,494,490
495,493,489,494,489
495,493,490,493,489
495,493,490,494,489
495,493,490,494,490
495,493,489,494,489
495,493,488,494,489
495,493,487,494,489
495,493,487,494,489
495,493,487,494,489
495,493,487,494,490
495,493,487,495,490
495,493,488,494,489
495,494,489,494,489
495,493,489,494,489
495,493,490,494,490
495,492,490,494,490
495,491,489,495,490
495,492,488,494,489
495,494,488,494,489
495,493,487,494,489
495,493,486,494,489
495,493,486,494,489
495,493,487,494,490
495,493,487,494,490
495,494,488,494,489
495,492,489,495,490
495,493,489,494,490
495,492,489,494,489
495,493,490,494,489
495,493,489,494,489
495,493,488,494,490
495,493,487,494,489
495,493,487,494,489
495,493,487,494,489
495,493,486,494,490
495,493,487,494,489
495,493,488,494,490
495,493,489,494,489
495,493,489,494,489
495,493,490,494,489
495,493,490,494,489
495,493,489,494,489
495,493,489,494,489
495,493,488,494,489
495,493,487,494,489
495,494,487,494,489
495,493,486,494,489
495,493,487,494,489
495,493,487,494,489
495,493,488,494,489
495,493,489,494,489
495,493,489,494,489
495,493,490,494,489
495,493,489,494,489
495,493,489,494,489
495,493,488,494,489
495,493,488,494,489
495,494,487,494,489
495,494,487,494,489
495,492,486,494,489
495,492,487,494,489
495,493,488,494,489
495,493,488,494,489
495,493,489,494,489
495,493,490,494,489
495,493,490,494,489
495,493,489,494,489
495,493,489,494,489
495,493,488,495,490
495,493,487,494,489
495,493,487,494,489
495,493,486,494,489
495,493,487,494,489
495,493,487,494,489
495,493,488,494,489
495,493,489,494,489
495,493,489,494,489
495,493,490,494,490
495,493,490,494,489
495,494,490,494,489
495,493,488,494,489
495,492,488,495,489
495,492,487,495,490
495,492,486,494,490
495,491,486,494,490
495,495,487,494,490
495,494,487,494,489
495,493,488,494,489
495,493,489,494,489
495,493,489,494,489
495,493,490,494,489
495,493,489,494,489
495,494,489,494,489
495,493,488,494,489
495,493,487,494,489
495,494,487,494,489
495,495,487,494,489
495,492,487,494,489
495,492,487,494,489
495,493,488,494,490
495,492,488,494,490
495,493,489,494,490
495,493,490,495,490
495,493,489,494,489
495,493,489,494,489
495,493,488,494,489
495,493,488,494,489
495,493,487,494,490
495,493,487,495,490
495,493,486,494,490
495,493,487,494,490
495,493,487,494,490
495,493,488,494,490
495,493,489,494,489
495,493,489,494,489
496,493,490,494,489
495,493,489,494,489
495,494,489,494,489
495,493,488,494,489
495,493,487,494,489
495,493,487,494,489
495,493,486,494,489
495,493,487,494,489
495,493,487,494,489
495,493,488,494,490
495,494,489,494,489
495,496,490,494,489
495,492,490,494,489
495,493,490,494,490
495,492,489,494,490
495,493,489,494,489
495,493,488,494,489
495,493,487,494,489
495,494,487,494,489
495,493,487,495,489
495,493,487,494,489
495,493,487,494,490
495,493,488,494,489
495,493,489,494,489
495,493,489,494,489
495,493,489,494,489
495,493,489,494,489
495,492,488,494,490
495,491,488,494,489
495,495,488,494,489
495,493,487,494,489
495,493,486,494,489
495,493,486,494,489
495,493,486,494,489
495,493,487,494,489
495,493,488,494,489
495,493,489,494,489
495,494,489,494,489
495,493,489,494,489
495,493,489,494,489
495,493,488,494,489
495,493,487,494,489
495,493,487,494,489
496,492,486,494,489
495,493,486,494,489
495,493,486,494,489
495,494,487,494,489
495,493,487,494,489
495,493,488,494,489
495,494,488,494,489
495,493,489,494,489
495,493,488,494,489
495,493,488,494,489
495,493,487,494,490
495,494,486,494,489
495,494,486,494,489
495,493,485,494,489
495,493,485,494,489
495,493,485,494,489
495,493,486,494,489
495,492,486,494,490
495,494,487,494,489
495,493,488,494,489
495,493,488,494,489
495,493,488,495,489
495,493,487,494,489
495,493,486,494,489
495,493,485,494,489
495,493,485,494,489
495,494,484,494,489
495,493,485,494,490
495,493,485,494,489
495,493,486,494,489
495,493,487,494,489
495,493,487,494,489
495,493,488,494,489
495,493,488,494,489
495,493,487,494,489
495,493,487,494,489
495,493,486,494,490
495,493,485,494,489
495,494,485,494,489
495,494,485,494,490
495,493,485,494,490
495,493,486,494,489
495,494,487,494,490
495,493,488,494,489
495,494,488,494,490
495,493,488,494,490
495,492,488,494,489
495,493,487,494,489
495,493,487,494,489
495,493,486,494,489
495,493,485,494,489
495,493,485,494,489
495,492,485,494,490
495,493,486,494,489
495,494,487,494,489
495,493,488,494,489
495,493,488,494,489
495,493,489,494,489
495,493,488,494,490
495,493,488,494,489
495,494,488,494,489
495,493,487,494,489
495,493,486,494,489
495,493,486,494,489
495,493,485,494,489
495,494,486,494,489
495,494,487,494,489
495,493,488,494,489
495,493,488,494,489
495,493,489,494,489
495,493,489,494,490
495,493,489,494,490
495,493,488,494,489
495,493,487,494,489
495,493,487,494,490
495,493,486,494,490
495,493,486,494,489
495,493,486,494,490
495,493,486,494,489
495,494,487,494,489
496,493,488,494,489
495,493,488,494,489
495,493,489,494,490
495,493,489,494,489
495,493,488,494,490
495,493,488,494,490
495,494,487,494,489
495,493,486,494,489
495,493,486,494,489
495,493,486,494,490
495,493,486,494,489
495,493,487,494,490
495,492,487,494,490
495,493,488,494,489
495,493,488,494,489
495,493,489,494,489
495,493,489,494,489
495,493,488,494,489
495,493,487,494,489
495,493,487,494,489
495,493,486,494,489
495,493,486,494,489
495,493,486,494,489
495,493,486,495,489
495,493,487,494,489
495,494,488,494,489
495,493,489,494,490
495,493,489,494,489
495,493,489,494,490
495,493,489,494,489
495,493,489,494,489
495,494,488,494,489
495,492,487,494,490
495,494,487,494,489
495,493,486,494,490
495,492,486,494,490
495,494,487,494,490
495,491,487,494,490
495,490,488,494,489
495,494,489,494,489
495,493,490,494,489
495,493,489,494,489
495,493,489,494,489
495,493,488,495,490
495,493,487,494,489
495,493,487,494,489
495,493,486,494,489
495,493,486,494,489
495,493,487,494,489
495,493,488,494,489
495,493,488,494,489
495,493,489,494,489
495,493,490,494,489
495,493,490,494,489
495,493,490,494,489
495,493,489,494,489
495,493,488,494,489
495,493,487,494,490
495,493,487,494,489
495,493,486,494,489
495,493,487,494,489
495,493,487,494,490
495,493,488,494,489
495,493,489,494,489
495,493,489,494,489
495,493,490,494,490
495,493,490,494,489
495,493,489,494,489
495,493,489,494,490
495,493,488,494,490
495,493,487,494,490
495,493,487,494,489
495,493,486,494,489
495,493,487,494,490
495,493,488,494,490
495,493,489,494,489
495,494,489,494,489
495,493,490,494,489
495,494,490,494,489
495,493,490,494,489
495,493,489,494,489
495,493,488,494,489
495,494,488,494,490
495,494,487,494,489
495,493,487,494,489
495,493,487,494,489
495,493,487,494,489
495,493,488,494,489
495,493,489,494,490
495,493,489,494,490
495,493,490,494,489
495,493,490,494,489
495,493,490,494,489
495,493,489,494,489
495,493,488,494,489
495,493,487,494,490
495,493,487,494,490
495,493,487,494,490
495,493,487,494,489
495,493,488,494,489
495,493,488,494,489
495,493,489,494,489
495,493,490,494,489
495,493,490,494,489
495,493,490,494,489
495,494,489,494,489
495,493,489,494,489
495,493,488,494,489
495,493,487,494,489
495,493,487,494,489
495,493,487,494,489
495,494,488,494,489
495,493,488,494,490
495,493,489,494,489
495,493,490,495,489
495,493,490,494,489
495,493,490,494,489
495,493,490,494,489
495,493,489,494,489
495,493,488,494,489
495,495,488,494,489
495,494,487,494,490
495,492,487,494,489
495,491,486,494,490
495,493,487,494,489
495,495,488,494,489
495,493,489,494,489
495,493,490,494,489
495,494,490,494,489
495,494,490,494,489
495,492,489,494,489
495,493,488,494,489
495,493,488,494,489
495,493,487,494,489
495,493,487,494,489
495,493,487,495,489
495,493,487,494,489
495,493,487,494,489
495,493,488,494,489
495,493,489,494,490
495,493,489,494,489
495,493,489,494,489
495,493,489,494,490
495,493,489,494,489
495,493,488,494,489
495,493,487,494,489
495,493,487,494,489
495,493,486,494,489
495,493,486,494,490
495,493,487,494,489
495,494,488,494,489
495,493,489,494,489
495,494,489,494,489
495,494,490,494,489
495,493,489,494,490
495,492,489,494,490
495,493,488,494,489
495,493,488,494,489
495,493,487,494,489
495,493,486,494,490
495,493,486,494,490
495,492,486,494,489
495,494,487,494,489
495,493,488,494,489
495,493,489,494,489
495,493,489,494,489
495,493,490,494,489
495,493,489,494,489
495,493,489,494,489
495,493,488,494,489
495,493,487,494,489
495,493,487,494,489
495,493,486,494,489
495,493,487,494,489
495,493,487,494,490
495,493,488,494,489
495,493,489,494,489
495,493,489,494,489
495,493,490,494,489
495,493,490,494,489
495,493,489,494,489
495,493,489,494,489
495,493,488,494,489
495,493,487,494,489
495,493,487,494,489
495,493,487,494,489
495,493,487,494,489
495,494,488,494,489
495,493,488,494,489
495,493,489,494,489
495,493,490,494,489
495,493,490,494,489
495,493,490,494,489
495,493,489,494,489
495,493,488,494,489
495,494,488,494,489
495,492,487,494,490
495,491,486,494,489
495,495,487,494,489
495,494,487,494,489
495,493,488,494,489
495,493,489,494,490
495,493,489,494,489
495,493,490,494,489
495,493,490,494,489
495,493,489,495,490
495,493,489,495,489
495,493,488,494,490
495,493,487,494,489
495,494,487,494,489
495,493,487,494,489
495,493,487,494,489
495,493,488,494,489
495,493,489,494,489
495,493,489,494,489
495,493,490,494,490
495,493,490,494,489
495,493,490,494,489
495,493,489,494,489
495,493,489,494,489
495,493,488,494,489
495,493,487,494,489
495,493,487,494,489
495,493,487,494,489
495,493,487,494,489
495,493,488,495,489
495,493,489,494,489
495,494,490,494,489
495,494,490,494,489
495,493,490,494,489
495,493,490,494,489
495,493,489,494,490
495,494,488,494,489
495,493,488,495,489
495,493,487,494,489
495,493,487,494,489
495,493,487,494,489
495,494,488,494,489
496,493,489,495,489
495,492,489,494,489
495,493,490,494,489
495,493,490,494,489
495,493,490,494,489
495,493,489,494,489
495,493,489,494,489
495,493,488,494,489
495,493,487,494,489
495,493,487,494,489
495,493,487,494,489
495,493,487,494,489
495,493,488,494,489
495,493,489,494,489
495,493,489,494,489
495,493,490,494,489
495,493,490,494,489
495,493,490,494,489
495,493,489,494,489
495,493,488,494,489
495,493,488,494,489
495,493,487,494,489
495,493,487,494,489
495,493,487,494,489
495,491,487,494,489
495,494,488,494,489
496,494,489,494,489
495,493,489,494,489
495,493,490,494,489
495,494,490,494,489
495,493,489,494,489
495,494,489,494,489
495,495,488,494,489
495,493,487,494,489
495,493,487,494,489
495,493,487,494,489
495,492,487,494,489
495,492,488,494,489
495,493,489,494,489
495,494,489,494,489
495,493,490,494,489
495,493,490,494,489
495,493,490,494,489
495,493,489,494,489
495,493,488,494,489
495,493,488,494,489
495,493,487,494,489
495,493,487,494,489
495,493,487,494,489
495,493,487,494,489
495,493,488,494,489
495,493,489,494,489
495,493,489,494,489
495,493,490,494,490
495,493,490,494,489
495,493,490,494,489
495,493,489,494,489
495,493,488,494,489
496,493,487,494,489
496,495,487,494,489
495,493,487,494,489
495,493,487,493,489
495,493,488,494,489
495,493,488,494,489
495,493,489,494,489
495,493,490,494,489
495,493,490,494,489
495,493,490,494,489
495,493,489,494,489
495,492,488,494,489
495,493,488,494,489
495,493,487,494,489
495,493,486,494,489
495,493,487,494,489
495,493,487,494,489
495,493,488,494,489
495,493,489,494,489
495,493,489,494,489
495,493,490,494,489
495,493,490,494,489
495,493,490,494,489
495,493,489,494,489
495,493,488,494,489
495,493,487,494,489
495,493,487,494,489
495,493,487,494,489
495,493,487,494,489
495,493,488,494,489
495,493,488,494,489
495,493,489,494,489
495,493,490,494,489
495,493,490,494,489
495,493,490,494,489
495,493,490,494,489
495,493,489,494,489
495,493,488,494,489
495,493,487,494,489
495,493,487,494,489
495,493,487,494,489
495,493,487,494,489
495,492,488,494,489
496,496,489,494,489
495,494,490,494,489
495,491,490,494,489
495,493,490,494,489
495,493,490,494,489
495,493,489,494,489
495,493,488,494,489
495,493,487,494,489
495,493,487,494,490
495,493,486,494,489
495,493,487,494,489
495,493,487,494,489
495,493,488,494,489
495,493,489,494,489
495,493,490,494,489
495,493,490,494,489
495,493,490,494,489
495,493,490,494,489
495,494,489,494,489
495,494,489,494,489
495,493,487,494,489
495,493,487,494,489
495,493,487,494,489
495,493,487,494,489
495,493,488,493,489
495,494,489,494,489
495,492,489,494,489
495,492,490,494,489
495,493,490,494,489
495,493,490,494,489
495,493,489,494,489
495,493,488,494,489
495,493,488,494,489
495,493,487,494,489
495,493,487,494,489
495,493,487,494,489
495,493,487,495,490
495,493,488,494,490
495,494,489,494,490
495,493,489,494,490
495,493,490,494,490
495,493,490,494,490
495,493,489,494,490
495,493,489,494,490
495,493,488,494,489
495,493,487,494,490
495,493,487,494,489
495,493,487,494,489
495,493,487,494,489
495,493,488,494,489
495,492,488,494,489
495,493,489,494,489
495,493,489,494,490
495,493,489,494,489
495,493,489,494,489
495,493,489,494,489
495,493,488,494,490
495,492,487,494,490
495,492,487,494,489
495,493,486,494,489
495,494,487,494,490
495,493,487,494,489
495,493,488,494,489
495,493,489,494,489
495,493,489,494,489
495,491,489,494,489
495,494,490,494,489
495,494,490,494,490
495,493,489,494,490
495,493,488,494,489
495,493,487,494,489
495,493,487,494,489
495,493,486,494,490
495,493,487,494,490
495,493,487,494,490
495,493,488,494,490
495,493,489,494,489
495,493,489,494,489
495,493,490,494,489
495,493,490,494,489
495,493,489,494,490
495,493,488,494,489
495,494,488,494,490
495,493,487,494,490
495,493,487,493,489
495,493,487,494,489
495,493,487,493,489
495,493,488,493,489
495,493,489,495,489
495,493,489,494,489
495,493,490,494,489
495,493,490,494,490
495,493,489,494,490
495,493,489,494,490
495,493,488,494,490
495,494,488,494,490
495,494,487,495,490
495,495,487,494,489
495,493,487,494,489
495,493,488,494,489
495,493,488,494,490
495,493,489,494,490
495,493,490,494,490
495,493,490,494,490
495,493,490,494,490
495,493,489,494,489
495,494,489,494,490
495,493,488,494,490
495,493,487,494,490
495,493,487,494,490
495,494,487,494,490
495,493,487,494,489
495,494,488,494,490
495,492,489,494,490
495,493,489,494,490
495,493,490,494,490
495,493,490,494,490
495,493,490,494,489
495,493,489,494,490
495,493,488,494,489
495,493,488,494,489
495,493,487,494,490
495,493,487,494,490
495,493,487,494,490
495,493,487,494,490
495,493,488,494,489
495,493,489,494,490
495,493,490,494,490
495,493,490,494,490
495,493,490,494,490
495,493,490,494,490
495,493,489,494,490
495,493,488,494,490
495,493,487,494,490
495,493,487,494,490
495,493,487,494,490
495,493,487,494,490
495,493,488,494,490
495,493,488,494,489
495,493,489,494,490
495,493,489,494,490
495,493,490,494,490
495,493,490,494,490
495,493,489,494,489
495,493,488,494,490
495,493,487,494,490
495,493,487,494,490
496,493,486,494,489
495,494,487,494,490
495,493,487,494,490
495,491,488,494,490
495,495,489,494,490
495,494,490,494,490
495,492,490,494,490
495,493,490,494,490
495,493,489,494,489
495,493,489,494,489
495,493,488,494,489
495,494,487,494,490
495,493,487,494,490
495,493,487,494,490
495,493,487,494,490
495,493,488,495,490
495,493,488,494,490
495,493,489,494,490
495,493,489,494,490
495,493,490,494,490
495,493,489,494,490
495,493,489,494,490
495,493,488,494,490
495,493,487,494,490
495,493,487,494,490
495,493,486,494,490
495,493,487,494,490
495,493,487,494,490
495,493,488,494,490
495,493,489,494,490
495,493,489,494,490
495,494,490,494,490
495,493,490,494,490
495,493,489,494,490
495,493,489,494,490
495,493,488,494,490
495,493,487,494,490
495,493,487,494,489
495,494,487,494,489
496,495,487,494,490
495,493,488,494,489
495,494,488,494,489
495,493,489,494,490
495,493,490,494,491
495,493,490,494,490
495,492,490,494,490
495,493,489,494,490
495,494,489,494,490
495,493,488,494,490
495,493,487,495,490
495,493,487,494,490
495,494,487,494,490
495,493,487,494,490
495,492,488,494,490
495,493,489,494,490
495,493,489,494,490
495,493,490,494,490
495,492,489,494,490
495,493,489,494,490
495,494,489,494,489
495,493,488,494,490
495,493,488,494,490
495,493,487,494,489
495,493,487,494,489
495,493,487,494,490
495,493,488,494,490
495,493,488,494,490
495,493,489,494,490
495,493,490,494,490
495,493,490,494,490
495,493,490,494,490
495,494,490,494,489
495,495,489,494,489
495,492,488,494,490
495,493,487,494,490
495,493,487,494,490
495,493,487,494,490
495,493,487,494,490
495,494,488,494,490
495,493,489,494,490
495,494,490,494,490
495,493,490,494,490
495,493,490,494,490
495,493,490,494,490
495,493,489,494,490
495,493,488,494,490
495,493,488,494,490
495,493,487,494,490
495,493,487,494,490
495,493,487,494,490
495,493,487,494,490
495,493,488,494,490
495,493,489,494,490
495,493,489,494,490
495,493,490,494,490
495,493,490,494,490
495,493,489,494,490
495,493,489,494,490
495,493,488,494,490
495,493,487,494,490
495,493,487,494,490
495,493,487,494,490
495,493,487,494,490
495,493,488,494,490
495,493,489,494,489
495,493,489,494,490
495,493,489,494,490
495,493,490,494,490
495,493,490,494,490
495,493,489,494,490
495,496,489,494,490
495,492,488,494,490
495,493,487,494,490
495,493,487,494,490
495,493,487,494,490
495,493,487,494,490
495,493,488,494,490
495,493,489,494,490
495,493,489,494,490
495,493,490,494,490
495,493,490,494,490
495,493,490,494,490
495,493,489,494,490
495,493,488,494,490
495,493,487,494,490
495,493,487,494,490
495,493,487,494,490
495,493,487,494,490
495,493,487,494,490
495,493,489,494,490
495,493,489,494,490
495,493,490,494,490
495,493,490,494,490
495,493,490,494,490
495,493,489,494,490
495,491,488,494,490
495,495,488,494,490
495,494,487,494,490
495,493,487,494,490
495,493,487,494,490
495,493,487,494,490
495,493,488,494,490
495,494,489,494,490
495,493,489,494,490
495,494,490,494,490
495,493,490,494,490
495,493,490,494,490
495,493,489,494,490
495,493,488,494,490
495,493,488,494,490
495,493,487,494,490
495,493,487,494,490
495,493,487,494,490
495,493,488,494,490
495,493,488,494,490
495,493,489,494,490
495,493,490,494,490
495,493,490,494,490
495,494,490,494,490
495,493,489,494,490
495,493,489,494,489
495,493,488,495,490
495,493,487,494,490
495,493,486,494,490
495,493,487,494,490
495,493,487,494,490
495,493,488,494,490
495,493,489,494,490
495,493,489,494,490
495,493,490,494,490
495,494,490,494,490
495,493,490,494,490
495,493,489,494,490
495,493,488,494,490
495,493,488,494,490
495,493,487,494,490
495,493,487,494,490
495,493,487,494,490
495,493,487,494,490
495,494,488,494,490
495,493,489,494,490
495,493,490,494,490
495,493,490,494,490
495,493,490,494,489
495,493,489,494,490
495,493,489,494,490
495,493,488,494,490
495,492,487,495,490
495,494,487,494,489
495,495,487,495,490
495,493,487,495,490
495,493,488,494,490
495,493,489,494,491
495,493,490,494,491
495,493,490,494,490
495,493,490,494,490
495,493,490,494,490
495,493,489,494,490
495,493,488,494,490
495,493,488,494,490
495,493,487,494,490
495,491,486,495,490
495,495,487,494,490
495,494,487,494,490
495,493,488,494,490
495,493,489,494,490
495,494,490,494,490
495,493,490,494,490
495,493,490,494,490
495,493,490,494,490
495,493,489,494,490
495,493,488,494,490
495,493,488,494,490
495,494,487,494,490
495,493,487,494,490
495,493,487,494,489
495,493,488,494,490
495,493,489,494,490
495,494,489,494,490
495,493,490,494,490
495,493,490,494,490
495,493,490,494,490
495,493,489,494,490
496,493,488,494,490
496,493,488,494,490
495,493,487,494,490
495,493,487,494,490
495,493,487,493,490
495,493,487,494,490
495,493,488,494,490
495,493,489,494,490
495,493,489,494,490
495,493,490,494,490
495,493,490,494,490
495,493,489,494,490
495,493,489,494,490
495,493,488,494,490
495,493,487,494,490
495,493,487,494,490
495,493,486,494,490
495,493,487,494,489
495,493,487,494,490
495,493,488,494,490
495,493,489,494,490
495,493,489,494,490
495,493,489,494,490
495,493,489,494,490
495,494,489,494,490
495,493,488,494,490
495,493,487,494,490
495,493,486,494,490
495,493,486,494,490
495,493,486,494,490
495,494,487,494,489
495,493,487,494,490
495,493,488,494,490
495,494,489,494,490
495,492,489,494,490
495,493,489,494,490
495,491,488,494,490
495,494,488,494,490
495,493,487,494,490
495,493,487,494,490
495,493,486,494,490
495,493,486,495,490
495,493,486,494,490
495,493,487,494,490
495,494,488,494,490
495,492,488,494,490
495,493,489,494,490
495,493,489,494,490
495,493,489,494,490
495,492,488,494,490
495,491,487,494,490
495,494,487,494,490
495,493,486,494,490
495,493,486,494,490
495,493,486,494,490
495,493,487,494,490
495,493,487,494,490
495,493,488,494,490
495,493,489,494,490
495,493,489,494,490
495,493,489,494,490
495,493,489,494,489
495,493,489,494,489
495,493,488,494,490
495,493,487,494,490
495,493,486,494,490
495,494,486,494,490
495,493,486,494,490
495,493,487,494,490
495,493,488,494,490
495,493,488,494,490
495,493,489,494,490
495,493,489,494,490
495,493,489,494,490
495,493,489,494,490
495,493,488,494,490
495,493,487,494,490
495,493,487,494,490
495,494,486,494,490
495,493,486,494,490
495,493,487,494,490
495,493,487,495,490
495,493,488,494,490
495,493,489,494,490
495,493,489,494,490
495,493,489,494,490
495,493,489,494,490
495,493,489,494,490
495,493,488,494,490
495,493,488,494,490
495,493,487,494,490
495,493,487,494,490
495,493,487,494,490
495,493,487,494,489
495,493,488,494,490
495,493,489,494,490
495,493,489,494,490
495,493,490,494,490
495,492,490,494,490
495,493,489,494,490
495,494,489,494,490
495,493,488,494,490
495,494,487,494,490
495,493,487,494,490
495,493,487,494,490
495,493,487,494,490
495,493,488,494,490
495,493,488,494,490
495,493,489,494,490
495,493,490,494,490
495,493,490,494,490
495,493,490,494,490
495,493,489,494,490
495,493,488,494,490
495,493,487,494,490
495,493,487,494,490
495,493,487,494,490
495,493,487,494,490
495,493,487,494,490
495,493,488,494,490
495,493,489,494,490
495,494,490,494,490
495,493,490,494,490
495,493,490,495,490
495,493,490,495,490
495,492,488,494,490
495,491,488,494,490
495,494,487,494,489
495,494,487,494,490
495,494,487,495,490
495,493,487,495,490
495,493,488,494,490
495,493,489,494,490
495,493,489,494,490
495,493,490,494,490
496,493,490,494,490
495,493,490,494,490
495,493,489,494,490
495,493,488,494,490
495,493,488,494,490
495,493,487,494,490
495,493,487,494,490
495,493,487,494,490
495,493,487,494,489
495,493,488,494,490
495,493,489,494,490
495,493,489,494,490
495,493,490,494,490
495,493,490,494,490
495,493,490,494,490
495,493,489,494,490
495,493,488,494,490
495,494,487,494,490
495,493,487,494,490
495,493,486,494,489
495,493,487,494,490
495,493,487,494,490
495,493,488,495,490
495,493,489,494,490
495,493,489,494,490
495,493,490,494,490
495,495,490,494,490
495,493,489,494,490
495,493,489,494,490
495,493,488,494,490
495,493,487,494,490
495,493,487,494,490
495,493,487,494,490
495,494,487,494,490
495,494,488,494,490
495,492,489,494,490
495,492,489,494,490
495,493,490,494,490
495,493,490,494,490
495,493,490,494,490
495,493,489,494,490
495,493,488,494,489
495,494,488,494,490
495,493,487,494,490
495,493,487,494,490
495,493,487,494,490
495,493,487,494,490
495,493,488,495,490
495,493,489,494,490
495,493,489,494,490
495,493,490,494,490
495,493,490,494,489
495,493,489,494,489
495,493,489,494,489
495,493,488,494,489
495,493,487,495,490
495,493,487,495,490
495,493,487,494,490
495,493,487,494,491
495,493,488,495,491
495,493,489,494,490
495,493,489,494,491
495,493,490,494,490
495,493,490,494,490
495,493,489,494,490
495,493,489,494,490
495,493,488,494,490
495,493,487,494,489
495,494,487,494,490
495,493,486,494,490
495,493,486,494,490
495,493,487,494,490
495,492,488,494,490
495,493,488,494,490
495,492,489,494,490
495,491,489,495,490
495,495,490,494,490
495,494,489,494,490
495,493,489,494,490
495,493,488,494,490
495,493,487,494,490
495,493,486,494,489
495,493,486,494,489
495,493,487,494,490
495,493,487,494,489
495,493,488,494,490
495,493,489,494,490
495,493,489,494,490
495,493,489,494,490
495,493,489,495,490
495,493,489,494,489
495,493,488,494,490
495,493,487,494,490
495,493,487,494,490
495,493,486,494,490
495,493,486,494,489
495,494,487,494,489
495,495,488,494,490
495,493,489,495,490
495,492,489,495,490
495,491,489,494,490
495,493,490,494,490
495,495,490,494,490
495,492,489,494,490
495,493,488,494,490
495,493,487,494,490
495,493,487,494,490
495,493,487,494,490
495,494,487,494,490
495,493,487,494,490
495,493,488,494,489
495,493,489,495,489
495,493,489,494,490
495,493,490,494,489
495,493,490,494,490
495,493,489,494,490
495,493,488,494,490
495,493,488,494,490
495,493,487,494,490
495,493,486,494,490
495,493,486,494,490
495,493,487,494,490
495,493,488,494,490
495,493,489,494,490
495,493,489,494,490
495,493,490,494,490
495,493,490,494,490
495,493,489,495,490
495,493,489,494,490
495,493,488,494,490
495,493,487,494,490
495,493,487,494,490
496,493,487,494,490
495,494,487,494,489
495,494,488,494,490
495,492,488,494,490
495,493,489,494,490
495,493,490,494,490
495,493,490,494,490
495,493,490,494,490
495,493,489,494,489
495,494,489,494,490
495,493,488,494,490
495,493,487,494,489
495,493,487,494,489
495,493,487,494,490
495,493,487,494,490
495,494,488,494,490
495,493,489,494,490
495,493,489,494,490
495,493,490,494,490
495,493,490,494,490
495,493,490,494,490
495,492,489,494,490
495,492,488,494,490
495,494,488,494,490
495,493,487,494,490
495,493,487,494,490
495,493,487,494,490
495,494,488,494,490
495,493,488,494,490
495,493,489,494,489
495,493,490,494,490
495,493,490,494,490
495,493,490,494,490
495,493,489,494,490
495,493,489,494,490
495,493,488,494,490
495,493,487,494,490
496,492,487,494,490
495,494,487,493,489
495,493,487,494,490
496,494,488,494,490
495,492,489,495,490
495,493,489,495,490
495,493,490,494,490
495,493,490,494,490
495,493,490,494,489
495,493,489,494,490
495,493,488,494,490
495,493,488,494,490
495,493,487,494,490
495,492,486,494,490
495,492,487,494,490
495,493,487,494,490
495,493,488,494,490
495,493,489,494,490
495,493,489,494,490
495,493,490,494,490
495,493,490,494,490
495,493,489,494,490
495,493,489,494,489
495,493,488,494,489
495,493,487,494,490
495,493,486,494,489
495,493,486,494,489
495,493,487,494,490
495,493,487,494,490
495,493,488,494,490
495,493,489,494,490
495,493,490,494,490
495,493,490,494,490
495,493,490,494,489
495,493,489,494,490
495,493,488,494,490
495,493,488,494,489
495,493,487,494,489
495,493,487,494,490
495,493,487,494,490
495,493,487,494,490
495,493,488,495,490
495,493,489,494,490
495,493,489,494,490
495,493,490,494,490
495,493,490,494,489
495,493,490,494,490
495,493,489,494,489
495,493,488,494,490
495,493,487,494,490
495,493,487,494,490
495,493,487,494,490
495,493,487,494,490
495,493,488,494,490
495,493,488,494,490
495,493,489,494,490
495,493,490,494,490
495,494,490,494,489
495,493,490,495,490
495,492,489,494,490
495,493,489,494,490
495,494,488,494,490
495,493,487,494,490
495,492,487,494,489
495,494,487,494,489
495,493,487,494,490
495,492,488,494,490
495,494,489,494,490
495,493,489,494,489
495,493,490,494,490
495,494,490,494,490
495,493,490,495,490
495,493,489,494,489
495,493,488,494,490
495,493,487,494,490
495,493,487,494,490
495,493,487,494,490
495,493,487,494,490
495,493,487,494,489
495,493,488,494,489
495,493,489,494,490
495,493,489,494,489
495,493,490,494,490
495,493,490,494,490
496,493,489,494,490
495,493,489,494,490
495,493,488,494,490
495,493,487,494,490
495,493,487,493,490
495,493,487,494,490
495,493,487,494,489
495,493,488,494,490
495,493,489,494,490
495,493,489,494,490
495,493,490,494,490
495,493,490,494,490
495,493,490,494,489
495,493,489,494,489
495,493,488,494,489
495,493,487,494,490
495,493,487,494,490
495,493,487,494,490
495,493,487,494,489
495,493,487,494,490
495,493,488,494,490
495,493,489,494,490
495,493,489,494,489
495,493,490,494,490
495,493,490,494,489
495,493,489,494,490
495,493,489,494,490
495,493,488,494,490
495,494,487,494,489
495,493,487,494,489
495,493,487,494,490
495,493,487,494,490
495,493,488,494,490
495,493,489,494,489
495,493,489,494,489
495,493,490,494,490
495,493,490,494,489
495,493,490,494,489
495,492,489,494,489
495,492,488,494,489
495,495,488,494,490
495,493,487,494,489
495,493,487,494,489
495,493,487,494,490
495,493,487,494,489
495,493,488,495,489
495,493,489,494,489
495,493,490,494,489
495,493,490,494,489
495,493,490,494,489
495,493,490,494,489
495,493,489,494,490
495,493,488,494,489
495,493,487,495,489
495,493,487,494,489
495,493,487,494,489
495,493,487,494,489
495,493,487,494,489
495,493,488,494,489
495,493,489,494,489
495,493,490,494,489
495,493,490,494,490
495,493,490,494,489
495,494,489,494,489
495,493,488,495,490
495,493,488,495,489
495,493,487,494,490
495,493,487,494,489
495,493,487,494,490
495,493,487,494,489
495,493,488,494,489
495,493,489,494,489
495,493,489,494,489
495,493,490,494,489
495,493,490,494,490
495,493,490,494,489
495,493,489,494,489
495,493,488,494,489
495,493,488,495,489
495,493,487,494,490
495,493,487,494,489
495,493,487,494,489
495,493,488,494,490
495,493,489,494,489
495,493,489,494,489
495,493,490,494,489
495,493,490,494,490
495,493,490,494,489
495,493,490,495,490
495,493,489,494,489
495,493,488,494,489
495,493,487,494,489
495,493,487,494,489
495,493,487,494,489
495,493,487,495,489
495,493,488,494,489
495,493,489,494,489
495,494,490,494,490
495,493,490,494,489
495,493,490,494,489
495,493,490,494,490
495,493,489,494,489
495,493,488,494,490
495,493,488,494,489
495,493,487,494,489
495,493,487,494,489
495,493,487,494,489
495,493,488,494,489
495,493,489,494,489
495,493,489,494,489
495,493,490,494,490
495,493,490,494,490
495,493,490,494,489
495,493,489,494,489
495,493,489,495,490
495,493,488,494,489
495,493,487,494,489
495,493,487,494,489
495,493,487,494,489
495,493,487,494,489
495,493,488,494,489
495,493,489,494,489
495,493,489,494,489
495,493,490,494,490
495,493,490,494,489
495,493,490,494,489
495,493,489,494,489
495,493,488,494,489
495,493,488,494,489
495,493,487,495,489
495,493,487,494,489
495,493,487,494,489
495,493,487,495,490
495,493,488,495,490
495,493,489,494,489
495,493,489,494,489
495,493,490,494,489
495,493,490,494,489
495,493,489,494,489
495,493,488,494,489
495,492,488,494,489
495,495,488,494,489
495,495,487,494,489
495,491,486,495,489
495,490,486,495,490
495,493,487,494,489
495,493,488,494,489
495,493,489,494,489
495,493,489,495,489
495,492,489,494,489
495,493,489,494,489
495,494,489,494,489
495,493,488,495,489
495,493,488,494,489
495,493,487,495,489
495,493,487,494,489
495,493,487,494,489
495,493,487,495,489
495,493,488,494,489
495,493,489,494,489
495,493,489,494,489
495,493,490,494,489
495,493,490,495,489
495,493,489,494,489
495,493,489,494,489
495,493,488,494,489
495,493,487,494,489
495,493,487,494,489
495,494,487,494,489
495,493,487,494,490
495,493,487,494,489
495,493,488,494,489
495,493,489,494,489
495,493,489,495,489
495,493,490,495,489
495,493,489,494,489
495,493,489,494,489
495,493,488,494,489
495,493,488,494,489
495,493,487,494,489
495,493,487,495,489
495,493,487,495,489
495,493,487,494,489
495,493,488,494,489
495,493,489,494,489
495,493,489,494,489
495,493,490,494,489
495,494,490,495,489
495,493,490,494,490
495,492,489,494,489
495,493,488,494,489
495,493,487,494,489
495,492,487,494,489
495,493,486,495,489
495,493,487,494,490
495,493,487,494,489
495,493,488,494,490
495,493,489,495,489
495,492,489,495,489
495,492,489,494,489
495,493,489,494,489
495,493,489,494,489
495,493,488,494,489
495,493,487,494,489
495,493,487,494,489
495,493,486,494,489
495,493,486,494,489
495,493,487,494,489
495,493,488,494,489
495,493,489,495,489
495,492,489,495,489
495,493,489,494,489
495,492,490,494,490
495,491,489,495,490
495,493,489,494,489
495,494,488,494,489
495,493,487,494,489
495,493,487,494,489
495,493,486,494,489
495,493,487,494,489
495,493,487,494,489
495,493,488,494,489
495,493,489,494,489
495,493,489,494,489
495,493,490,494,489
495,494,490,494,489
495,493,489,494,489
495,493,489,495,489
495,493,488,495,489
495,493,487,494,489
495,493,487,494,489
495,493,487,494,489
495,493,487,494,489
495,493,488,494,489
495,493,489,495,489
495,493,489,494,489
495,493,489,495,489
496,493,490,494,489
495,493,490,494,489
495,493,489,495,489
495,493,488,494,489
495,493,487,494,489
495,493,487,494,489
495,493,486,495,489
495,493,487,494,489
495,493,487,494,489
495,493,488,494,489
495,493,489,493,489
495,493,489,494,489
495,493,490,494,489
495,493,489,494,489
495,493,489,494,489
495,493,488,494,489
495,493,488,494,489
495,493,487,494,489
495,493,486,494,489
495,493,486,494,490
495,493,487,494,489
495,494,488,494,489
495,494,488,494,489
495,492,489,495,489
495,493,489,494,489
495,493,490,494,489
495,493,490,494,489
495,494,489,494,489
495,492,488,494,489
495,493,488,494,489
495,493,487,494,489
495,493,486,494,489
495,493,486,494,489
495,493,487,495,489
495,493,488,494,489
495,493,489,494,489
495,493,489,494,489
495,493,490,494,489
495,493,490,494,489
495,493,489,494,489
495,493,489,494,489
495,493,488,494,489
495,493,487,494,489
495,493,487,495,489
495,493,486,494,489
495,493,487,494,489
495,493,487,494,489
495,493,488,494,489
495,493,489,494,489
495,493,490,494,489
495,493,490,494,490
495,493,490,494,489
495,492,489,495,489
495,493,488,494,489
495,492,487,494,489
495,493,487,494,489
495,493,486,494,489
495,492,486,494,489
495,492,487,494,489
495,493,487,494,489
495,491,488,494,489
495,495,489,494,489
495,493,489,494,489
495,493,490,494,489
495,493,489,494,489
495,493,489,494,489
495,493,488,494,489
495,493,487,494,489
495,493,487,494,489
495,493,486,494,489
495,493,487,494,489
495,493,487,494,489
495,493,488,494,489
495,493,489,494,489
495,493,489,494,489
495,493,490,494,489
495,493,490,494,489
495,493,489,494,489
495,492,488,494,489
495,493,488,494,489
495,493,487,494,489
495,493,487,495,489
495,494,487,494,488
495,493,487,494,488
495,493,488,494,489
495,493,489,495,489
495,493,489,495,489
495,493,489,494,489
495,493,490,494,489
495,492,489,494,489
495,492,489,495,489
495,492,488,495,489
495,493,487,494,489
495,493,487,495,489
495,492,486,495,490
495,492,486,494,489
495,493,487,494,489
495,493,488,494,489
495,493,489,494,489
495,493,489,494,489
495,493,490,494,489
495,493,489,494,489
495,493,489,494,489
495,493,488,494,489
495,493,488,494,489
495,493,487,494,489
495,493,487,494,489
495,493,486,494,489
495,493,487,495,489
495,493,488,494,489
495,493,488,494,489
495,493,489,494,489
495,493,490,494,489
495,493,490,494,489
495,493,489,494,489
495,493,489,494,489
495,493,488,494,489
495,493,487,494,489
495,493,487,494,489
495,493,486,494,489
495,493,486,494,489
495,493,487,494,489
495,493,488,494,489
495,493,489,494,489
495,493,489,494,489
495,493,489,494,489
495,493,489,494,489
495,494,489,494,489
495,493,488,494,489
495,492,488,494,489
495,493,487,494,488
495,492,486,494,489
495,492,486,495,489
495,494,487,494,489
495,494,488,494,490
495,491,488,494,489
495,493,489,494,489
495,491,489,495,489
495,493,489,494,489
495,493,489,494,489
495,493,489,494,489
495,493,488,494,489
495,493,487,494,489
495,493,487,494,489
495,493,486,494,489
495,493,486,495,489
495,493,487,494,489
495,493,488,494,489
495,493,488,494,489
495,492,489,494,489
495,493,489,494,489
495,493,489,494,489
495,493,489,494,489
495,493,488,494,489
495,493,488,494,489
495,493,487,494,489
495,493,486,495,489
495,493,486,494,489
495,493,486,494,489
495,493,487,494,489
495,493,488,495,489
495,493,489,494,489
496,493,489,494,489
495,493,490,494,489
495,493,489,494,489
495,493,489,494,489
495,493,488,495,489
495,493,487,494,489
495,493,487,494,489
495,493,486,494,489
495,493,486,494,489
495,493,487,494,489
495,493,488,494,489
495,493,488,494,489
495,493,489,494,489
495,493,489,494,489
495,493,489,495,489
495,493,489,494,489
495,493,489,494,489
495,493,488,494,489
495,493,487,494,489
495,493,487,494,489
495,493,486,494,489
495,493,486,494,489
495,493,487,494,489
495,493,488,494,489
495,493,489,495,489
495,493,489,494,489
495,493,490,494,489
495,493,489,494,489
495,493,489,494,489
495,493,488,494,489
495,494,488,494,489
495,493,487,495,489
495,493,486,494,489
495,493,486,494,489
495,492,486,495,489
495,493,487,494,489
495,493,488,494,489
495,493,489,494,489
495,493,489,494,489
495,493,489,494,489
495,493,489,494,489
495,494,489,494,490
495,495,488,494,489
495,492,487,495,489
495,492,486,494,489
495,493,486,494,489
495,493,486,494,489
495,492,487,494,489
495,493,488,494,489
495,493,488,494,489
495,493,489,494,489
495,493,489,494,489
495,493,489,494,489
495,493,489,494,489
495,493,488,494,489
495,493,488,494,489
495,493,487,494,489
495,493,487,494,489
495,492,486,494,489
495,493,487,495,489
495,492,487,494,489
495,493,488,495,489
495,492,489,494,489
495,493,489,494,489
495,492,489,494,490
495,491,489,494,489
495,494,489,494,489
495,493,488,494,489
495,493,487,494,489
495,493,487,494,489
495,494,487,494,489
495,493,487,494,489
495,492,487,495,489
495,493,488,494,489
495,493,489,494,489
495,493,489,494,489
495,493,489,494,489
495,493,489,494,489
495,493,489,494,489
495,493,488,494,489
495,493,488,494,489
495,493,487,494,489
495,493,486,494,489
495,493,486,494,489
495,493,487,494,489
495,493,487,494,489
495,493,488,494,489
495,493,489,494,489
495,493,489,494,489
495,493,489,494,489
495,493,489,494,489
495,493,489,495,489
495,493,488,494,489
495,493,488,494,489
495,493,487,495,489
495,493,486,495,489
495,493,486,494,489
495,493,487,494,489
495,493,488,494,489
495,493,489,494,489
495,493,489,494,489
495,493,489,494,489
495,493,490,494,489
495,493,489,494,489
495,493,489,494,489
495,493,488,494,489
495,493,487,495,489
495,493,486,494,489
495,493,486,495,489
495,493,486,494,489
495,493,487,495,489
495,493,488,494,489
495,493,489,494,489
495,493,489,494,489
495,493,490,494,489
495,493,489,494,489
495,493,489,494,489
495,492,488,495,489
495,493,487,494,489
495,493,487,494,489
495,493,486,494,489
495,493,486,494,489
495,493,487,494,489
495,493,487,494,489
495,494,488,494,489
495,493,489,494,489
495,493,490,495,489
495,491,489,494,489
495,493,489,495,489
495,492,488,495,489
495,493,488,494,489
495,493,487,494,489
495,494,487,494,489
495,493,486,494,489
495,493,487,494,489
495,493,487,494,489
495,493,488,494,489
495,493,489,494,489
495,493,489,495,489
495,493,490,494,489
495,493,489,495,489
495,493,489,494,489
495,493,488,495,489
495,493,488,494,489
495,493,487,494,489
495,493,486,494,489
495,493,486,495,489
495,493,487,494,489
495,493,487,495,489
495,493,488,494,489
495,493,489,494,489
495,493,489,494,489
495,493,489,494,489
495,493,489,494,489
495,493,489,494,489
495,493,488,494,489
495,493,487,494,489
495,493,487,494,489
495,493,486,494,489
495,493,486,494,489
495,493,487,494,489
495,493,488,494,489
495,493,489,494,489
495,493,489,495,489
495,493,489,494,489
495,493,489,494,489
495,493,489,494,489
495,493,488,494,489
495,493,488,494,489
495,493,487,494,489
495,493,486,494,489
495,493,487,494,489
495,493,487,494,489
495,493,487,494,489
495,493,488,494,489
495,493,489,494,489
495,493,489,494,489
495,493,489,495,489
495,493,489,494,489
495,493,489,494,489
496,494,488,494,489
495,493,487,494,489
495,493,487,494,489
495,493,487,495,489
495,493,486,494,489
495,493,487,494,489
495,494,488,494,489
495,492,488,494,489
495,493,489,494,489
495,492,489,494,489
495,493,490,494,489
495,492,489,494,489
495,492,488,494,489
495,493,488,494,489
495,493,487,494,489
495,494,487,494,489
495,494,487,494,489
495,491,486,494,489
495,491,487,494,489
495,494,488,494,489
495,493,489,494,489
495,493,489,494,489
495,493,490,494,489
495,493,489,494,489
495,493,489,494,489
495,493,488,494,489
495,493,487,494,489
495,493,487,494,489
495,493,486,494,489
495,493,486,494,489
495,493,487,494,489
495,493,488,494,489
495,493,488,494,489
495,493,489,494,489
495,493,489,494,489
495,493,490,494,489
495,493,489,494,489
495,493,489,494,489
495,493,488,494,489
495,493,487,494,489
495,493,487,494,489
495,493,487,494,489
495,493,487,494,489
495,493,487,495,489
495,493,488,494,489
495,493,489,494,489
495,493,489,494,489
496,493,490,494,488
495,493,490,494,489
495,493,489,494,489
495,493,489,494,489
495,493,488,494,489
495,493,487,494,489
495,493,486,494,489
495,493,487,494,489
495,493,487,494,489
495,493,488,494,489
495,493,489,494,489
495,493,489,494,489
495,493,490,494,489
495,493,490,494,489
495,493,489,494,489
495,493,489,494,489
495,493,488,494,489
495,493,487,494,489
495,493,487,494,489
495,493,486,494,489
495,493,486,494,489
495,493,487,494,489
495,493,488,494,489
495,493,489,494,489
495,493,489,494,489
495,493,490,494,489
495,494,490,494,489
495,493,489,494,489
495,493,489,494,489
495,493,488,494,489
495,493,487,494,489
495,493,486,494,489
495,493,486,495,489
495,493,487,494,489
495,493,487,495,489
495,493,488,494,489
495,493,489,494,489
495,493,489,494,489
495,493,490,494,489
495,493,489,494,489
495,493,489,495,489
495,493,488,495,489
495,493,487,494,489
495,495,487,494,489
495,493,486,494,489
495,493,487,494,489
495,493,487,494,489
495,494,488,494,489
495,493,489,495,489
495,490,489,495,489
495,493,489,494,489
495,493,489,494,489
495,493,489,494,489
495,493,489,494,489
495,493,488,494,489
495,493,487,495,489
495,493,486,494,489
495,492,486,495,489
495,492,486,495,489
495,494,487,494,489
495,493,488,494,489
495,493,489,494,489
495,493,489,495,489
495,493,489,494,489
495,493,489,495,489
495,493,489,494,489
495,493,488,494,489
495,493,487,494,489
495,493,487,495,489
495,493,486,494,489
495,493,486,494,489
495,493,487,494,489
495,493,488,494,489
495,493,488,494,489
495,493,489,494,489
495,493,489,494,489
495,493,489,494,489
495,493,489,494,489
495,493,489,495,489
495,493,488,494,489
495,493,487,494,489
495,493,487,495,489
495,493,486,494,489
495,493,487,494,489
495,493,487,495,489
495,493,488,494,489
495,493,489,494,489
495,493,489,494,489
495,493,490,494,489
495,493,489,494,489
495,493,489,494,489
495,493,488,494,489
495,493,488,494,489
495,493,487,494,489
495,493,486,494,489
495,493,486,494,489
495,493,487,494,489
495,493,488,494,489
495,493,488,494,489
495,493,489,495,489
495,493,489,494,489
495,494,490,494,489
495,493,489,494,489
495,493,489,494,489
495,493,488,494,489
495,493,487,494,489
495,493,487,494,489
495,493,487,494,489
495,493,487,495,489
495,493,487,495,489
495,493,488,494,489
495,493,489,494,489
495,493,489,494,489
495,493,490,495,489
495,493,489,495,489
495,493,489,494,489
495,493,488,494,489
495,493,488,494,489
495,493,487,494,489
495,493,486,494,489
495,493,486,494,489
495,493,487,494,489
495,493,488,494,489
495,493,488,495,489
495,493,489,494,489
495,494,490,494,489
495,493,490,495,489
495,493,489,494,489
495,493,489,494,489
495,493,488,494,489
495,494,487,494,489
495,494,487,494,489
495,490,486,495,489
495,494,486,494,489
495,493,487,494,489
495,493,488,495,489
495,493,489,495,489
495,493,489,495,489
495,493,489,494,489
495,493,489,495,489
495,493,489,494,489
495,493,488,494,489
495,493,488,494,489
495,493,487,494,489
495,493,486,494,489
495,493,486,494,489
495,493,486,494,489
495,493,487,495,489
495,493,488,494,489
495,494,489,494,489
495,493,489,495,489
495,493,490,494,489
495,493,489,494,489
495,493,489,494,488
495,493,488,495,489
495,493,488,494,489
495,493,487,495,489
495,493,486,494,489
495,493,487,494,489
495,493,487,495,489
495,493,488,494,489
495,493,489,494,489
495,493,489,494,489
495,493,489,494,489
495,493,489,494,489
495,493,489,494,489
495,493,489,494,489
495,493,488,494,489
495,493,487,494,489
495,493,486,494,489
495,493,486,494,489
495,493,487,494,489
495,493,487,494,489
495,493,488,494,489
495,493,489,494,489
495,493,489,494,489
495,493,490,494,489
495,493,489,494,489
495,493,489,495,489
495,493,488,494,489
495,493,487,494,489
495,493,487,494,489
495,493,486,494,489
495,493,486,494,489
495,493,487,494,489
495,492,487,494,489
495,493,488,494,489
495,495,489,495,489
495,492,489,495,489
495,492,489,494,489
495,493,489,494,489
495,493,489,494,489
495,493,488,494,489
495,493,487,494,489
495,493,487,494,489
495,494,486,494,489
495,492,486,495,489
495,493,487,495,489
495,493,488,494,489
495,493,489,494,489
495,493,489,494,489
495,493,490,494,489
495,492,489,494,489
495,493,489,494,489
495,494,488,494,489
495,493,487,495,489
495,493,487,494,489
495,494,486,494,489
495,495,487,494,489
495,493,487,494,489
496,493,488,494,489
495,493,489,495,489
495,493,489,495,489
495,493,489,494,489
495,493,490,494,489
495,493,489,494,489
495,493,489,494,489
495,493,488,495,489
495,493,487,494,489
495,493,487,494,489
495,493,486,494,489
495,493,486,494,489
495,493,487,494,489
495,493,488,494,489
495,494,489,494,489
495,493,489,495,489
495,493,489,494,489
495,493,489,494,489
495,493,489,494,489
495,493,488,494,489
495,493,488,494,489
495,493,487,494,489
495,493,486,494,489
495,493,486,494,489
495,493,486,495,489
495,493,487,495,489
495,493,488,494,489
495,493,489,494,489
495,493,489,494,489
495,493,490,494,489
495,493,489,494,489
495,493,489,494,489
495,493,488,494,489
495,493,487,495,489
495,493,487,494,489
495,493,486,494,489
495,493,486,494,489
495,493,487,494,489
495,493,488,494,489
495,493,488,494,489
495,493,489,494,489
495,493,489,494,489
495,493,489,494,489
495,493,489,494,489
495,493,488,494,489
495,493,487,494,489
495,493,487,494,489
495,493,486,494,489
495,493,486,494,489
495,493,486,494,489
495,493,487,494,489
495,493,488,494,489
495,493,489,494,489
495,493,489,494,489
495,493,490,494,489
495,493,489,494,489
495,493,489,494,489
495,493,488,494,489
495,493,487,494,489
495,493,486,494,489
495,493,486,494,489
495,492,486,494,489
495,493,487,494,489
495,493,487,494,489
495,491,488,494,489
495,491,488,494,489
495,495,489,494,489
495,495,489,494,489
495,493,489,495,489
495,493,488,495,489
495,493,488,494,489
495,493,487,494,489
495,493,486,494,488
495,493,486,494,489
495,493,486,494,489
495,493,487,494,489
495,493,488,494,489
495,493,488,494,489
495,493,489,494,489
495,493,489,494,489
495,493,489,494,489
495,493,488,494,489
495,493,488,494,489
495,493,487,494,489
495,493,486,494,489
495,493,486,494,489
495,493,486,494,489
495,493,486,494,489
495,493,487,494,489
495,494,488,494,489
495,493,488,494,489
495,493,489,494,489
495,493,489,495,489
495,493,488,494,489
495,495,488,494,489
495,492,487,494,489
495,493,486,494,489
495,493,486,494,489
495,493,485,494,489
495,493,485,494,489
495,493,486,494,489
495,493,487,494,489
495,494,488,494,489
495,494,489,494,489
495,493,489,494,489
495,493,489,494,490
495,493,488,494,489
495,493,488,494,489
496,493,487,494,489
495,493,486,494,489
495,493,486,494,489
495,493,486,494,489
495,493,486,494,489
495,493,487,494,489
495,493,488,494,489
495,493,488,494,489
495,493,489,494,489
495,493,489,494,489
495,493,489,494,489
495,493,488,494,489
495,493,488,494,489
495,493,487,494,489
496,493,486,494,489
495,493,486,494,489
495,493,486,494,489
495,493,487,494,489
495,493,487,494,489
495,493,488,494,489
495,493,489,494,489
495,493,489,494,489
495,493,489,495,489
495,493,489,494,489
495,493,488,495,489
495,493,487,494,489
495,493,486,494,489
495,493,486,494,489
495,493,486,494,489
495,493,486,494,489
495,493,487,494,489
495,493,488,494,489
495,493,488,494,489
495,493,489,494,489
495,493,489,494,489
495,493,489,494,489
495,493,488,494,489
495,493,487,494,489
495,493,486,494,489
495,493,486,494,489
495,493,486,494,489
495,493,486,494,489
495,493,486,494,489
495,493,487,494,489
495,493,488,494,489
495,493,489,494,489
495,493,489,494,489
495,493,489,494,489
495,493,489,494,489
495,493,488,494,489
495,493,487,494,489
495,493,486,494,489
495,493,486,494,489
495,493,486,494,489
495,493,486,494,489
495,493,487,494,489
495,493,488,494,489
495,493,488,494,489
495,493,489,494,489
495,494,489,494,489
495,494,489,494,489
495,492,488,494,489
495,491,487,494,489
495,492,486,494,489
495,494,486,494,489
495,493,485,494,489
495,493,486,494,489
495,494,486,494,489
495,493,487,494,489
495,493,488,494,489
495,494,489,494,489
495,493,489,494,489
495,493,489,494,489
495,493,489,495,489
495,493,488,495,489
495,493,487,494,489
495,493,487,494,489
495,493,486,494,489
495,493,486,494,489
495,493,486,494,489
495,494,487,494,489
495,493,488,494,489
495,493,488,494,489
495,493,489,494,489
495,493,489,494,489
495,493,489,494,489
495,493,489,494,489
495,493,488,495,489
495,495,487,494,489
495,493,486,494,489
495,493,486,494,489
495,493,486,494,489
495,493,486,494,489
495,493,487,495,489
495,492,488,495,489
495,493,489,494,489
495,493,489,494,489
495,493,489,494,489
495,493,489,495,490
495,493,488,494,489
495,493,488,495,489
495,493,487,494,489
495,493,486,494,489
495,493,486,494,489
495,493,486,494,489
495,493,487,494,489
495,493,488,494,489
495,493,489,494,489
495,493,489,494,489
495,493,490,494,489
495,493,490,494,489
495,493,489,494,489
495,493,488,494,489
495,493,488,495,489
495,493,487,494,489
495,493,487,494,489
495,493,487,494,489
495,493,487,494,489
495,493,488,494,489
495,493,488,494,489
495,493,489,494,489
495,493,490,495,488
495,493,490,494,489
495,494,490,494,489
495,493,489,494,489
495,493,488,494,489
495,493,488,494,489
495,493,487,494,489
495,493,487,494,489
495,493,487,494,489
495,493,487,494,489
495,493,488,494,489
495,493,489,495,489
495,493,490,494,489
495,493,490,494,488
495,493,490,494,488
495,493,490,494,489
495,493,489,494,489
495,493,488,495,489
495,493,487,495,489
495,493,487,495,489
495,493,487,495,489
495,493,487,494,489
495,493,488,494,489
495,493,489,494,489
495,493,489,495,489
495,493,490,495,489
495,492,490,495,489
495,492,489,495,489
495,493,489,494,489
495,494,489,494,489
495,494,488,494,489
495,493,487,494,489
495,493,487,494,489
495,493,487,494,489
495,493,487,494,489
495,494,489,494,489
495,493,489,494,489
495,492,489,495,489
495,493,490,494,489
495,493,490,494,489
496,493,490,495,489
495,492,489,495,489
495,493,488,495,489
495,493,487,495,489
495,493,487,494,489
495,493,487,494,489
495,493,487,494,489
495,493,488,494,489
495,493,489,494,489
495,493,489,494,489
495,493,490,495,489
495,493,490,494,489
495,493,490,495,489
495,493,489,495,489
495,493,489,494,489
496,493,488,494,489
495,493,487,494,489
495,493,487,494,489
495,493,487,494,489
495,493,487,494,489
495,493,488,494,488
495,493,489,494,489
495,492,489,494,488
495,494,490,494,489
495,493,490,495,489
495,492,490,495,489
495,493,489,494,489
495,493,488,494,489
495,493,487,494,489
495,493,487,494,489
495,493,487,494,489
495,493,487,494,489
495,493,487,495,489
495,493,488,494,489
495,493,489,495,489
495,493,489,495,489
495,493,490,494,489
495,493,490,494,489
495,493,489,495,489
495,493,488,495,489
495,493,488,494,489
495,493,487,495,489
495,493,486,495,489
495,492,486,495,489
495,492,487,494,489
495,494,488,494,489
495,493,488,495,489
495,493,489,494,489
495,493,489,494,489
495,493,490,495,488
495,493,489,495,489
495,493,489,494,489
495,493,488,494,489
495,493,487,494,489
495,492,486,495,489
495,490,486,494,489
495,494,486,494,489
495,493,487,494,489
495,493,488,494,489
495,493,488,494,489
495,494,489,494,489
495,494,489,494,489
495,493,489,494,489
495,493,489,494,489
495,493,488,494,489
495,493,487,495,489
495,493,487,494,489
495,493,486,494,488
495,493,486,494,489
495,493,486,495,489
495,493,487,495,489
495,493,488,495,489
495,493,488,494,489
495,493,489,494,489
495,494,489,494,489
495,492,489,495,489
495,493,488,494,489
495,493,488,495,489
495,493,487,494,489
495,493,486,494,489
495,492,486,494,489
495,492,486,494,489
495,493,487,494,489
495,493,487,494,489
495,493,488,495,489
495,492,489,494,489
495,493,489,494,488
495,493,489,494,489
495,493,489,494,489
495,493,488,494,489
495,493,487,494,489
495,493,487,495,489
495,493,486,495,489
495,493,486,494,489
495,493,486,494,489
495,493,487,494,489
495,493,488,494,489
495,493,489,494,488
495,493,489,494,488
495,493,489,494,488
495,493,489,494,488
495,493,489,495,489
495,493,488,494,488
495,493,487,494,489
495,492,487,494,489
495,492,486,494,489
495,493,487,494,488
495,492,487,495,489
495,492,488,495,489
495,493,489,495,489
495,493,489,494,489
495,493,489,495,489
495,492,490,495,489
495,493,489,494,489
495,493,489,495,489
495,493,488,494,489
495,493,487,494,488
495,493,487,494,488
495,493,487,494,489
495,493,487,494,489
495,493,487,494,489
495,493,488,494,489
495,493,489,494,488
495,493,490,494,488
495,493,490,494,489
495,493,490,495,489
495,493,489,494,489
495,493,489,494,488
495,493,488,494,489
495,493,487,494,489
495,493,487,495,489
495,491,486,495,489
495,494,487,495,489
495,495,488,495,488
495,493,489,494,489
495,493,489,495,489
495,493,490,494,489
495,493,490,494,489
495,493,490,494,488
495,493,489,495,488
495,493,488,495,488
495,493,488,495,488
495,493,487,495,488
495,493,487,495,489
495,493,487,494,489
495,493,487,494,489
496,493,488,494,489
496,493,489,494,489
495,494,490,494,488
495,493,490,495,488
495,493,490,494,489
495,493,489,494,489
495,493,489,494,488
495,493,488,494,488
495,493,487,494,489
495,493,487,495,489
495,493,487,495,489
495,493,487,495,489
495,493,488,494,489
495,493,489,495,489
495,493,489,494,489
495,493,490,494,489
495,493,490,494,488
495,494,490,494,489
495,493,489,494,489
495,493,488,494,489
495,493,487,494,489
495,493,486,494,489
495,493,486,494,489
495,493,486,494,489
495,493,487,494,489
495,493,488,494,489
495,493,489,495,489
495,493,489,494,489
495,493,489,495,489
495,493,489,495,489
495,493,489,494,489
495,493,488,494,489
495,493,488,494,489
495,493,487,494,489
495,494,486,495,488
495,495,487,494,489
495,493,487,494,489
495,493,487,494,489
495,493,488,494,489
495,493,489,494,488
495,493,489,495,488
495,493,489,494,488
495,493,489,494,489
495,493,489,494,489
495,493,488,494,489
495,493,487,494,489
495,494,487,494,488
495,493,486,495,489
495,493,487,494,489
495,493,487,494,489
495,491,487,494,489
495,492,488,494,489
495,495,489,494,489
495,493,489,494,488
495,493,489,495,488
495,493,489,494,488
495,492,488,495,489
495,492,487,495,489
495,493,487,495,489
495,494,487,494,489
495,493,486,495,489
495,492,487,494,489
495,493,487,494,489
495,493,488,495,488
495,493,489,494,488
495,493,490,494,489
495,493,490,494,489
495,493,490,494,488
495,493,489,494,489
495,493,489,494,489
495,493,488,495,489
495,493,487,494,488
495,493,487,494,488
495,493,487,494,488
495,493,488,494,488
495,493,488,494,489
495,493,489,494,489
495,493,490,494,489
495,493,490,495,489
495,493,490,494,489
495,493,490,495,489
495,493,489,494,488
495,492,489,494,489
495,493,488,494,489
495,493,487,495,489
495,493,487,495,489
495,493,487,494,489
495,493,488,494,489
495,493,489,494,489
495,493,489,495,489
495,493,490,494,489
495,493,490,495,489
495,493,490,494,489
495,493,490,495,488
495,493,489,494,489
495,493,488,494,489
495,493,487,495,488
495,493,487,494,488
495,493,487,494,489
495,493,487,494,489
495,493,488,495,489
495,493,489,494,489
495,493,490,494,489
495,493,490,494,489
495,493,490,494,489
495,495,490,494,489
495,492,489,495,489
495,490,488,495,489
495,494,487,494,489
495,493,487,494,489
495,493,486,494,489
495,493,487,494,489
495,493,487,494,489
495,493,488,494,489
495,493,489,494,489
495,493,489,494,489
495,493,489,495,488
495,493,490,495,488
495,493,489,494,489
495,493,488,494,489
495,493,487,494,489
495,493,487,494,489
495,493,486,494,489
495,493,486,494,489
495,493,487,494,489
495,493,487,494,489
495,493,488,495,489
495,492,489,495,489
495,493,489,494,488
495,493,490,494,489
495,492,489,494,489
495,493,489,494,489
495,493,488,495,489
495,493,487,494,489
495,493,486,495,488
495,493,486,495,488
495,493,486,495,488
495,493,487,495,488
495,493,488,495,488
495,493,488,495,489
495,493,489,494,489
495,493,489,494,489
495,493,489,495,489
495,493,489,495,489
495,493,488,495,489
495,493,487,494,489
495,493,487,494,489
495,493,486,495,489
495,493,486,494,489
495,493,486,494,489
495,493,487,494,489
495,493,488,494,489
495,493,489,494,489
495,493,489,494,489
495,493,490,494,489
495,493,490,494,489
495,493,489,494,489
495,493,489,494,489
495,493,488,494,489
495,493,488,494,488
495,493,487,494,489
495,493,487,494,489
495,493,488,494,489
495,493,488,494,488
495,493,489,494,489
495,493,490,494,489
495,493,490,494,489
495,493,490,494,489
495,493,490,495,489
495,493,489,494,489
495,493,488,494,489
495,493,487,495,489
495,491,486,495,489
495,493,487,494,489
495,493,487,494,489
495,493,488,494,489
495,493,488,494,489
495,493,489,494,489
495,493,490,494,489
495,493,490,494,489
495,493,490,495,489
495,493,489,494,489
495,493,489,494,489
495,493,488,494,489
495,493,487,494,489
495,493,487,494,489
495,493,487,494,489
495,493,487,495,489
495,493,488,494,489
495,493,489,494,488
495,493,489,494,489
495,493,490,494,489
495,493,490,494,489
495,493,489,494,489
495,493,489,494,489
495,493,488,494,489
495,493,487,494,489
495,493,486,494,489
495,493,486,494,489
495,493,486,494,489
495,493,487,494,489
495,493,488,494,489
495,493,488,494,489
495,493,489,494,489
495,494,489,494,488
495,494,488,494,488
495,492,488,494,489
495,493,487,494,489
495,492,486,495,489
495,493,485,494,489
495,493,485,494,489
495,493,485,494,489
495,493,486,494,489
495,493,487,495,489
495,493,488,494,489
495,493,488,494,489
495,493,489,494,489
495,493,489,495,489
495,493,489,494,489
495,493,488,494,489
495,493,488,494,488
495,493,487,495,489
495,493,486,495,489
495,493,486,494,489
495,492,486,494,489
495,493,487,494,489
495,493,488,494,489
495,493,489,494,489
495,493,489,494,489
495,493,490,494,488
495,493,490,494,489
495,493,489,494,489
495,493,489,494,489
495,493,488,494,489
495,493,487,494,489
495,493,487,494,489
495,494,487,494,489
495,492,487,494,489
495,492,488,494,489
495,493,489,494,489
495,493,489,494,489
495,493,490,494,489
495,493,490,494,489
495,493,490,494,489
495,493,489,494,489
495,493,488,494,489
495,493,487,494,489
495,492,487,494,489
495,493,486,494,489
495,493,487,494,489
495,493,487,494,489
495,492,488,495,489
495,491,488,494,489
495,494,489,494,489
495,493,489,495,489
495,493,489,494,489
495,493,489,494,489
495,493,488,494,489
495,493,488,494,489
495,493,487,494,489
495,493,486,494,489
495,493,486,494,489
495,493,487,494,489
495,493,487,494,489
495,493,488,494,489
495,493,489,494,489
495,493,489,494,489
495,493,489,495,489
495,493,489,494,489
495,493,488,494,489
495,493,488,494,489
495,493,487,494,489
495,493,486,494,489
495,493,486,494,489
495,493,486,494,489
495,493,487,494,489
495,493,487,494,489
495,493,488,494,489
495,494,489,494,489
495,494,489,495,489
495,492,489,494,489
495,491,488,494,489
495,492,488,494,489
496,494,487,494,489
495,493,486,494,489
495,493,486,494,489
495,493,486,494,489
495,493,486,495,489
495,493,487,494,489
495,493,488,494,489
495,493,488,495,489
495,493,489,494,489
495,493,489,494,489
495,493,489,494,489
495,493,488,494,489
495,493,488,494,489
495,493,487,494,489
495,493,486,494,489
495,493,486,494,489
495,493,486,494,489
495,493,486,494,489
495,493,487,494,489
495,493,488,494,489
495,493,489,494,489
495,493,489,494,489
495,493,489,494,489
495,493,489,494,489
495,493,488,494,489
495,493,488,494,489
495,493,487,494,489
495,494,486,494,489
495,493,486,494,489
495,493,486,494,489
495,493,487,494,488
495,493,488,494,489
495,493,488,494,489
495,493,489,494,489
495,493,489,494,489
495,492,489,495,489
495,492,488,494,489
495,494,488,494,489
495,493,487,494,489
495,493,486,494,489
495,493,486,494,489
495,493,486,494,489
495,493,486,494,489
495,493,487,494,489
495,493,488,494,489
495,493,489,494,489
495,493,489,494,489
495,493,489,494,489
495,493,489,494,489
495,493,489,494,489
495,493,488,494,489
495,493,487,494,489
495,493,486,494,489
495,492,486,494,489
495,493,486,494,489
495,493,487,494,489
495,493,488,494,489
495,493,489,494,489
495,493,490,494,489
495,493,490,494,489
495,493,490,494,489
495,493,489,494,489
495,493,489,494,489
495,493,488,494,489
495,493,487,494,489
495,493,487,494,489
495,493,487,494,489
495,493,487,494,489
495,493,488,494,489
495,493,489,494,489
495,493,489,494,489
495,493,490,494,489
495,493,490,494,489
495,493,490,494,489
495,494,489,494,489
495,493,488,494,489
495,493,488,494,489
495,493,487,494,489
495,493,487,494,489
495,494,487,494,489
495,492,487,494,489
495,493,488,494,489
495,493,489,494,489
495,493,489,494,489
495,493,490,494,489
495,493,490,494,489
495,493,490,494,489
495,493,489,494,489
495,493,488,494,489
495,493,487,494,489
495,493,487,494,489
495,493,487,494,489
495,493,487,494,489
495,493,488,494,489
495,492,489,494,489
495,493,489,494,489
495,492,490,495,489
495,492,490,495,489
495,491,489,494,489
495,493,489,494,489
495,493,488,494,489
495,493,487,494,489
495,492,487,494,489
495,491,486,495,489
495,493,486,494,489
495,493,487,494,489
495,493,488,494,489
495,493,488,494,489
495,493,489,495,489
495,493,489,494,489
495,493,489,494,489
495,493,489,495,489
495,493,488,495,489
495,494,488,494,489
495,493,487,494,489
495,492,486,494,489
495,494,486,494,489
495,492,486,494,489
495,493,487,494,489
495,494,488,494,489
495,493,489,494,489
495,493,489,494,489
495,493,490,494,489
495,493,489,494,489
495,493,489,494,489
495,493,488,494,489
495,493,487,494,489
495,493,487,494,489
495,493,486,494,489
495,493,486,494,489
495,493,487,494,489
495,493,488,494,489
495,493,488,494,489
495,493,489,494,489
495,493,489,494,489
495,493,490,494,489
495,493,489,494,489
495,493,489,494,489
495,493,488,494,489
495,493,487,494,489
495,494,487,494,489
495,494,487,494,489
495,493,487,494,489
495,493,487,494,489
495,493,488,494,489
495,493,489,494,489
495,493,490,495,489
495,493,490,494,489
495,493,490,494,489
495,496,490,494,489
495,493,489,494,489
495,493,488,494,489
495,494,487,494,489
495,492,487,494,489
495,493,487,494,489
495,493,487,494,489
495,492,488,494,489
495,493,488,494,489
495,493,489,495,489
495,493,489,495,489
495,493,489,494,489
495,493,489,494,489
495,493,489,494,489
495,493,488,494,489
495,493,487,494,489
495,493,487,494,489
495,491,486,494,489
495,494,487,494,489
495,494,487,494,489
495,493,488,494,489
495,493,489,494,489
495,493,489,494,489
495,493,489,494,489
495,493,489,494,489
495,493,489,494,489
495,492,488,494,489
495,491,487,494,489
495,494,487,494,489
495,494,486,494,489
495,493,486,494,489
495,493,487,494,489
495,493,487,494,489
495,493,488,494,489
495,493,489,494,489
495,493,489,494,489
495,493,490,494,489
495,493,489,494,489
495,493,489,494,489
495,493,488,494,489
495,493,487,495,489
495,493,486,494,489
495,493,486,494,489
495,493,486,494,489
495,493,487,494,489
495,493,488,494,489
495,493,489,494,489
495,493,489,494,489
495,493,489,494,489
495,493,489,494,489
495,493,489,494,489
495,493,488,494,489
495,493,488,494,489
495,493,487,494,489
495,493,486,494,489
495,494,487,494,489
495,494,487,494,489
495,493,487,494,489
495,493,488,494,489
495,493,489,494,489
495,493,489,494,490
495,493,489,494,490
495,493,489,494,489
495,493,489,494,489
495,493,488,494,489
495,493,487,494,489
495,493,486,494,490
495,492,486,494,489
495,492,486,494,489
495,494,487,494,489
495,492,487,494,489
495,492,488,494,489
495,493,489,494,489
495,493,489,494,489
495,493,489,494,489
495,493,489,494,489
495,492,488,494,489
495,494,487,494,489
495,493,487,494,489
495,493,486,494,489
495,493,486,494,489
495,493,486,494,489
495,493,487,494,489
495,493,488,494,489
495,493,488,494,489
495,493,489,494,489
495,493,489,494,489
495,493,489,494,490
495,493,489,494,490
495,493,488,494,489
495,493,487,494,489
495,493,486,494,489
495,493,486,494,489
495,493,486,494,489
495,493,486,495,489
495,493,487,494,489
495,493,488,494,489
495,493,489,494,488
495,493,489,494,489
495,493,489,494,489
495,493,489,494,489
495,493,488,494,489
495,493,488,494,489
495,493,487,494,490
495,493,486,494,489
495,493,486,494,489
495,493,486,494,489
495,493,487,494,489
495,493,488,494,489
495,493,488,494,489
495,493,489,494,489
495,493,489,494,489
495,493,489,495,489
495,493,489,494,489
495,493,488,494,489
495,493,487,494,489
495,493,487,494,489
495,493,486,494,490
495,493,486,494,489
495,493,487,494,489
495,493,487,494,489
495,493,488,494,489
495,493,489,494,489
495,493,489,495,489
495,493,490,494,489
495,493,489,494,489
495,493,489,494,489
495,492,488,494,489
495,493,487,494,489
495,493,487,494,489
495,493,487,494,489
495,492,487,494,489
495,493,487,494,489
495,493,488,494,489
495,493,489,494,489
495,493,489,494,489
495,493,490,494,489
495,492,489,495,490
495,491,489,494,490
495,494,489,494,489
495,493,488,494,489
495,493,487,494,490
495,493,487,494,489
495,493,487,494,489
495,494,487,494,489
495,492,488,494,489
495,492,489,494,489
495,493,489,495,490
495,493,490,495,490
495,493,490,494,489
495,494,490,495,489
495,493,490,495,489
495,493,489,494,489
495,493,488,494,489
496,493,488,494,489
495,493,488,494,489
495,493,488,494,489
495,493,489,494,490
495,493,490,494,490
495,493,490,494,490
495,493,491,494,490
495,493,492,494,489
495,493,492,494,489
495,494,492,494,489
495,494,491,494,489
495,493,490,495,490
495,493,489,495,490
495,493,489,494,489
495,493,489,494,489
495,493,489,494,489
495,493,490,494,490
495,493,490,494,490
495,493,491,494,490
495,493,492,494,489
495,493,492,494,489
495,493,492,494,489
495,493,491,494,489
495,493,490,494,489
495,493,490,494,489
495,494,489,494,489
495,494,489,494,489
495,493,489,494,489
495,492,489,494,489
495,494,490,494,489
495,493,491,495,490
495,492,491,494,490
495,492,491,495,489
495,493,492,494,489
495,493,491,494,489
495,493,491,494,489
495,493,490,495,489
495,493,489,494,489
495,493,488,494,490
495,493,488,494,489
495,493,488,494,489
495,493,489,494,489
495,493,489,495,489
495,493,490,494,489
495,493,491,494,489
495,493,491,494,490
495,493,491,494,490
495,493,490,494,490
495,493,489,494,490
495,492,488,495,490
495,493,488,494,489
495,491,487,495,490
495,494,488,494,489
495,493,488,494,489
495,493,489,494,489
495,493,489,495,489
495,493,490,494,490
495,493,491,494,490
495,494,491,494,490
495,492,490,494,490
495,492,489,494,490
495,493,488,494,490
495,493,488,494,489
495,493,487,494,489
495,493,487,494,489
495,493,487,494,489
495,493,488,494,490
495,493,489,494,490
495,493,490,494,489
495,493,490,494,489
495,493,490,494,489
495,493,490,494,489
495,493,489,494,489
495,493,488,494,489
495,493,488,494,489
495,493,487,494,489
495,493,487,494,489
496,493,487,494,489
495,494,487,494,490
495,493,488,494,490
495,493,489,494,490
495,492,489,494,490
495,493,489,494,489
495,493,490,494,489
495,493,489,494,489
495,493,488,494,489
495,493,488,494,489
495,493,487,495,490
495,493,486,494,490
495,493,486,494,489
495,494,487,494,489
495,494,487,494,489
495,492,488,494,489
495,493,489,494,489
495,493,489,494,489
495,493,489,494,489
495,493,489,495,489
495,493,488,494,489
495,493,488,494,490
495,492,486,495,490
495,491,486,495,490
495,493,485,495,490
495,493,486,494,490
495,493,486,494,489
495,492,487,494,489
495,492,488,494,489
495,494,489,494,489
495,493,489,494,490
495,493,489,495,489
495,493,489,494,489
495,493,488,494,489
495,493,487,495,490
495,493,487,494,490
495,493,486,494,489
495,493,486,494,489
495,493,486,494,489
495,493,487,494,489
495,493,488,494,489
495,493,489,495,490
495,493,489,494,489
495,493,489,494,489
495,493,489,494,490
495,493,489,494,490
495,493,488,494,489
495,493,487,494,489
495,493,486,494,489
495,493,486,494,489
495,493,486,494,489
495,493,487,494,489
495,493,488,494,489
495,494,489,494,489
495,494,490,494,489
496,494,490,494,489
495,492,490,495,489
495,493,490,494,489
495,493,489,494,489
495,493,488,495,489
495,493,487,494,489
495,493,487,495,489
495,493,486,495,489
495,493,487,494,489
495,493,487,495,489
495,492,488,494,489
495,493,489,494,489
495,493,490,494,489
495,493,490,494,489
495,493,490,494,489
495,493,489,494,489
495,493,488,494,489
495,493,488,494,489
495,493,487,495,489
495,493,486,495,489
495,493,486,494,489
495,493,487,494,489
495,493,488,494,489
495,492,488,495,489
495,493,489,494,489
495,494,490,494,489
495,493,490,494,488
495,493,489,495,489
495,493,489,494,489
495,493,488,494,489
495,492,487,494,490
495,492,486,495,490
495,492,486,495,489
495,493,486,495,489
495,492,487,495,490
495,493,488,495,489
495,496,490,494,489
495,493,489,494,490
495,492,490,494,490
495,493,490,494,489
495,493,489,494,489
495,493,488,494,489
495,493,487,494,489
495,493,487,494,489
495,493,486,494,490
495,493,486,494,489
495,493,487,494,489
495,493,487,494,489
495,493,488,494,489
495,493,489,494,489
495,493,489,494,489
495,493,489,494,489
495,493,489,494,489
495,493,489,494,489
495,493,488,494,489
495,493,487,494,489
495,493,486,494,489
495,493,486,495,489
495,493,486,494,490
495,493,487,494,489
495,493,488,494,489
495,493,488,494,489
495,493,489,494,489
495,493,489,494,489
495,493,489,495,489
495,493,488,494,489
495,493,488,494,489
495,493,487,494,489
495,493,486,494,489
495,493,486,494,489
495,493,486,495,489
495,493,486,494,489
495,493,487,494,490
495,493,488,494,489
495,493,488,494,489
495,494,489,494,489
495,493,489,494,489
495,493,489,494,489
495,493,489,494,489
495,495,488,494,490
495,492,487,494,490
495,492,486,494,489
495,493,486,494,489
495,493,486,495,490
495,493,486,495,489
495,493,487,494,489
495,493,488,494,489
495,493,489,495,489
495,493,489,494,489
495,493,489,494,489
495,493,489,494,489
495,493,488,494,490
495,493,487,494,490
495,492,487,494,489
495,494,486,494,489
495,493,486,494,490
495,493,487,494,490
495,493,487,494,489
495,493,488,494,490
495,493,489,494,489
495,493,490,494,489
495,493,490,495,490
495,492,489,495,490
495,493,489,494,489
495,490,487,495,489
495,494,487,494,489
495,495,487,494,489
495,493,486,495,490
495,493,486,494,489
495,493,487,494,489
495,493,488,494,490
495,493,489,494,489
495,493,489,494,490
495,493,490,495,489
495,493,489,495,490
495,492,489,494,490
495,492,488,494,489
495,493,488,494,489
495,494,487,494,489
495,493,486,494,489
495,493,486,494,489
495,494,487,494,489
495,495,487,494,489
495,492,488,494,489
495,493,489,494,489
495,493,489,494,489
495,493,490,495,489
495,493,489,494,489
495,493,489,494,489
495,493,488,494,489
495,493,487,494,489
495,493,487,494,489
495,493,486,494,489
495,493,486,494,490
495,494,487,494,489
495,492,487,494,490
495,492,489,494,489
495,493,489,494,489
495,493,490,494,489
495,493,490,494,490
495,493,489,494,489
495,493,489,494,489
495,493,488,494,489
495,493,487,494,489
495,493,486,494,489
495,493,486,494,489
495,493,486,494,489
495,493,487,494,489
495,493,488,494,489
495,493,489,494,489
495,493,490,494,489
495,493,490,494,489
495,493,490,494,489
495,493,489,495,489
495,493,489,494,489
495,493,488,494,489
495,493,487,494,490
495,493,487,494,489
495,493,486,494,489
495,493,487,494,489
495,493,488,494,489
495,493,489,494,489
495,493,490,495,489
495,493,490,494,490
495,493,490,494,490
495,493,490,494,489
495,493,489,494,489
495,493,488,493,489
495,493,488,494,489
495,493,487,494,489
495,495,487,494,489
495,492,487,494,489
495,493,488,494,490
495,493,489,495,490
495,493,490,494,490
495,492,490,494,491
495,490,490,494,489
495,494,490,494,489
495,494,490,494,489
495,493,489,494,489
495,493,488,494,489
495,494,487,494,489
495,493,487,494,489
495,493,487,495,490
495,493,487,495,490
495,493,488,494,489
495,494,489,494,489
495,493,490,494,489
495,493,490,495,490
495,492,490,495,489
495,493,490,494,489
495,494,489,494,490
495,493,489,494,490
495,493,488,494,489
495,493,487,495,489
495,492,486,494,489
495,493,487,495,489
495,493,487,495,489
495,494,488,493,489
495,494,489,494,489
495,493,490,494,490
495,493,490,494,490
495,493,490,494,489
495,493,490,494,489
495,493,489,494,489
495,493,488,494,489
495,494,487,494,489
495,493,487,494,489
495,493,486,494,489
495,493,487,494,490
495,493,488,495,489
495,493,489,494,489
495,494,490,494,489
495,493,490,495,490
495,492,490,494,490
495,492,489,494,490
495,493,489,494,489
495,493,488,494,490
495,493,487,494,489
495,493,487,494,489
495,493,486,494,489
495,493,486,494,489
495,493,487,495,489
495,493,488,494,489
495,493,489,494,490
495,493,490,494,489
495,493,490,494,489
495,493,490,494,489
495,493,489,495,490
495,493,488,494,489
495,493,488,494,490
495,493,487,494,489
495,493,486,494,489
495,493,486,494,489
495,493,486,494,489
495,493,487,494,489
495,493,488,495,489
495,493,489,495,489
496,493,489,494,489
495,493,490,494,489
495,493,489,494,490
495,493,489,494,490
495,493,488,494,490
495,494,487,494,489
495,493,486,495,490
495,493,486,494,490
495,493,486,495,490
495,492,486,494,490
495,492,487,494,490
495,492,488,495,489
495,495,489,494,490
495,493,489,494,490
495,492,489,494,490
495,492,489,494,489
495,493,488,495,489
495,493,487,494,489
495,492,486,494,490
495,493,486,494,489
495,493,486,494,490
495,493,486,494,489
495,493,487,494,489
495,493,488,494,489
495,493,488,494,490
495,493,489,494,490
495,493,489,494,489
495,493,489,494,489
495,493,489,494,490
495,493,488,494,489
495,493,487,495,490
495,493,486,495,490
495,493,486,494,490
495,494,486,494,490
495,493,487,494,490
495,493,487,494,489
496,493,488,494,489
495,493,489,494,489
495,493,490,494,489
495,494,490,494,489
495,493,490,494,490
495,493,489,495,490
495,492,488,495,489
495,493,488,494,489
495,493,487,494,490
495,493,486,494,489
495,493,486,494,490
495,493,487,494,490
495,493,488,494,489
495,493,489,494,489
495,493,490,494,489
495,493,490,494,489
495,493,490,494,489
495,493,489,494,490
495,493,489,494,490
495,494,488,494,489
495,494,487,495,490
495,492,486,495,489
495,493,486,495,489
495,493,487,494,489
495,493,487,494,490
495,493,488,494,490
495,493,489,494,490
495,493,490,494,490
495,493,490,494,490
495,493,490,495,490
495,492,489,495,490
495,492,488,494,490
495,493,487,494,490
495,493,486,495,490
495,493,486,494,490
495,494,486,494,490
495,492,486,495,490
495,492,487,494,490
495,492,488,494,489
495,493,489,494,489
495,493,490,494,489
495,494,490,494,490
495,493,489,495,490
495,493,489,494,490
495,493,488,494,489
495,493,487,494,489
495,493,486,494,489
495,493,486,494,489
495,493,486,494,489
495,493,487,494,489
495,493,488,494,489
495,493,489,494,489
495,493,489,494,489
495,493,489,494,490
495,493,489,494,490
495,493,489,494,489
495,493,488,494,489
495,493,487,494,489
495,493,487,494,490
495,493,486,495,489
495,493,486,495,489
495,493,487,494,489
495,493,487,494,489
495,493,488,494,490
495,493,489,494,490
495,493,490,495,489
495,493,490,494,490
495,493,489,494,490
495,493,488,494,490
495,493,487,495,490
495,493,487,494,489
495,493,486,494,489
495,493,486,495,489
495,493,486,494,490
495,493,487,495,489
495,493,487,494,489
495,493,488,494,490
495,493,489,494,490
495,493,489,494,489
495,493,489,494,489
495,493,489,494,490
495,493,488,494,490
495,493,487,494,490
495,493,486,494,490
495,492,485,495,490
495,493,486,494,489
495,493,486,495,490
495,492,487,494,490
495,493,488,494,490
495,494,489,494,490
495,494,489,494,490
495,491,489,494,490
495,490,488,494,490
495,494,488,494,490
495,494,487,494,489
495,493,486,495,489
495,493,486,494,489
495,495,486,495,489
495,492,486,494,489
495,493,486,495,490
495,493,487,495,490
495,493,488,494,490
495,493,489,494,490
495,493,489,494,489
495,493,489,494,490
495,493,489,494,490
495,493,488,494,489
495,493,487,494,490
495,493,486,494,490
495,493,485,494,490
495,493,485,494,490
495,493,486,494,489
495,493,486,494,489
495,493,488,495,489
495,493,488,494,489
495,493,489,494,490
495,493,489,494,489
495,493,489,494,489
495,493,489,494,489
495,493,488,494,489
495,493,487,494,490
495,494,486,494,489
495,493,486,494,490
495,493,486,494,490
495,493,486,494,490
495,493,487,494,489
495,493,488,494,490
495,493,489,495,489
495,494,489,494,490
495,493,489,494,489
495,493,489,494,489
495,493,488,494,490
495,493,487,494,490
495,493,486,495,489
495,493,486,495,490
495,493,486,495,490
495,493,486,495,490
495,493,486,494,490
495,493,488,494,489
495,492,488,495,490
495,493,489,494,489
495,493,489,494,490
495,493,489,494,490
495,493,488,494,490
495,493,488,495,490
495,493,487,494,489
495,493,486,494,490
495,493,485,494,490
495,493,486,494,489
495,494,486,494,489
495,493,487,495,490
495,493,488,494,490
495,493,489,494,489
495,493,489,495,490
495,491,489,495,490
495,493,489,495,489
495,494,489,494,489
495,493,488,494,489
495,493,487,495,490
495,493,486,494,489
495,493,486,494,490
495,493,486,494,490
495,493,487,494,490
495,493,488,495,490
495,493,489,495,489
495,493,490,494,489
495,493,490,495,489
495,494,490,495,489
495,493,490,494,490
495,493,489,494,489
495,493,488,495,490
495,494,487,494,490
495,493,487,495,489
495,493,487,494,490
495,493,487,494,489
495,493,488,495,490
496,493,489,494,489
495,493,490,494,489
495,494,490,494,490
495,494,490,495,489
