Sensor0,Sensor1,Sensor2,Sensor3,Sensor4

493,495,492,802,494
493,495,493,881,496
493,497,493,849,494
493,496,493,707,495
493,498,495,489,494
493,496,494,319,495
493,498,495,206,495
493,497,496,171,494
493,496,494,194,494
493,497,493,257,493
493,497,493,376,493
493,494,491,528,495
493,495,491,698,493
493,495,491,853,493
493,496,493,871,493
493,496,494,804,497
493,497,495,610,498
493,497,495,409,496
493,497,494,248,494
493,497,495,183,494
493,497,494,177,494
493,497,495,210,492
493,495,495,304,493
493,496,492,437,493
493,495,493,594,493
493,495,492,780,494
493,495,491,879,494
493,496,493,855,494
493,497,494,732,494
493,497,496,517,495
492,499,496,338,495
493,499,495,211,493
493,498,495,170,494
492,497,494,190,494
493,496,493,250,493
493,496,492,398,493
493,495,492,559,494
493,495,492,711,493
493,495,493,823,493
493,495,493,858,494
493,497,492,813,494
492,497,494,664,495
493,497,494,481,494
493,497,495,311,496
493,498,495,176,494
492,497,494,147,494
492,496,494,184,493
492,495,493,288,493
493,496,493,455,491
493,496,492,612,492
493,496,492,751,492
493,495,491,845,494
493,495,492,835,494
493,496,493,748,492
493,497,494,574,493
493,496,494,402,492
493,497,495,243,494
492,497,495,140,496
492,496,493,156,496
492,496,493,214,496
492,495,492,356,497
492,494,493,523,496
493,495,493,675,495
493,496,493,792,492
493,496,493,850,492
493,496,493,815,494
492,496,492,677,494
492,497,495,498,495
492,498,496,329,496
492,497,496,186,494
492,496,496,140,493
492,496,495,173,494
493,496,494,262,493
492,496,493,427,492
493,496,492,586,493
493,496,492,731,494
493,496,493,835,493
493,496,492,839,494
492,496,493,766,495
492,496,493,601,495
492,497,495,424,493
492,496,496,261,495
492,499,496,146,494
492,497,495,150,494
492,495,495,194,495
492,495,492,327,494
493,494,491,499,491
493,496,490,651,495
493,495,492,781,492
493,496,490,851,495
492,496,491,822,492
493,496,492,704,496
492,498,495,525,497
492,497,494,352,494
492,498,494,201,494
492,497,495,135,495
492,496,495,164,494
492,495,493,244,492
492,495,493,401,492
492,495,492,565,492
493,494,493,713,492
493,495,492,820,493
493,496,492,843,494
493,495,492,785,495
492,495,494,622,494
492,496,493,441,495
492,498,495,262,496
492,498,495,155,495
492,496,494,146,496
492,495,495,191,497
492,495,492,285,494
492,495,494,406,492
492,494,494,563,494
493,495,491,772,494
493,494,491,877,493
493,496,496,851,496
493,496,493,730,493
492,498,495,504,495
492,497,494,298,494
492,497,494,213,494
492,496,496,169,493
492,497,496,185,492
492,497,495,244,494
492,494,491,354,494
492,495,491,472,493
492,495,492,674,492
492,495,491,845,492
493,495,491,880,494
492,493,491,826,496
492,497,496,647,497
492,496,495,417,495
492,496,496,262,497
492,498,496,191,495
492,497,496,175,494
492,498,491,209,495
492,496,494,290,492
492,496,491,411,494
492,495,491,544,490
492,493,492,758,493
492,497,491,879,491
492,497,493,868,493
493,497,494,763,494
492,495,495,554,493
492,496,494,372,493
492,496,496,222,490
492,495,493,173,488
492,494,494,183,494
492,495,493,231,496
492,493,493,338,493
492,496,494,498,495
492,497,494,655,495
492,493,494,818,491
493,496,493,874,494
492,495,492,834,496
492,495,493,671,496
492,495,494,459,493
492,496,493,296,493
492,497,496,190,494
492,495,493,169,494
492,498,493,194,494
492,497,495,271,492
492,497,495,393,491
492,494,492,550,491
492,495,490,724,492
492,495,493,869,492
493,496,493,866,491
492,496,495,787,495
492,495,495,583,495
492,498,494,399,496
492,497,496,236,495
492,498,494,171,494
492,496,495,174,495
492,495,496,216,494
492,494,491,320,494
492,494,491,469,490
492,494,490,620,491
492,495,491,799,491
492,496,490,876,492
493,497,491,845,497
492,498,492,700,497
492,497,495,482,494
492,498,495,306,493
492,495,494,199,492
492,497,493,169,492
492,495,495,191,492
492,495,494,257,493
492,494,495,370,494
492,496,492,513,492
492,492,489,702,492
493,495,494,855,490
492,495,490,874,494
492,494,490,808,491
492,494,495,611,494
492,495,496,394,495
492,496,494,243,496
492,498,495,183,497
492,498,492,178,494
492,495,491,210,491
492,496,491,306,492
492,495,494,431,490
492,495,491,588,495
492,495,491,788,496
492,493,490,883,495
492,494,491,860,495
492,495,495,736,493
492,496,494,516,492
492,497,496,336,492
492,498,494,215,492
492,497,493,170,495
492,498,495,187,494
492,494,491,244,494
492,496,494,358,491
492,496,493,504,491
492,495,493,673,492
492,494,493,840,489
492,494,494,875,492
492,494,493,829,495
492,498,492,644,496
492,497,492,428,498
492,495,495,262,498
492,495,496,188,492
492,497,493,171,489
492,494,495,207,491
492,494,494,286,490
492,495,494,407,491
492,494,490,560,492
492,494,492,761,492
493,496,491,878,491
492,494,491,865,491
492,495,491,765,495
492,497,495,544,495
492,497,493,353,495
492,495,493,227,491
492,497,493,176,492
492,496,494,185,493
492,496,493,232,494
492,495,495,341,492
492,496,494,474,493
492,493,492,641,492
492,493,493,825,491
492,494,491,883,493
492,496,492,842,494
492,497,492,675,499
492,496,494,456,499
492,495,495,288,494
492,495,493,195,491
492,496,494,171,491
492,495,494,199,492
492,495,494,272,493
492,495,493,398,494
492,494,492,555,493
492,495,492,731,492
492,494,492,868,495
492,496,492,867,495
492,495,492,789,497
492,497,494,583,495
492,498,493,392,493
492,497,495,231,493
492,497,495,172,494
492,496,494,177,492
492,495,493,216,493
492,494,493,319,492
492,493,492,468,492
492,494,492,624,495
492,495,491,801,494
492,495,492,878,494
492,495,491,847,496
492,495,494,703,493
492,496,495,485,492
492,498,496,313,492
492,497,496,201,494
492,497,494,168,495
492,495,492,193,494
492,495,495,253,492
492,494,492,374,491
492,494,492,522,490
492,494,491,701,490
492,494,492,853,493
492,495,492,870,496
492,495,492,804,495
492,496,494,610,495
492,497,495,405,496
492,495,494,242,494
492,496,494,180,493
492,495,493,174,494
492,495,493,212,494
492,494,493,304,494
492,494,492,436,491
492,494,492,593,491
492,493,492,781,491
492,493,492,880,492
492,494,491,856,493
492,496,493,736,497
492,496,494,518,497
492,497,493,338,495
492,496,494,209,494
492,496,494,166,493
492,496,493,187,493
492,495,493,242,494
492,494,493,359,493
492,495,491,512,493
492,494,492,671,490
492,494,491,840,492
492,495,493,873,493
492,495,492,826,492
492,496,492,640,492
492,497,495,437,493
492,496,494,270,496
492,496,494,186,496
492,496,493,170,494
492,496,493,202,493
492,495,492,285,492
492,494,492,418,492
492,494,491,574,492
492,494,492,754,493
492,494,491,872,493
492,495,492,861,494
492,495,493,760,494
492,497,494,541,493
492,496,495,359,493
492,496,494,221,494
491,494,494,172,496
492,495,493,183,496
492,495,493,232,495
492,494,492,336,495
492,494,492,482,493
492,494,491,638,493
492,494,491,824,492
492,495,491,880,491
492,495,493,840,492
492,495,493,672,493
492,497,494,459,493
492,497,493,291,494
492,496,494,192,494
492,496,494,169,494
492,494,493,197,491
492,495,492,271,490
492,494,492,396,491
492,494,492,554,491
492,494,492,729,493
492,494,491,869,494
492,494,491,864,492
492,495,493,784,493
492,495,493,578,496
492,496,493,389,498
492,496,493,229,497
492,496,494,173,495
492,495,493,176,492
492,495,493,217,491
492,495,493,320,494
492,495,492,465,495
492,494,492,624,497
492,494,491,804,495
492,494,492,879,495
492,495,492,847,492
492,497,493,703,493
492,497,494,486,493
492,497,493,314,493
492,495,493,200,492
492,495,494,166,493
492,495,493,191,493
492,495,493,255,494
492,495,492,374,492
492,495,491,527,494
492,494,492,700,495
492,494,492,851,493
492,494,492,870,495
492,494,492,804,494
492,496,493,605,492
492,495,493,405,493
492,497,494,244,493
492,496,494,180,493
492,495,493,175,494
492,495,494,210,494
492,495,492,304,493
492,495,491,438,493
492,494,493,596,492
492,493,491,780,493
492,494,491,878,493
492,496,493,855,494
492,495,493,731,494
492,495,494,514,494
492,495,493,336,495
492,496,494,211,494
492,496,495,167,493
492,494,494,187,492
492,494,493,242,492
492,495,493,355,492
492,495,492,508,493
492,494,492,671,494
492,494,491,844,494
492,494,491,875,494
492,495,492,827,495
492,495,493,641,494
492,496,494,438,496
492,496,495,269,494
492,495,494,185,494
492,496,493,171,493
492,495,493,203,494
492,494,493,286,493
492,495,492,418,492
492,494,492,574,493
492,493,491,757,492
492,494,491,875,494
492,494,492,860,493
492,496,492,760,492
492,496,493,546,494
492,495,495,361,495
492,496,494,220,495
492,496,495,170,494
492,496,493,183,493
492,495,493,231,494
492,495,493,336,494
492,494,492,485,492
492,493,492,641,491
492,493,490,821,494
492,494,491,878,495
492,496,493,839,494
492,494,493,671,494
492,495,494,456,495
492,495,495,287,494
492,496,495,195,493
492,495,493,169,493
492,495,493,197,495
492,494,492,271,496
492,494,492,395,494
492,494,493,551,492
492,494,492,726,490
492,493,492,868,492
492,494,492,867,493
492,495,493,785,494
492,495,492,575,494
492,496,494,386,494
492,496,494,232,494
492,494,494,174,493
492,495,493,178,493
492,495,494,220,493
492,494,493,319,493
492,494,492,464,492
492,494,492,623,493
492,493,491,804,492
492,494,492,880,492
492,494,492,849,494
492,495,493,702,493
492,495,493,490,495
492,497,495,319,494
492,495,495,199,493
492,495,493,167,494
492,495,493,191,493
492,494,493,254,494
492,494,493,376,494
492,493,492,530,492
492,494,491,699,492
492,493,491,851,493
492,495,491,869,493
492,495,493,803,494
492,495,494,607,495
492,496,494,406,495
492,496,495,244,494
492,495,493,179,494
492,495,493,175,494
492,495,493,211,494
492,494,492,303,492
492,494,492,440,492
492,494,490,596,492
492,493,490,781,492
492,494,490,879,494
492,494,492,855,494
492,495,492,731,496
492,495,494,514,494
492,496,493,336,493
492,497,494,211,494
492,495,494,169,493
492,494,493,187,493
492,494,493,242,492
492,494,492,356,491
492,493,492,505,491
492,494,491,669,492
492,493,491,841,494
492,493,491,875,498
492,494,492,826,496
492,495,493,641,494
492,496,494,434,492
492,496,493,269,493
492,495,494,187,494
492,494,493,171,492
492,495,493,204,491
492,494,493,288,494
492,493,493,419,495
492,493,491,574,496
492,494,492,753,494
492,494,492,872,495
492,495,493,860,494
492,495,493,761,494
492,495,494,545,493
492,494,495,362,492
492,496,494,221,490
492,494,493,172,491
492,495,494,181,490
492,495,494,231,489
492,494,492,337,489
492,493,491,484,491
492,494,492,643,494
492,493,491,823,495
492,494,491,878,494
492,495,492,839,493
492,494,493,671,494
492,495,494,456,492
492,495,495,286,493
492,495,494,193,494
492,495,494,170,494
492,495,493,198,493
492,495,492,272,492
492,494,493,394,492
492,494,491,554,492
492,493,491,730,492
492,493,492,866,493
492,494,493,865,493
492,495,493,785,493
492,495,494,575,494
492,494,494,385,495
492,495,494,231,494
492,495,494,175,493
492,495,495,177,492
492,495,494,220,491
492,494,493,321,491
492,494,492,465,492
492,493,492,620,493
492,494,492,803,493
492,494,492,880,494
492,495,492,847,495
492,496,492,701,493
492,495,493,488,494
491,496,495,318,493
492,495,494,201,494
492,496,494,168,493
492,495,494,191,492
492,494,493,256,494
492,494,492,375,492
492,494,491,527,493
492,494,491,698,492
492,493,491,852,492
492,494,492,868,493
492,494,491,802,494
492,495,494,609,494
492,495,494,410,494
492,495,495,246,494
492,496,493,180,493
492,495,492,174,494
492,494,493,210,494
492,494,492,302,492
492,494,493,438,494
492,494,491,597,492
492,494,491,781,493
492,494,491,876,493
492,496,491,853,494
492,494,493,732,493
492,494,494,513,494
492,495,493,333,494
492,495,493,211,494
492,495,493,168,493
492,494,493,188,493
492,494,492,244,493
492,494,492,356,493
492,494,492,506,493
492,493,491,671,491
492,493,491,840,490
492,493,491,872,493
492,494,492,826,493
492,495,493,640,496
492,495,494,435,495
492,495,494,270,496
492,494,494,187,497
492,495,493,173,495
492,494,493,206,492
492,494,492,289,491
492,494,493,421,490
492,494,492,576,491
492,493,491,752,492
492,494,491,873,494
492,494,492,859,493
492,494,493,758,494
492,495,493,542,494
492,495,494,362,495
492,495,493,221,495
492,494,493,172,492
492,494,494,184,493
492,495,493,231,492
492,493,492,338,492
492,493,491,486,493
492,493,492,643,493
492,494,491,823,493
492,493,492,876,496
492,494,493,837,496
492,495,492,670,494
492,495,494,458,490
492,496,494,289,488
492,495,494,194,491
492,495,493,170,497
492,494,493,198,495
492,494,492,272,493
492,494,493,394,492
492,494,491,553,491
492,493,491,728,492
492,493,490,868,493
492,494,491,863,495
492,494,493,784,494
492,495,493,575,494
492,495,495,385,495
492,495,495,230,493
492,495,493,175,493
492,495,493,179,493
492,494,493,220,493
492,494,492,321,492
492,494,492,463,492
492,493,492,622,493
492,493,492,804,492
492,493,492,878,493
492,493,492,847,493
492,494,493,700,494
492,494,492,485,494
492,494,493,315,494
492,495,494,201,494
492,494,494,166,493
492,494,494,192,492
492,495,494,257,492
492,494,492,376,492
492,492,491,529,492
492,494,491,698,493
492,492,491,851,492
492,494,492,867,494
492,494,491,801,494
492,494,493,605,493
491,495,494,409,493
492,494,493,247,495
492,494,493,179,494
491,494,494,175,493
492,494,494,211,492
492,494,493,304,493
492,493,492,439,491
492,493,492,598,493
492,493,492,782,493
492,492,490,878,492
492,494,491,854,493
492,493,493,728,495
492,495,493,512,495
492,494,492,333,496
492,494,495,209,495
492,494,492,168,492
492,494,494,187,492
492,493,493,242,492
492,493,493,354,493
492,494,491,504,491
492,494,492,673,492
492,492,491,843,492
492,494,491,875,494
492,493,491,826,494
492,495,492,640,494
492,495,494,428,493
492,494,493,265,493
492,495,494,187,493
492,494,493,174,493
492,494,493,206,492
492,494,493,289,493
492,493,492,418,492
492,493,492,573,491
492,494,490,757,491
492,493,490,874,490
492,494,492,861,493
492,494,491,759,494
492,495,493,543,495
492,494,493,361,495
492,495,494,221,496
492,495,493,173,495
492,494,493,183,494
492,494,493,234,494
492,494,492,339,492
492,492,491,487,493
492,493,491,643,491
492,493,490,821,492
492,493,491,877,493
492,494,492,837,494
492,494,493,669,495
492,494,493,461,496
492,495,494,293,494
492,495,494,192,494
492,494,493,168,493
492,494,492,197,493
492,494,492,271,493
492,493,492,398,493
492,492,492,554,493
492,492,492,727,492
492,493,491,866,493
492,493,491,864,494
492,494,492,781,494
492,494,494,574,494
492,495,495,383,495
492,495,494,230,495
492,494,494,174,494
492,494,493,179,494
492,494,493,219,493
492,493,493,320,492
492,494,492,462,493
492,493,492,618,494
492,492,491,805,493
492,493,492,878,494
492,494,491,846,493
492,494,493,702,494
492,494,493,483,495
492,493,493,314,495
492,495,494,202,494
492,495,493,169,493
492,495,493,193,493
492,494,492,258,492
492,494,492,376,493
492,493,492,528,492
492,492,491,701,492
492,492,491,851,493
492,493,492,868,493
492,494,492,801,495
492,495,494,605,494
492,494,494,407,494
492,495,495,244,493
492,495,494,180,494
492,495,493,175,494
492,495,493,210,493
492,492,493,306,493
492,492,491,444,493
492,493,492,599,492
492,493,490,779,493
493,494,491,878,494
492,493,491,854,494
492,494,492,730,494
492,494,494,514,495
492,494,495,337,494
492,495,495,210,493
492,495,495,165,494
492,495,493,187,494
492,494,493,244,493
492,493,492,357,493
492,493,492,506,493
492,493,491,671,493
492,493,491,841,493
492,492,491,875,496
492,493,491,823,495
492,494,494,639,493
492,495,494,431,491
492,495,494,268,492
492,494,495,185,491
492,494,493,170,494
492,494,493,206,493
492,493,493,288,494
492,493,491,419,493
492,492,492,574,492
492,493,491,757,492
493,493,491,875,494
492,494,492,859,494
492,494,492,760,495
492,494,494,543,495
492,494,494,359,493
492,494,494,219,494
492,494,494,172,493
492,494,494,184,493
492,493,493,232,492
492,493,492,336,492
492,493,492,488,492
492,492,491,645,491
493,493,490,824,493
492,492,492,877,494
492,493,492,838,494
492,494,492,668,493
492,495,494,460,493
492,495,494,291,494
492,495,494,192,494
492,495,494,170,493
492,493,493,199,493
492,493,492,271,494
492,493,492,399,493
492,492,492,556,492
492,493,492,728,492
493,492,491,866,492
493,493,492,865,493
492,493,492,781,494
492,494,494,573,494
492,495,494,384,494
492,495,494,231,493
492,494,495,173,492
492,494,494,179,491
492,494,493,219,493
492,494,493,322,493
492,493,492,463,492
492,493,491,618,495
492,492,490,803,494
492,493,492,880,496
492,494,492,845,497
492,494,492,700,494
492,495,494,485,493
492,494,494,313,493
492,495,494,201,493
492,494,493,169,496
492,494,493,191,494
492,493,493,257,493
492,493,493,376,492
492,493,492,529,491
492,493,491,700,491
492,493,491,851,492
492,493,491,869,493
492,494,492,801,495
492,494,493,608,494
492,495,493,408,496
492,495,495,247,494
492,495,494,180,494
492,494,493,173,493
492,494,493,211,492
492,492,493,305,493
492,493,492,442,492
492,493,492,600,493
493,493,492,781,492
493,493,491,875,492
492,494,491,853,493
492,495,492,729,495
492,496,494,513,494
492,495,495,338,495
492,495,494,210,494
492,494,494,165,494
492,495,493,188,493
492,494,493,243,493
492,493,493,357,492
492,494,492,508,493
492,493,491,669,491
492,492,491,840,493
492,493,492,873,494
492,495,493,824,494
492,495,493,636,495
492,495,495,432,496
492,494,494,270,494
492,494,493,186,494
492,494,495,173,494
492,496,492,203,495
492,493,492,290,494
492,493,493,418,493
492,492,493,571,494
492,492,489,757,493
492,494,491,873,493
492,492,491,861,493
492,494,492,758,495
492,496,494,539,494
492,496,492,356,496
492,494,493,219,493
492,496,495,171,493
492,493,494,185,494
492,495,492,231,492
492,494,493,341,492
492,494,493,474,491
492,494,490,641,493
492,492,491,824,493
492,492,491,878,495
492,494,490,838,494
492,494,495,672,496
492,496,493,454,493
492,496,494,283,493
492,495,496,194,493
492,493,494,173,493
492,494,494,202,492
492,495,492,276,492
492,494,493,396,492
492,494,492,554,493
492,493,492,734,493
492,493,491,869,494
492,493,491,866,494
492,495,493,783,492
492,495,492,575,495
492,495,492,387,494
492,495,494,231,494
492,496,494,173,497
492,495,494,179,496
492,494,494,220,498
492,494,493,322,495
492,495,493,468,490
492,495,490,623,488
492,494,490,803,489
492,494,492,879,491
492,494,492,844,493
492,495,494,699,493
492,496,493,481,493
492,495,495,311,493
492,495,494,201,493
492,494,493,166,494
492,496,494,194,493
492,495,494,258,492
492,494,493,374,492
492,493,493,523,493
492,494,492,701,491
492,492,490,853,494
492,494,491,870,494
492,495,491,800,496
492,494,492,604,494
492,495,493,401,494
492,496,493,244,493
492,495,493,180,493
492,494,493,175,492
492,494,494,211,494
492,495,494,306,492
492,493,492,436,491
492,493,491,595,494
492,494,490,783,493
492,492,490,880,495
492,493,491,855,495
492,493,493,729,495
492,495,492,510,495
492,494,495,335,495
492,495,493,208,495
492,495,494,170,493
492,495,494,188,492
492,494,493,244,493
492,494,492,358,492
492,493,492,508,493
492,493,492,672,492
493,494,492,844,493
492,494,491,873,494
492,494,493,822,495
492,494,494,639,495
492,495,495,434,495
492,495,493,268,495
492,495,494,186,494
492,495,493,173,494
492,495,494,205,493
492,493,492,287,492
492,494,493,422,492
492,494,493,575,494
492,495,493,756,494
492,492,492,874,493
492,495,492,857,494
492,494,493,758,493
492,495,494,539,494
492,495,493,357,493
492,495,494,220,493
492,496,493,173,494
492,495,494,184,495
492,495,493,235,495
492,494,492,338,496
492,493,492,482,492
492,493,493,640,492
492,493,492,825,493
493,494,492,876,492
492,494,492,840,495
492,494,492,670,495
492,495,494,457,494
492,496,494,288,493
492,495,493,194,493
492,496,493,170,493
492,495,493,201,493
492,494,493,275,495
492,494,492,398,494
492,494,492,556,493
492,493,491,732,494
493,494,492,868,494
492,495,492,864,494
492,494,492,782,494
492,496,494,575,496
492,496,494,389,495
492,495,494,230,495
492,495,494,172,493
492,494,494,177,493
492,495,493,221,493
492,495,492,321,493
492,495,492,466,493
492,493,492,624,495
492,493,490,803,494
492,494,491,878,494
492,495,493,846,493
492,495,492,700,493
492,495,493,484,494
492,495,495,314,496
492,495,494,200,494
492,494,494,168,495
492,495,494,194,494
492,496,493,257,493
492,494,493,376,493
492,493,491,527,493
492,493,491,701,493
492,494,492,851,493
492,494,492,870,495
492,495,493,800,494
492,495,494,607,495
492,494,493,403,494
492,496,493,242,494
492,495,493,181,493
492,494,493,175,494
492,494,492,212,492
492,494,492,306,494
492,494,492,439,493
492,493,492,597,493
492,493,491,782,492
492,494,491,878,494
492,494,491,852,495
492,494,493,729,495
492,496,493,511,494
492,495,493,336,495
492,494,492,208,495
492,495,494,170,492
492,495,493,186,494
492,494,492,244,494
492,494,492,356,492
492,494,491,504,493
492,493,491,670,492
492,494,490,843,493
493,493,491,873,494
492,494,492,824,494
492,494,494,639,495
492,495,494,431,496
492,495,494,264,495
492,496,494,188,493
492,495,493,171,494
492,493,492,204,493
492,494,494,289,494
492,495,492,419,492
492,495,493,575,493
492,493,490,758,493
493,493,490,871,493
492,496,491,859,495
492,496,492,757,496
492,495,494,540,494
492,495,495,359,494
492,496,493,221,494
492,494,493,171,493
492,495,494,185,494
492,495,493,232,493
492,493,492,340,492
492,495,491,484,493
492,494,491,643,490
493,493,491,823,490
493,494,491,877,492
493,495,491,837,494
492,495,493,668,495
492,496,494,457,496
492,496,494,289,497
492,496,494,194,494
492,494,493,173,493
492,494,493,200,493
492,495,493,273,492
492,495,492,399,492
492,493,491,554,492
492,493,492,729,493
492,493,492,869,495
493,494,491,864,494
492,495,493,782,495
492,495,494,573,495
492,495,495,386,495
492,495,495,231,495
492,494,493,176,495
492,494,492,178,494
492,494,492,220,494
492,493,492,320,492
492,494,493,464,493
493,492,491,619,493
492,492,491,803,494
492,493,490,879,493
493,495,491,844,494
492,495,493,700,496
492,495,493,484,494
492,495,494,311,496
492,496,495,200,495
492,494,493,169,494
492,495,492,194,493
492,495,493,257,495
492,494,493,374,495
492,493,492,528,493
492,492,491,702,495
493,493,492,853,494
492,493,492,868,494
493,494,491,800,493
492,495,493,607,493
492,496,493,402,493
492,494,493,240,493
492,495,493,179,494
492,495,493,175,494
492,495,494,212,493
492,495,492,306,492
492,493,493,438,492
492,494,491,598,492
493,493,492,782,492
493,494,492,876,494
493,494,492,852,494
492,495,493,729,495
492,495,493,510,495
492,495,494,335,494
492,494,495,212,494
492,495,495,169,494
492,494,494,190,494
492,494,493,246,494
492,494,494,356,494
492,494,492,507,494
493,493,492,670,492
493,492,490,841,494
493,494,492,873,494
492,495,492,824,497
492,495,492,638,497
492,494,493,435,495
492,496,495,269,494
492,494,494,187,491
492,494,494,173,490
492,495,494,206,491
492,494,492,288,491
492,494,492,420,493
492,492,492,573,493
492,492,491,756,495
492,493,491,874,495
493,494,491,860,495
492,494,492,756,496
492,495,493,543,496
492,494,495,357,494
492,495,494,220,495
492,495,494,173,495
492,494,494,183,493
492,494,494,234,493
492,493,493,339,494
492,494,492,484,494
492,494,491,642,492
493,492,490,824,492
493,494,491,877,494
492,495,493,838,494
492,494,493,669,494
492,495,493,457,494
492,494,494,287,494
492,494,494,195,496
492,494,494,171,495
492,495,493,199,494
492,494,492,274,494
492,493,493,398,493
492,493,491,553,493
493,493,492,729,493
493,494,492,865,494
493,495,492,862,494
492,495,492,783,495
492,495,494,570,496
492,496,493,384,496
492,497,495,232,495
492,495,494,176,494
492,494,493,180,494
492,495,494,222,493
492,494,493,322,493
492,493,492,464,494
493,493,491,620,492
493,493,491,803,492
493,494,492,880,493
492,494,493,848,494
492,494,492,699,497
492,495,494,483,496
492,495,495,313,496
492,495,493,201,495
492,496,493,167,494
492,496,493,195,493
492,495,494,258,493
492,494,492,375,493
492,493,493,528,493
493,494,493,703,493
493,493,491,853,492
493,494,492,869,493
492,494,492,800,494
492,495,494,604,496
492,495,494,407,499
492,497,496,241,499
492,494,493,179,496
492,495,493,176,494
492,494,494,210,493
492,494,493,305,490
492,494,492,439,491
492,494,492,598,491
493,493,491,782,493
493,493,491,878,494
492,494,492,853,497
492,494,493,729,496
492,495,494,511,496
492,495,495,333,493
492,495,494,209,494
492,495,493,169,493
492,495,493,189,492
492,494,494,244,492
492,494,493,357,491
492,494,493,507,493
492,493,492,672,494
493,493,491,844,496
492,494,491,873,495
492,495,492,823,496
492,494,493,638,495
492,495,494,429,495
492,496,495,267,496
492,495,494,188,494
492,494,494,173,493
492,495,493,206,494
492,494,493,290,492
492,495,492,420,490
493,494,491,575,490
492,492,491,755,490
493,493,491,873,493
493,495,491,860,495
492,494,493,756,496
493,495,494,539,496
492,495,494,360,496
492,497,495,219,495
492,494,494,173,494
492,495,493,185,494
492,494,493,233,494
492,494,493,340,493
493,494,493,483,493
493,493,491,643,493
493,494,491,824,493
493,494,492,876,495
493,495,491,838,496
492,494,493,667,496
492,496,494,457,494
492,495,495,290,496
492,495,494,193,494
492,494,494,170,493
492,495,493,200,492
492,494,494,273,493
492,494,492,397,494
492,494,492,555,494
492,493,491,730,493
493,493,491,866,493
493,495,492,863,494
492,494,493,782,495
492,495,494,572,496
492,496,495,382,495
492,495,494,228,495
492,494,494,175,494
492,494,494,181,493
492,494,493,222,493
492,493,493,321,493
492,494,492,466,492
492,494,493,622,494
493,493,490,802,493
493,494,492,879,495
492,494,492,846,494
492,495,492,700,495
492,496,494,485,494
492,494,495,312,495
492,495,493,201,495
492,495,493,167,493
492,494,493,194,494
492,494,492,257,494
492,493,493,378,495
492,493,492,531,493
493,493,491,700,492
493,494,491,851,491
493,495,492,865,494
492,495,492,798,495
492,495,493,602,495
492,495,494,405,496
492,495,494,244,493
492,494,494,181,494
492,494,493,175,495
492,494,493,212,493
492,495,492,307,493
492,493,493,441,493
493,495,491,597,493
492,494,491,783,494
493,493,490,878,494
493,495,492,853,493
492,495,493,729,494
492,495,494,512,496
492,496,494,333,495
492,496,495,210,494
492,495,493,168,491
492,494,493,190,493
492,494,493,244,495
492,494,493,359,497
492,494,492,507,495
492,493,491,674,493
493,493,491,842,493
493,494,492,872,492
493,495,492,823,493
492,495,493,639,494
492,495,493,432,493
492,495,494,266,494
492,495,493,186,494
492,495,493,172,493
492,495,493,206,495
492,495,493,289,496
492,494,491,423,495
492,494,492,578,495
492,493,491,755,494
493,494,491,872,493
493,495,493,857,492
493,495,492,755,494
492,495,494,541,495
492,495,495,360,495
492,496,493,218,494
492,495,494,171,493
492,495,494,184,495
492,494,493,231,495
492,494,493,339,495
492,494,492,489,494
492,494,491,645,493
493,493,490,820,493
493,494,491,876,494
493,495,492,836,494
492,496,494,668,494
492,496,494,458,495
492,497,493,287,496
492,495,494,192,495
492,495,495,171,494
492,495,493,198,494
492,495,493,273,493
492,495,493,397,494
493,495,493,553,492
492,494,491,731,493
493,494,491,868,494
493,495,492,863,493
493,494,493,779,495
492,495,493,573,494
492,495,494,381,495
492,497,494,232,493
492,496,494,176,494
492,495,493,180,495
492,495,492,220,495
492,494,493,323,493
492,494,492,461,494
492,494,491,621,494
493,494,491,805,493
493,494,492,879,493
493,495,492,847,494
492,496,492,701,494
492,496,493,484,494
492,497,493,312,496
492,495,494,202,496
492,494,494,167,496
492,495,494,196,494
492,494,493,260,497
492,493,493,377,494
492,493,491,530,494
493,494,490,705,495
493,495,491,855,493
493,494,493,868,495
493,495,491,800,494
492,495,493,601,495
492,496,495,400,497
492,496,493,244,493
492,495,496,179,493
492,494,495,174,495
492,494,492,212,491
492,495,494,307,491
492,494,493,436,493
492,494,492,591,493
493,494,491,784,495
493,493,491,880,493
493,494,491,856,493
492,496,492,730,493
492,497,494,508,494
492,497,494,329,496
492,495,494,213,496
492,496,493,169,494
492,496,493,192,494
492,494,493,246,493
492,494,492,360,493
492,495,493,506,492
492,494,492,674,493
493,493,491,844,493
493,494,493,875,495
493,495,493,823,494
492,496,493,639,496
492,497,495,437,498
492,495,494,271,497
492,496,495,185,495
492,496,495,173,496
492,494,494,203,491
492,494,491,291,491
492,494,494,423,491
492,495,492,579,493
493,495,491,756,491
493,495,490,871,493
493,496,493,857,492
493,496,492,755,495
492,497,495,539,495
492,495,493,358,495
492,495,494,218,496
492,494,495,173,493
492,496,492,184,492
492,494,493,233,491
492,494,492,341,491
492,495,492,481,494
493,495,493,643,494
493,495,491,824,494
493,493,491,877,496
493,493,493,838,496
492,495,494,668,494
492,496,495,449,494
492,495,496,280,494
492,495,495,195,494
492,495,494,173,494
492,494,494,202,494
492,494,493,275,493
492,494,492,397,493
493,492,492,554,492
493,495,493,730,493
493,492,491,867,493
493,495,493,865,496
493,494,493,782,497
492,495,493,572,494
492,497,493,381,492
492,497,496,234,493
492,496,492,174,494
492,494,493,183,493
492,494,494,223,493
492,494,493,322,495
492,495,491,460,492
493,495,492,619,492
493,494,491,806,495
493,493,491,879,495
492,495,492,848,495
492,496,491,698,494
492,496,493,481,496
492,497,493,310,495
492,497,495,204,495
492,494,495,171,493
492,496,492,196,495
492,493,492,260,492
492,496,491,376,493
492,493,494,526,494
493,495,493,702,492
493,494,492,856,493
493,494,493,871,492
493,495,493,801,493
492,494,494,604,497
492,495,495,400,495
492,495,493,242,493
492,495,495,184,494
492,496,492,180,491
492,495,493,213,490
492,494,492,308,492
492,496,492,435,494
492,495,491,593,493
493,495,491,788,492
493,495,490,879,495
493,494,490,854,496
493,495,494,731,495
492,495,492,508,495
492,495,496,323,495
492,495,495,213,494
492,494,493,172,497
492,494,494,193,496
492,493,492,247,494
492,493,494,360,492
492,494,491,503,491
493,494,492,675,493
493,495,490,843,491
493,493,493,874,492
493,496,491,825,493
492,496,492,638,494
492,495,494,424,493
492,494,494,261,493
492,496,495,190,495
492,495,492,173,494
492,495,492,206,495
492,495,494,291,492
492,494,492,416,493
493,495,491,571,493
493,493,491,757,492
493,492,490,874,493
493,495,492,860,493
492,496,492,759,494
492,494,493,539,495
492,495,495,352,495
492,495,493,220,495
492,495,495,175,495
492,494,495,187,492
492,495,492,237,493
492,496,493,339,494
492,494,492,482,493
493,493,491,643,492
493,494,491,829,494
493,494,491,878,494
493,493,494,838,496
492,496,493,671,496
492,496,494,451,496
492,494,495,284,494
492,496,493,198,493
492,494,492,172,493
492,496,494,204,493
492,494,494,276,492
492,495,494,397,492
492,495,492,551,494
493,495,493,735,494
493,493,491,870,495
493,495,491,864,493
492,496,492,780,496
492,494,493,571,494
492,497,493,377,496
492,496,495,234,495
492,496,492,179,493
492,495,492,182,492
492,496,493,223,495
492,495,494,324,494
492,493,492,459,492
493,493,493,616,494
493,494,490,807,495
493,493,490,878,493
493,492,493,848,495
492,494,494,699,493
492,495,493,478,494
492,495,495,307,493
492,496,493,206,492
492,496,493,171,495
492,496,493,198,496
492,494,494,261,495
492,493,492,380,493
492,494,492,527,494
493,493,493,703,497
493,493,491,855,496
493,493,492,870,496
493,495,491,802,495
492,495,493,604,493
492,496,495,405,493
492,496,495,245,494
492,495,493,181,493
492,494,493,176,494
492,496,494,213,493
492,494,494,306,494
492,494,493,444,493
493,494,492,601,492
493,494,490,783,493
493,493,492,878,494
493,494,493,853,494
492,495,492,729,494
492,496,494,511,496
492,496,493,333,494
492,495,494,208,494
492,494,493,169,494
492,495,494,189,495
492,493,493,246,494
492,495,492,356,495
492,493,491,504,493
493,494,491,677,493
493,493,490,842,494
493,494,491,871,495
492,496,492,822,495
492,495,493,637,496
492,496,493,426,494
492,494,494,261,494
492,496,494,187,494
492,495,494,174,494
492,494,494,207,494
492,494,493,289,493
492,493,492,419,493
492,493,491,575,493
492,493,492,757,493
493,494,491,874,495
493,494,493,860,495
492,495,492,757,496
492,495,493,540,495
492,496,495,360,496
492,495,494,221,494
492,496,494,173,494
492,495,494,185,495
492,495,493,234,494
492,495,493,339,493
492,494,492,491,493
492,494,491,646,493
493,494,491,826,494
493,494,492,877,494
492,495,492,835,495
492,495,494,668,496
492,495,495,463,493
492,495,494,291,495
492,495,494,192,494
492,494,494,168,494
492,494,493,197,494
492,494,493,273,494
492,494,492,400,494
492,492,491,556,494
492,493,492,730,492
493,493,491,866,494
493,494,492,863,494
492,494,492,781,496
492,495,494,573,497
492,496,495,379,497
492,496,494,229,494
492,494,493,174,496
492,494,494,178,496
492,494,493,220,495
492,493,492,323,494
492,494,491,464,492
493,493,492,622,494
493,493,491,807,494
493,493,492,877,494
492,495,492,845,494
492,495,492,700,495
492,496,494,481,496
492,494,493,312,495
492,495,495,201,494
492,495,493,169,494
492,494,493,194,494
492,494,492,258,493
492,495,491,379,493
492,495,492,532,493
493,494,492,703,493
493,495,490,852,495
493,495,492,868,494
493,495,492,800,494
492,495,492,602,494
492,497,494,405,494
492,496,494,245,496
492,496,494,180,497
492,495,494,176,495
492,494,493,210,494
492,493,492,306,495
492,494,492,445,493
492,495,492,601,494
493,494,490,780,493
493,493,491,878,493
493,495,492,852,494
493,494,492,726,495
492,495,494,512,495
492,495,493,334,495
492,496,494,209,495
492,496,493,167,495
492,494,493,188,495
492,495,493,244,494
492,494,493,356,494
492,494,492,508,494
493,493,491,672,493
493,493,492,844,495
493,493,492,873,496
492,494,492,821,495
492,494,493,635,495
492,497,494,431,494
492,495,495,264,494
492,496,494,188,493
492,494,494,173,494
492,495,492,207,493
492,494,493,310,493
492,493,492,472,492
493,493,493,627,493
493,494,491,767,493
493,494,491,856,495
493,495,491,844,496
492,494,493,753,496
492,495,492,576,495
492,495,494,403,495
492,496,494,244,494
492,495,494,145,494
492,494,493,161,492
492,496,493,218,493
492,494,493,362,493
492,494,492,528,492
492,494,492,680,495
493,494,491,795,496
493,494,492,851,496
492,494,493,813,495
492,495,493,674,496
492,496,493,494,494
492,496,494,325,494
492,496,495,185,495
492,495,494,140,495
492,495,493,174,496
492,494,492,266,494
492,493,492,431,494
493,494,492,591,492
492,494,491,733,493
493,495,491,837,493
493,494,492,837,495
492,495,492,762,496
492,495,493,594,495
492,496,494,421,496
492,496,493,258,494
492,496,494,143,493
492,494,494,152,493
492,495,494,199,494
492,493,493,333,493
492,494,492,501,495
492,493,492,655,495
492,493,492,781,494
493,494,492,851,494
492,494,492,821,494
492,495,493,695,494
492,495,493,518,494
492,497,493,348,495
492,495,494,199,495
492,496,495,137,495
492,495,493,167,495
492,495,493,246,494
492,495,493,405,494
492,494,491,568,494
493,495,491,715,493
492,494,492,820,493
493,493,492,839,494
493,494,492,779,494
492,495,494,618,495
492,495,494,440,495
492,495,495,275,495
492,496,494,154,492
492,495,494,147,495
492,494,493,186,494
492,494,493,309,494
492,493,492,478,494
492,493,491,632,494
493,494,492,767,494
493,494,491,847,494
492,494,493,827,495
492,495,493,720,497
492,495,494,543,496
492,495,494,370,497
492,495,494,216,496
492,496,494,136,495
492,494,493,159,493
492,495,493,228,493
492,493,492,381,493
492,494,492,544,492
493,494,491,695,492
493,495,492,809,492
493,494,492,844,495
492,494,492,797,495
492,495,493,645,496
492,496,494,466,494
492,495,495,300,495
492,496,495,168,494
492,495,494,143,494
492,495,493,179,493
492,494,492,287,493
492,494,492,453,492
492,493,491,609,494
493,493,491,751,494
493,493,491,844,494
493,495,492,832,494
492,494,492,741,496
492,495,493,568,494
492,496,495,396,493
492,495,494,236,494
492,496,495,137,496
492,495,493,156,496
492,494,493,211,495
492,493,492,354,493
492,494,491,522,495
492,493,491,674,495
493,494,492,794,493
493,495,491,846,494
492,495,492,814,494
492,495,492,671,495
492,495,493,490,495
492,497,493,319,495
492,495,494,178,495
492,495,494,140,493
492,495,493,174,495
492,494,492,266,493
492,495,492,429,494
492,493,491,589,492
493,493,491,732,492
493,494,491,837,494
493,494,491,837,494
492,494,492,764,494
492,495,492,594,495
492,496,493,419,496
492,496,494,253,496
492,496,494,144,494
492,494,495,151,493
492,495,493,198,494
492,495,493,334,494
492,494,492,498,495
492,493,490,651,495
492,494,491,774,495
493,494,491,847,496
493,495,492,821,494
492,494,492,697,495
492,495,493,517,494
492,494,493,348,496
492,496,494,197,496
492,496,494,140,493
492,494,494,168,492
492,495,493,246,492
492,494,492,405,493
492,495,492,565,494
493,494,491,713,496
493,493,491,825,498
493,495,491,839,495
492,494,492,780,493
492,495,493,619,493
492,495,493,440,492
492,496,494,276,496
492,496,494,150,495
492,495,492,146,494
492,495,494,188,494
492,494,493,309,493
492,495,492,477,491
492,494,492,633,493
493,494,491,765,494
493,493,490,850,495
493,495,493,829,494
492,494,493,723,494
492,495,495,541,494
492,494,493,367,496
492,495,494,213,495
492,495,493,138,494
492,494,493,162,494
492,495,493,229,495
492,494,492,380,494
492,493,493,542,494
493,494,492,695,493
493,494,491,810,492
493,494,491,844,494
492,494,492,799,494
492,495,493,646,494
492,496,493,465,495
492,496,494,297,495
492,496,493,164,494
492,496,494,143,494
492,494,493,180,494
492,494,492,288,493
492,494,492,455,493
493,493,492,609,493
493,494,492,748,493
493,494,492,844,493
493,495,492,832,493
493,495,492,742,496
492,494,494,567,496
492,495,493,395,498
492,496,494,235,498
492,496,495,141,496
492,494,494,157,493
492,495,493,214,491
492,494,493,356,493
493,494,492,522,493
493,493,490,675,495
493,494,491,794,493
493,494,492,846,494
492,495,492,813,495
493,495,492,671,495
492,495,492,492,497
492,495,493,321,493
492,495,494,179,494
492,495,494,140,493
492,494,492,174,493
492,495,493,266,493
492,494,492,430,494
492,493,491,589,494
493,494,492,734,494
493,494,491,840,494
492,494,492,838,496
492,495,493,766,496
492,494,493,594,497
492,496,493,416,496
492,495,494,252,495
492,495,494,142,492
492,495,493,152,491
492,495,493,197,492
492,494,493,333,491
492,493,492,499,491
493,493,492,655,492
493,493,491,777,493
493,493,492,849,494
493,494,492,824,497
493,494,493,694,498
492,495,493,514,495
492,495,494,346,494
492,495,494,196,493
492,495,494,139,492
492,494,493,167,494
492,495,493,247,494
492,495,493,408,495
492,492,491,565,496
493,493,491,713,494
493,494,491,822,493
493,494,491,841,493
492,494,492,779,497
492,495,493,620,496
492,496,494,440,495
492,496,494,275,494
492,495,494,149,491
492,494,494,148,492
492,495,493,187,496
492,495,493,311,495
492,494,492,477,492
493,494,492,633,492
493,493,492,765,495
493,493,492,851,499
492,495,491,829,498
492,495,492,718,499
492,496,493,544,497
492,497,494,368,494
492,496,494,212,494
492,496,495,138,490
492,494,496,163,489
492,494,493,228,490
492,495,492,381,489
492,495,492,544,491
493,494,492,696,492
493,493,491,813,493
493,494,492,845,496
493,494,492,800,496
492,495,493,648,498
492,496,495,467,498
492,496,495,296,497
492,496,494,164,496
492,495,494,144,494
492,495,493,182,493
492,495,493,290,497
492,495,492,455,502
492,494,492,612,498
492,494,491,751,493
493,495,491,847,490
493,496,491,831,491
493,496,493,744,496
492,495,494,567,492
492,498,493,390,492
492,497,495,233,494
492,495,494,140,494
492,495,492,157,494
492,494,493,216,494
492,495,493,359,492
492,495,491,522,492
492,495,491,676,491
493,494,490,792,494
493,494,492,849,500
493,496,492,815,500
492,496,493,670,500
492,497,495,490,501
492,495,493,321,495
492,495,495,179,492
492,495,493,141,492
492,496,495,173,491
492,494,493,266,495
493,495,493,430,495
492,494,492,589,495
492,495,491,732,496
492,494,492,840,493
493,494,492,838,491
493,495,492,763,492
492,496,494,592,493
492,496,496,420,497
492,496,495,253,497
492,496,495,141,497
492,494,494,153,495
492,495,495,198,492
492,495,493,332,489
493,494,492,502,491
493,494,491,654,492
493,495,491,781,492
493,495,493,852,495
493,495,492,823,496
492,496,493,697,494
492,495,495,516,496
492,495,494,346,495
492,497,494,195,494
492,495,494,139,494
492,496,492,167,493
492,496,493,245,493
492,495,492,407,492
492,493,491,566,494
493,494,492,716,493
493,494,491,824,494
493,495,492,841,495
493,494,493,783,494
492,496,493,620,495
492,495,495,440,494
492,496,493,275,494
492,496,495,150,494
492,495,493,146,492
492,496,494,187,492
492,495,493,311,492
492,494,493,478,493
493,495,492,633,495
492,494,492,765,494
492,494,491,849,495
493,495,491,827,493
492,494,493,720,495
492,496,492,539,495
492,495,493,367,494
492,496,494,215,494
492,496,493,139,494
492,495,493,162,493
492,496,492,230,493
492,495,492,381,494
492,493,493,542,494
492,494,492,695,496
493,494,491,813,495
492,495,491,844,493
493,495,493,800,494
492,496,492,645,495
492,496,494,465,491
492,495,493,298,491
492,496,495,161,492
492,495,494,143,492
492,494,493,180,493
492,494,493,288,493
492,495,491,453,491
493,494,492,611,489
493,494,491,750,487
493,494,492,847,487
493,495,492,832,492
492,495,493,743,494
492,496,493,567,498
492,495,492,394,498
492,496,494,232,496
492,496,493,139,494
492,495,493,158,492
492,494,494,215,494
492,495,492,357,494
492,494,491,522,493
492,494,491,676,493
493,494,492,792,492
493,495,491,848,494
493,494,491,813,495
492,495,493,671,495
492,496,495,490,493
492,496,493,319,494
492,496,493,177,494
492,496,494,140,493
492,495,493,174,492
492,495,492,269,493
492,494,492,431,492
492,493,492,590,493
493,494,492,732,492
493,495,493,839,493
493,495,492,835,494
493,495,492,765,494
492,495,493,592,497
492,496,494,419,495
492,497,494,255,492
492,496,494,141,492
492,495,494,152,493
492,495,493,199,493
492,495,492,334,494
492,495,491,500,492
493,495,491,652,490
493,494,492,777,491
493,494,491,850,493
493,495,493,821,494
492,495,492,695,494
492,496,493,516,494
492,497,494,347,495
492,495,494,195,497
492,497,493,139,495
492,496,493,168,493
492,495,492,245,493
492,495,493,406,492
492,494,491,565,493
493,494,491,715,491
493,494,491,822,490
493,496,491,842,493
493,496,493,780,493
492,496,493,621,493
492,497,494,441,494
492,497,493,274,494
492,496,494,148,493
492,495,494,148,492
492,495,493,189,490
492,495,493,310,491
492,495,492,475,492
492,495,491,634,494
492,493,491,763,494
493,495,491,850,494
493,495,492,830,492
493,495,492,719,492
492,497,493,542,494
492,495,494,367,494
492,496,495,214,494
492,496,495,137,493
492,495,493,162,493
492,495,493,228,491
492,494,492,381,490
493,495,492,544,490
493,494,492,694,492
493,494,491,812,494
493,495,491,846,493
493,494,493,801,493
492,496,494,646,496
492,496,493,465,495
492,496,493,298,494
492,496,494,166,494
492,495,493,145,495
492,496,492,181,494
492,495,493,289,492
492,494,493,453,492
493,494,491,607,491
493,494,492,749,493
493,494,491,845,494
493,495,492,833,494
492,495,493,744,492
492,496,492,568,493
492,495,493,395,493
492,496,495,234,494
492,495,494,141,496
492,496,493,155,495
492,494,493,215,494
492,494,493,358,493
492,494,493,521,493
492,494,492,675,493
493,494,492,793,493
493,495,493,847,494
493,495,493,813,494
492,496,493,672,493
492,497,493,490,495
492,495,494,320,494
492,496,495,179,495
492,495,494,139,495
492,495,493,175,495
492,495,493,267,493
492,494,492,431,493
493,495,493,589,493
492,494,491,734,493
492,494,492,836,489
493,496,493,836,490
493,495,493,763,491
492,497,495,594,493
492,497,493,417,495
492,497,494,251,495
492,495,493,143,497
492,496,495,154,494
492,495,495,201,494
492,494,493,333,492
493,495,492,498,491
493,495,491,651,492
493,495,491,773,494
493,494,492,851,492
493,495,492,824,492
492,495,492,696,492
492,497,494,514,493
492,496,494,343,495
492,495,495,178,493
492,496,493,142,494
492,493,492,171,490
492,496,494,241,491
492,497,492,359,494
493,494,493,483,492
493,494,491,693,492
493,494,490,850,490
493,492,493,866,493
493,495,494,798,494
492,496,494,598,496
492,496,493,376,492
492,495,493,239,492
492,496,493,178,494
492,497,492,179,492
492,494,495,213,495
492,494,493,304,493
492,495,492,426,494
492,495,491,584,491
493,495,491,787,492
493,496,492,881,493
493,495,492,854,494
493,496,492,728,497
492,498,493,506,496
492,496,493,302,494
492,497,494,215,493
492,497,493,172,493
492,496,492,193,494
492,495,492,247,495
492,494,491,398,493
492,495,494,477,494
493,494,493,678,491
493,494,490,846,493
493,494,492,873,493
493,496,492,824,495
493,495,494,638,496
492,498,495,439,496
492,497,494,280,495
492,496,495,182,493
492,496,493,169,494
492,496,494,199,493
492,495,492,283,492
492,495,493,413,489
493,494,491,583,492
493,495,491,756,494
493,494,492,873,496
493,495,492,857,494
492,494,492,752,495
492,496,494,533,495
492,496,494,360,493
492,496,495,218,494
492,496,494,172,494
492,496,493,184,494
492,495,494,234,493
492,496,492,349,493
492,496,492,507,492
493,495,492,662,493
493,494,491,819,493
493,495,491,871,493
493,495,491,833,495
492,495,493,678,496
492,496,493,490,492
492,497,495,313,495
492,498,494,177,493
492,496,495,158,492
492,496,493,189,496
492,495,493,271,494
492,494,493,425,493
493,494,493,577,491
493,495,492,720,489
493,494,491,855,493
493,495,491,853,496
492,496,492,771,495
492,496,493,574,494
492,496,495,388,493
492,497,495,220,494
492,496,494,164,493
492,495,494,172,493
492,495,492,212,493
492,495,492,315,492
492,495,491,458,494
492,494,492,615,492
493,495,490,803,492
493,495,491,876,493
492,495,492,844,494
492,495,493,695,495
492,496,494,472,493
492,496,495,301,494
492,496,493,201,493
492,495,493,168,494
492,495,493,192,494
492,495,494,259,494
492,495,492,375,494
492,494,492,528,493
493,494,491,705,492
493,494,491,853,492
493,495,493,868,493
493,495,493,799,494
492,496,494,603,493
492,496,495,411,495
492,497,495,249,495
492,496,493,179,494
492,496,494,174,492
492,496,493,212,493
492,495,493,308,494
492,494,492,458,494
492,494,492,612,495
493,494,491,778,494
493,494,491,875,493
493,495,492,850,492
493,495,494,725,493
492,496,493,525,495
492,497,495,347,497
492,497,494,203,496
492,495,493,162,494
492,495,493,185,492
492,495,493,242,491
492,495,493,359,494
492,494,493,512,497
493,494,491,671,498
493,495,491,841,495
493,494,492,870,491
493,495,492,819,490
492,496,493,633,491
492,496,494,427,492
492,496,494,262,495
492,495,494,184,497
492,496,493,172,497
492,494,493,205,494
492,495,494,289,493
492,496,493,416,493
493,494,493,571,493
493,494,491,761,493
493,495,492,875,495
493,494,492,859,495
492,495,493,754,497
492,496,495,536,497
492,497,495,354,495
492,497,495,218,493
492,495,493,172,491
492,495,493,186,493
492,495,492,234,495
492,495,492,342,494
493,495,492,491,493
493,494,491,648,494
493,494,491,827,494
493,495,493,877,495
492,495,492,838,495
492,496,493,667,496
492,496,494,461,496
492,496,493,293,493
492,496,494,192,494
492,495,494,169,492
492,496,493,199,494
492,495,493,274,495
492,494,492,406,493
492,495,491,561,493
493,494,491,730,491
493,494,491,867,492
493,495,493,863,494
493,496,494,779,494
492,495,494,571,495
492,496,494,384,494
492,497,494,229,494
492,496,494,173,492
492,496,494,179,491
492,495,493,221,492
492,495,492,321,495
493,494,492,465,494
492,494,492,622,495
492,494,490,806,494
493,493,491,881,497
493,495,492,845,495
492,495,493,699,494
492,496,494,481,493
492,496,494,311,496
492,497,494,201,496
492,495,494,169,494
492,495,494,196,493
492,496,494,259,493
492,495,492,376,492
492,495,492,534,490
493,495,491,705,490
493,495,491,854,491
493,495,493,868,495
492,495,493,799,498
492,496,493,604,500
492,497,494,407,499
492,496,495,241,497
492,496,493,179,495
492,495,493,176,491
492,495,493,211,490
492,494,493,306,493
492,494,492,446,494
492,494,492,603,494
493,495,491,784,493
493,495,491,879,493
493,495,492,853,494
492,495,493,725,495
492,496,494,512,494
492,496,494,334,496
492,496,494,207,496
492,495,493,166,495
492,496,493,189,494
492,495,493,244,493
492,495,493,359,494
492,494,491,511,493
493,494,492,671,493
493,495,492,843,494
493,494,492,872,494
493,495,493,820,495
492,495,493,634,494
492,496,494,430,494
492,496,494,266,495
492,495,495,187,495
492,495,494,172,494
492,495,493,207,494
492,494,493,288,494
492,495,493,419,495
492,494,491,575,494
493,494,492,760,494
493,494,491,875,494
493,495,493,858,493
492,496,493,756,495
492,495,494,538,494
492,495,495,356,494
492,496,494,218,494
492,496,494,171,494
492,495,494,184,495
492,495,494,235,496
492,494,493,341,495
492,494,492,488,493
493,495,492,647,491
493,494,491,827,492
493,494,493,878,493
493,496,492,839,493
492,496,492,666,496
492,496,493,457,496
492,496,495,288,497
493,496,493,194,496
492,496,495,168,495
492,496,493,199,495
492,494,492,274,493
492,493,493,399,492
493,494,491,557,493
493,494,492,733,489
493,493,491,867,491
493,495,491,864,495
493,495,493,781,496
492,495,494,569,495
492,495,494,380,495
492,495,495,228,496
492,494,494,173,495
492,495,493,182,494
492,495,493,221,493
492,494,493,322,493
493,495,493,462,493
492,494,492,620,492
493,493,492,807,492
493,494,492,880,493
493,496,492,848,494
492,496,493,697,494
492,495,494,477,495
492,496,494,308,494
492,497,493,202,493
492,495,494,169,492
492,495,492,193,493
492,495,493,260,491
492,494,493,377,493
493,494,491,532,493
493,494,491,707,495
493,494,491,856,495
493,496,491,870,496
493,495,493,799,495
492,496,493,604,496
492,495,494,408,495
492,496,495,244,495
492,495,494,180,494
492,495,493,174,496
492,496,492,210,496
492,496,492,306,494
492,494,494,447,493
493,495,493,603,490
493,494,493,786,487
493,495,491,880,491
493,494,493,851,495
493,495,492,728,498
492,497,493,508,499
492,497,494,332,496
492,496,494,207,495
492,495,495,168,495
492,495,492,187,493
492,494,494,244,494
492,494,492,360,494
492,496,491,506,493
493,494,492,676,492
493,493,490,846,495
493,494,493,872,492
493,494,492,823,495
492,496,493,638,497
492,496,494,422,494
492,495,495,260,495
492,496,495,190,494
492,495,494,175,495
492,495,492,208,494
492,495,493,292,494
492,495,492,419,493
492,496,493,574,493
492,493,493,761,492
493,494,490,876,492
493,496,492,860,493
493,495,493,755,495
492,495,493,539,495
492,495,493,357,494
492,497,495,217,493
492,497,495,169,496
492,495,494,188,494
492,493,491,236,495
492,493,492,340,493
492,494,494,484,492
493,496,491,644,492
493,492,490,830,494
493,494,491,877,493
493,496,491,837,494
492,494,493,664,495
492,497,495,442,497
492,496,494,275,496
492,497,492,196,492
492,495,492,173,492
492,495,492,199,491
492,496,492,275,491
492,495,491,397,493
493,495,490,542,492
493,494,490,739,493
493,493,489,873,492
493,496,493,869,493
493,497,492,783,495
492,495,495,572,497
492,496,495,364,496
492,497,496,232,496
492,494,494,177,496
492,496,494,182,496
492,494,492,223,493
492,496,493,323,493
493,495,494,454,493
493,495,492,620,494
493,495,490,809,494
493,495,491,884,493
493,495,492,847,493
493,496,492,700,493
492,496,493,473,493
492,497,495,303,495
492,497,493,209,494
492,496,493,175,497
492,496,495,196,494
492,495,493,263,494
492,494,494,377,491
493,495,492,526,492
493,492,490,706,494
493,493,491,860,492
493,495,490,869,493
493,494,491,801,493
492,493,495,605,496
492,496,493,395,496
492,495,494,245,493
492,497,493,182,494
492,495,493,179,492
492,495,495,217,494
492,496,494,310,493
492,494,492,428,493
493,492,492,589,492
493,492,492,791,495
493,494,490,881,494
493,496,493,857,495
492,495,493,732,494
492,497,494,504,495
492,497,495,317,494
492,495,495,212,493
492,497,494,169,493
492,494,494,195,492
492,496,493,249,495
492,496,491,362,495
492,495,493,496,494
492,493,492,678,494
493,496,490,848,489
493,492,489,878,492
493,497,491,827,496
492,495,492,641,496
492,495,494,425,497
492,494,495,258,493
492,494,493,190,492
492,494,494,173,494
492,494,493,207,494
492,495,494,292,492
492,495,491,419,492
493,495,491,574,491
493,492,492,760,490
493,496,492,877,493
493,496,490,859,492
493,496,494,753,496
492,496,492,536,498
492,497,494,349,497
492,496,494,223,494
492,495,493,174,495
492,493,494,186,493
492,497,494,237,491
492,495,494,345,492
492,493,491,477,493
493,493,490,646,494
493,492,491,826,495
493,496,493,880,493
493,493,494,837,495
493,496,493,666,495
492,496,493,446,494
492,497,495,279,496
493,494,493,199,495
492,495,491,174,492
492,497,495,200,491
492,493,495,280,489
492,496,490,396,492
492,494,494,552,492
493,493,492,736,492
493,492,493,870,497
493,492,490,865,494
493,496,493,784,496
492,497,491,572,495
492,496,495,375,495
492,497,495,231,495
492,497,493,178,495
492,497,492,183,495
492,496,494,223,492
492,496,494,324,493
492,494,493,457,493
492,494,492,619,490
492,495,493,806,490
493,495,493,878,495
492,493,489,849,497
492,494,495,698,500
492,495,494,471,497
492,497,495,298,493
492,494,492,204,495
492,497,492,170,494
492,495,495,195,495
492,496,494,264,493
493,496,491,379,488
492,493,494,520,490
493,495,493,712,488
493,493,490,855,491
493,493,490,872,495
492,494,492,804,498
492,495,495,603,494
492,496,493,393,494
492,497,495,243,493
492,496,496,183,496
492,497,493,177,494
492,494,493,216,491
492,493,492,307,494
492,495,491,439,491
493,495,491,597,494
492,495,490,785,491
493,495,491,881,496
493,495,490,853,496
492,495,493,731,496
492,497,493,505,493
492,497,493,324,492
492,494,493,213,491
492,496,496,172,492
492,495,492,190,492
492,493,494,247,496
492,493,492,363,493
492,494,490,500,496
492,495,489,677,495
493,492,491,846,496
492,495,491,875,493
492,493,491,820,492
493,494,491,638,492
492,496,494,418,496
492,496,495,258,493
492,497,495,188,495
492,495,493,173,495
492,493,492,207,493
492,494,494,293,493
492,494,491,414,494
492,495,492,567,493
493,494,490,768,493
493,494,490,878,494
493,495,494,860,496
493,496,494,758,493
492,495,494,542,497
492,495,493,342,494
492,494,494,225,495
492,494,494,175,495
492,494,493,190,494
492,493,493,235,493
492,493,491,342,494
493,494,493,475,493
493,493,491,651,493
493,494,492,827,494
493,494,492,879,495
493,494,491,840,492
492,496,492,666,494
492,495,494,440,495
492,495,495,275,497
492,496,493,200,493
492,496,495,170,493
492,495,493,201,493
492,496,494,275,497
492,495,494,399,496
492,496,492,550,494
493,495,491,738,492
493,495,492,871,495
493,493,489,866,494
493,496,494,778,493
492,496,495,572,496
492,496,494,374,495
492,494,494,233,493
492,496,496,179,496
492,493,495,180,493
492,494,495,224,493
492,495,495,324,493
492,494,491,458,495
493,495,493,614,493
493,492,492,807,491
493,493,491,883,493
493,496,492,846,493
492,493,492,696,493
492,495,496,473,494
492,495,493,299,490
492,494,493,204,495
492,493,496,169,498
492,493,493,195,497
492,494,494,260,496
492,495,493,379,496
492,494,493,523,494
493,494,491,709,491
493,492,491,858,493
493,493,491,870,494
493,493,493,803,493
492,496,491,605,498
492,497,494,392,494
492,497,492,244,496
492,493,496,183,493
492,495,492,180,496
492,496,492,213,491
492,496,491,310,493
492,496,491,432,495
492,493,491,594,493
493,493,491,790,492
493,493,493,879,495
493,494,492,857,493
493,495,492,728,494
492,495,495,501,496
492,496,495,317,493
492,494,493,216,494
492,495,493,173,493
492,494,493,194,492
492,497,492,250,494
493,496,490,359,492
492,493,493,494,492
493,494,491,679,493
493,493,490,847,494
493,494,490,877,496
492,494,492,825,496
492,496,492,637,498
492,496,493,413,498
492,495,492,260,496
492,495,494,192,492
492,496,493,176,492
492,494,495,208,490
492,494,492,295,494
492,494,493,414,492
492,495,492,563,491
493,494,493,763,490
492,493,492,882,495
493,495,491,864,494
492,496,492,756,495
492,495,495,539,495
492,496,494,349,493
492,495,496,222,495
492,495,495,175,495
492,495,493,190,495
492,495,493,237,496
492,493,494,346,491
493,494,493,480,492
493,494,491,649,492
493,495,492,831,493
493,496,490,880,492
493,495,491,837,490
493,496,492,669,494
492,495,495,445,495
492,496,493,276,498
492,495,495,199,495
492,495,493,174,498
492,494,493,200,496
492,494,491,276,493
492,494,492,398,493
492,495,491,547,493
493,494,493,741,494
493,493,489,874,496
493,496,493,871,496
492,494,492,783,496
492,494,493,571,496
492,497,493,364,493
492,497,494,231,492
492,496,495,178,492
492,494,491,187,493
492,493,495,225,491
492,494,492,327,492
492,493,491,453,494
492,493,491,617,494
492,494,491,813,495
493,495,492,881,497
492,493,491,850,498
492,493,494,697,497
492,494,492,474,497
492,497,495,299,492
492,496,493,207,490
492,495,493,172,492
492,495,493,198,494
492,494,494,262,496
492,495,493,380,494
492,494,492,520,492
493,495,489,714,496
493,492,490,861,497
493,494,491,871,495
493,494,492,802,495
492,495,495,605,495
492,495,493,391,494
492,496,495,244,494
492,494,492,182,492
492,494,494,180,491
492,493,492,214,494
492,494,494,308,492
492,494,492,431,491
492,495,490,590,493
492,494,490,788,493
493,493,491,880,494
493,494,491,856,491
493,495,491,730,493
492,496,494,502,495
492,495,494,319,500
492,496,495,213,497
492,495,493,169,496
492,493,495,191,493
492,496,493,245,493
492,495,494,358,493
492,493,491,498,491
493,493,491,683,494
493,496,490,847,492
493,495,491,876,494
493,494,492,823,494
492,496,495,638,494
492,495,494,414,496
492,495,495,255,496
492,495,493,188,494
492,494,494,174,492
492,496,491,205,490
492,494,492,290,489
492,493,492,414,493
492,495,492,568,495
492,495,492,766,494
492,493,491,878,493
493,493,494,860,492
492,496,493,756,492
492,495,495,539,495
492,497,493,340,494
492,496,495,222,494
492,495,495,174,491
492,496,495,185,492
492,496,494,237,493
492,494,491,342,496
492,493,493,473,497
492,494,492,650,492
493,494,491,831,494
493,494,490,879,492
493,494,492,840,493
493,494,494,668,492
492,494,494,443,494
492,496,493,277,494
492,496,495,198,494
492,494,492,172,491
492,493,493,203,489
492,495,493,279,490
492,494,492,396,495
492,492,492,549,495
492,493,490,738,495
492,494,490,872,496
493,495,492,869,495
493,496,490,783,491
492,495,493,572,494
492,495,493,369,496
492,496,494,234,496
492,495,492,175,494
492,495,492,180,495
492,494,493,225,493
492,492,491,324,495
493,495,494,455,492
492,493,491,618,494
492,493,490,811,494
492,494,491,882,494
492,493,491,846,493
492,496,493,697,495
492,495,496,471,496
492,497,493,296,493
492,496,492,206,490
492,494,494,171,491
492,494,494,201,494
492,495,492,264,495
492,495,492,380,492
493,494,492,520,490
493,494,492,713,490
493,495,492,859,490
493,493,490,873,493
493,495,492,801,497
492,494,492,603,500
492,495,495,390,499
492,495,494,245,493
492,494,495,184,495
492,494,492,178,493
492,493,495,217,495
492,493,493,311,493
492,493,492,434,492
492,492,492,588,490
493,493,493,786,493
493,493,491,882,496
492,493,491,854,496
492,496,495,731,495
492,494,494,504,496
492,495,495,322,495
492,495,493,213,496
492,494,495,174,493
492,495,491,190,492
492,492,494,249,494
492,493,492,359,493
492,493,491,495,493
492,491,490,681,493
493,491,489,847,495
493,493,493,879,497
492,496,492,825,495
492,496,492,636,496
492,497,495,417,491
492,495,493,254,494
492,494,493,191,497
492,495,495,179,496
492,496,494,207,494
492,494,492,292,493
492,493,492,412,492
492,493,491,565,490
493,493,492,769,492
493,492,492,880,492
493,492,490,865,496
492,496,495,756,497
492,494,493,539,498
492,495,494,341,496
492,494,494,223,495
492,494,495,177,494
492,494,494,189,493
492,494,494,238,493
492,493,492,343,494
492,494,490,475,491
493,494,492,650,490
493,494,490,830,491
493,493,494,882,493
492,493,492,838,497
492,494,492,667,495
492,497,493,445,495
492,496,493,276,492
492,496,495,200,491
492,496,496,176,495
492,496,494,204,494
492,494,492,276,495
492,493,492,400,493
492,494,494,547,493
493,493,490,740,493
493,493,492,874,493
493,494,490,867,493
492,493,494,783,496
492,495,494,573,496
492,496,494,369,497
492,495,494,232,494
492,494,494,179,490
492,496,494,182,492
492,494,495,223,491
492,495,494,328,490
492,492,491,453,494
492,493,492,620,496
492,492,492,810,497
492,494,493,884,500
493,493,490,848,493
492,496,493,701,495
492,495,494,472,494
492,496,494,297,492
492,495,493,206,496
492,494,492,171,496
492,494,492,198,494
492,494,494,262,492
492,494,492,379,492
492,493,493,518,492
493,494,492,714,492
493,494,491,859,494
493,493,493,870,494
493,495,494,804,495
492,496,494,603,497
492,497,493,390,496
492,495,493,245,495
492,495,493,185,494
492,496,493,177,492
492,495,493,214,496
492,495,494,309,496
492,495,494,432,492
492,492,493,592,490
493,493,491,791,496
493,495,491,881,496
492,496,493,858,493
492,493,494,730,494
492,495,493,503,495
492,496,495,322,495
492,494,494,214,494
492,493,494,173,493
492,494,492,192,494
492,496,493,250,493
492,495,492,364,495
493,494,493,498,493
493,492,491,680,493
493,494,492,846,492
493,492,491,878,495
493,495,493,822,495
492,495,492,636,495
492,495,493,414,496
492,495,495,259,496
492,495,493,188,494
492,496,494,174,494
492,494,493,210,493
492,493,491,294,495
492,493,493,413,497
492,495,492,562,495
492,494,490,765,496
493,493,490,881,493
493,494,494,866,493
493,497,493,758,491
492,496,496,541,492
492,495,496,343,493
492,496,494,221,494
492,494,495,178,496
492,493,492,190,494
492,496,495,237,493
492,494,494,346,494
492,495,492,480,495
492,493,490,652,494
492,493,490,833,493
493,494,492,879,492
493,495,493,837,493
493,494,493,668,493
492,494,492,452,496
492,496,496,286,497
492,495,493,195,497
492,495,493,170,500
492,495,492,202,495
492,493,493,277,493
492,493,492,408,489
492,492,491,566,489
493,493,492,734,492
493,493,490,868,493
492,494,491,861,493
493,494,494,779,493
492,494,493,568,495
492,496,495,384,495
492,496,495,225,496
492,496,494,173,496
492,495,492,179,495
492,495,493,220,493
492,495,493,324,492
492,494,491,462,493
492,493,492,621,495
493,493,491,807,496
493,494,492,878,497
493,493,492,848,497
492,495,492,693,496
492,496,495,470,493
492,495,494,302,494
492,494,494,202,494
492,494,492,169,493
492,495,494,196,492
492,493,492,258,493
492,493,491,378,491
492,495,492,523,492
492,494,491,710,494
493,495,490,858,494
492,493,493,872,495
492,496,493,800,494
492,496,493,600,496
492,497,494,396,494
492,495,494,242,496
492,496,495,180,495
492,495,494,178,493
492,495,493,213,493
492,495,493,306,495
492,495,493,443,494
492,493,491,603,493
493,494,491,787,493
493,494,493,879,493
493,494,493,853,495
492,494,493,727,494
492,495,494,507,493
492,495,495,330,495
492,494,494,206,495
492,496,494,167,493
492,495,494,189,492
492,494,494,245,493
492,495,493,358,494
492,494,491,510,494
492,493,492,678,493
493,493,491,846,491
493,494,492,873,494
492,494,493,820,495
492,495,492,635,499
492,496,493,428,497
492,496,494,261,497
492,496,493,187,494
492,496,494,172,494
492,495,493,204,493
492,495,493,291,493
492,495,493,421,493
492,493,492,576,492
493,493,491,759,491
493,495,491,877,494
492,495,492,860,496
493,496,492,754,495
492,496,493,535,495
492,495,495,356,494
492,496,495,220,494
492,495,494,171,494
492,495,494,183,494
492,494,493,235,494
492,494,492,340,493
492,494,492,488,494
493,494,491,648,493
493,493,491,828,492
493,494,492,879,495
492,495,493,838,495
492,494,492,666,495
492,496,493,453,494
492,496,494,285,495
492,495,494,192,494
492,495,494,167,493
492,494,493,199,493
493,495,492,273,493
492,494,493,401,492
493,494,493,560,494
492,494,491,737,493
493,493,490,872,496
493,495,492,866,497
493,495,492,781,497
492,495,493,569,493
492,495,494,379,492
492,496,494,228,492
492,495,494,171,494
492,495,493,178,493
492,495,493,222,494
492,495,492,322,494
492,494,492,468,494
492,494,491,624,495
493,493,491,809,494
493,494,492,881,494
493,495,493,849,493
492,494,492,694,495
492,496,494,479,495
492,495,495,308,494
492,496,494,200,494
492,495,494,168,494
492,495,493,195,494
492,496,492,259,495
492,494,493,380,494
492,494,492,533,494
493,494,491,705,492
493,494,491,858,492
493,494,492,869,494
493,494,493,797,493
492,496,494,602,493
492,496,494,402,493
492,495,493,242,496
492,495,494,179,496
492,495,494,174,495
492,494,493,210,493
492,494,493,307,492
492,493,491,445,494
492,494,492,602,495
493,493,491,785,494
493,494,492,881,492
493,495,492,855,494
492,494,493,727,496
492,495,493,509,496
492,497,493,331,494
492,496,495,208,494
492,495,494,166,492
492,494,494,187,492
492,495,493,244,493
492,495,492,359,493
492,494,492,509,494
493,494,491,679,493
493,493,491,846,493
493,494,491,875,493
493,495,492,823,493
492,494,492,635,493
492,496,494,427,493
492,496,495,262,495
492,495,493,186,496
492,494,493,172,496
492,494,493,205,493
492,495,492,291,495
492,493,491,421,495
492,493,492,579,494
492,493,491,762,493
493,493,492,874,490
493,494,491,860,491
493,494,493,755,493
492,495,492,533,495
492,496,494,351,497
492,497,493,218,497
492,495,494,168,495
492,494,494,183,495
492,495,493,232,495
492,494,493,338,492
493,494,492,485,491
492,493,491,648,492
493,494,490,827,493
493,495,492,878,494
493,495,493,837,494
492,495,494,665,497
492,495,494,450,496
492,496,494,283,497
492,495,493,194,495
492,494,493,169,493
492,495,494,198,492
492,496,492,274,492
492,495,492,399,495
492,494,491,556,494
493,493,491,736,492
493,494,492,873,492
493,493,491,866,494
493,494,492,782,494
492,496,494,568,494
492,496,494,381,495
492,495,495,227,495
492,495,494,173,493
492,494,494,178,493
492,495,493,221,494
492,494,493,324,492
492,493,492,471,493
493,494,491,628,493
493,493,491,810,493
493,495,491,881,494
493,495,492,847,493
492,495,493,697,494
492,496,495,484,494
492,496,495,311,494
492,495,494,195,492
492,495,494,165,493
492,494,493,191,493
492,495,493,257,493
492,494,492,378,495
492,494,492,534,493
493,494,492,706,491
493,494,491,858,493
493,494,491,869,493
492,494,493,801,496
492,495,495,601,496
492,496,495,400,496
492,495,494,239,494
492,495,494,178,494
492,495,493,173,494
492,495,494,209,493
492,495,492,306,493
492,495,493,442,492
493,494,491,601,490
493,493,491,785,490
493,494,491,880,495
493,494,493,856,499
492,494,492,727,501
492,496,493,506,500
492,496,495,331,494
492,496,494,208,490
492,495,493,165,491
492,495,493,187,494
492,494,492,244,496
492,494,493,358,492
493,494,492,511,493
493,493,492,679,493
493,494,490,845,495
493,494,492,877,498
492,495,493,823,496
492,495,493,633,496
492,496,495,430,493
492,495,495,265,496
492,496,494,184,495
492,495,494,170,493
492,495,494,204,492
492,495,493,289,491
492,495,492,423,492
493,493,492,580,492
493,493,490,760,493
493,494,491,878,494
493,494,492,860,495
492,495,492,755,496
492,497,493,535,495
492,497,494,355,495
492,496,494,216,496
492,496,494,169,495
492,496,493,182,494
492,494,493,230,493
492,494,493,340,495
492,493,492,487,493
492,494,491,647,492
493,494,491,830,492
493,495,491,880,495
492,494,492,839,496
492,494,494,666,497
492,496,494,451,495
492,496,493,280,494
492,496,494,192,494
492,495,493,169,494
492,495,493,196,494
492,496,494,275,495
492,493,493,399,495
492,494,492,556,493
493,495,493,738,492
493,494,490,871,493
493,495,492,866,494
493,495,492,783,495
492,496,494,568,497
492,496,494,379,496
492,497,495,226,494
492,496,493,174,493
492,494,492,178,493
492,494,492,219,495
492,494,492,322,495
492,493,492,465,494
493,494,492,623,493
493,494,491,809,493
493,494,491,883,495
493,494,493,848,494
492,496,492,699,497
492,497,493,478,494
492,495,494,307,495
492,496,494,200,494
492,496,493,165,489
492,495,493,192,488
492,495,492,260,490
492,494,491,378,495
492,494,492,532,498
493,494,492,709,495
493,493,491,860,494
493,495,492,874,495
492,495,493,803,495
493,496,494,604,498
492,495,493,402,499
492,496,493,237,497
492,496,493,177,496
492,496,494,172,492
492,494,493,211,491
492,495,494,305,494
493,493,492,444,493
493,493,491,604,493
493,495,491,788,494
493,494,491,884,492
493,494,494,857,494
493,496,494,726,495
492,495,493,506,495
492,495,495,327,496
492,496,492,208,493
492,495,495,168,491
492,496,493,186,493
492,494,494,244,495
492,494,494,358,493
492,495,493,506,493
493,494,491,678,494
493,493,491,847,493
493,494,492,875,494
493,494,492,823,493
492,496,493,634,491
492,495,493,420,491
492,495,493,255,497
492,496,493,186,496
492,495,494,172,498
492,496,494,205,496
492,496,492,292,493
492,495,492,419,492
493,495,493,576,491
493,494,492,765,492
493,494,491,880,492
493,496,493,863,492
493,494,493,755,493
492,495,494,536,495
492,495,493,358,497
492,496,494,217,496
492,495,494,168,494
492,495,494,179,495
492,495,493,230,494
492,494,492,340,494
492,494,492,492,494
493,494,491,652,492
493,494,491,830,494
493,493,491,878,494
493,495,492,840,496
492,495,493,666,495
492,496,494,457,496
492,496,494,285,494
492,494,493,186,494
492,495,493,165,494
492,495,494,196,493
492,495,493,272,493
492,496,491,398,492
493,495,492,558,494
493,495,491,736,493
493,494,491,872,496
493,494,492,865,494
493,495,493,780,495
492,497,495,566,495
492,495,495,376,494
492,497,495,226,495
492,496,494,169,495
492,495,493,177,495
492,495,493,219,493
492,495,493,320,493
493,494,493,463,492
492,493,491,622,492
493,493,490,811,494
493,495,492,882,494
493,495,493,850,495
492,495,493,697,492
492,496,493,476,492
492,496,495,305,494
492,496,494,199,494
492,495,495,165,494
492,495,494,192,494
492,495,492,258,492
493,496,492,380,493
493,494,492,535,494
493,494,491,708,493
493,494,490,862,494
493,494,492,873,495
492,495,492,803,495
492,496,493,600,498
492,497,494,408,497
492,497,495,241,496
492,496,494,175,495
492,496,493,172,491
492,496,493,209,494
492,494,493,305,492
493,494,493,446,492
493,495,492,606,492
493,494,491,789,491
493,494,491,882,495
493,494,492,855,497
492,495,493,727,499
492,495,493,507,498
492,497,493,329,494
492,496,494,204,491
492,496,492,163,491
492,495,494,183,491
492,496,492,241,493
492,494,491,357,495
492,495,492,508,494
492,495,492,680,494
493,494,492,849,492
493,495,492,875,493
493,496,492,825,494
492,495,492,633,495
492,496,495,422,495
492,497,494,255,494
492,496,495,183,494
492,496,494,168,493
492,496,493,202,494
492,495,492,290,494
492,495,492,420,493
493,494,492,578,494
493,493,492,764,495
493,494,491,880,493
493,495,492,864,493
492,495,492,753,496
492,495,494,535,496
492,496,494,354,496
492,497,494,216,495
492,496,494,167,492
492,495,494,181,493
492,496,492,231,492
492,495,492,341,493
493,495,492,491,494
493,494,492,650,493
493,495,491,830,494
493,495,492,882,493
493,494,492,840,493
492,496,494,664,494
492,496,493,455,494
492,496,494,283,497
492,496,494,188,496
492,496,493,164,494
492,496,492,195,492
492,495,493,273,495
493,496,493,400,493
493,494,492,560,493
493,494,492,739,493
493,494,491,875,495
492,495,492,867,497
493,494,492,781,499
492,496,494,568,496
492,497,493,380,495
492,495,496,224,492
492,497,492,168,493
492,496,493,176,492
492,495,495,218,493
492,496,494,322,495
492,493,493,461,494
492,494,492,623,493
493,495,490,814,496
493,492,490,883,496
493,495,493,847,492
492,494,495,700,490
492,495,493,473,492
492,495,495,298,494
492,495,494,202,495
492,497,494,166,491
492,496,495,191,493
492,493,493,260,492
492,495,492,376,495
492,493,492,525,494
493,495,493,711,492
493,493,491,862,492
493,494,493,874,494
493,493,495,802,494
492,496,494,600,497
492,495,495,391,496
492,496,494,241,496
492,495,494,179,492
492,497,492,175,491
492,494,494,208,491
492,494,492,308,494
492,495,493,438,492
493,495,490,600,494
493,495,490,792,493
493,494,492,884,493
493,493,490,857,495
492,497,495,728,491
492,498,495,506,493
492,497,493,326,494
492,495,493,206,496
492,496,493,166,493
492,496,492,185,493
492,493,494,242,494
492,495,494,357,494
492,495,494,506,494
493,493,491,682,493
493,495,492,847,493
493,493,490,877,492
493,494,491,827,495
492,496,492,635,494
492,495,495,421,495
492,495,494,253,494
492,497,495,181,489
492,495,493,168,489
492,497,494,202,492
492,495,492,290,493
493,493,494,413,496
493,495,493,570,494
493,494,492,769,495
493,494,493,880,499
493,495,493,861,495
493,496,493,757,495
492,495,492,535,497
492,495,493,343,493
492,496,492,215,493
492,494,493,171,494
492,497,492,184,490
492,496,491,233,492
492,493,491,340,493
492,496,493,482,493
493,494,493,650,495
493,494,491,833,495
493,493,492,881,495
493,494,492,841,494
492,494,491,664,494
492,497,494,445,496
492,495,495,275,496
492,496,495,190,494
492,496,493,169,491
492,496,495,195,488
492,495,494,276,491
493,495,493,397,493
493,495,491,555,494
493,494,492,744,494
493,496,490,876,496
493,497,492,872,493
493,494,491,786,493
492,497,495,567,494
492,496,495,375,494
492,495,495,229,493
492,495,493,174,494
492,494,492,176,494
492,495,495,222,492
492,495,493,323,493
493,496,493,459,492
493,495,491,618,492
493,495,491,813,494
493,494,492,888,493
492,494,492,854,494
492,495,494,701,494
492,496,493,470,495
492,497,495,298,495
492,497,496,201,495
492,494,494,167,495
492,496,493,192,493
492,493,493,256,492
492,494,492,375,492
493,493,490,528,493
493,493,491,713,494
493,493,490,864,496
493,495,491,875,495
493,496,492,802,496
492,497,494,604,492
492,497,494,397,492
492,497,494,239,494
492,495,494,177,493
492,495,495,173,493
492,497,494,209,491
492,495,493,303,491
492,495,493,439,496
492,494,492,602,495
493,495,491,789,493
493,494,490,887,494
493,496,493,857,494
492,494,492,730,494
492,495,492,503,499
492,497,494,324,498
492,496,493,209,498
492,496,494,167,494
492,495,493,185,492
492,495,492,246,493
492,494,494,358,490
492,495,493,507,491
493,494,491,681,491
493,495,491,852,492
493,493,492,877,496
493,496,491,824,496
492,497,493,635,496
492,496,495,421,493
492,495,494,256,488
492,496,493,186,493
492,496,494,172,490
492,494,492,204,496
492,495,493,292,498
492,493,493,416,495
492,495,491,573,494
493,493,492,768,493
493,495,490,879,493
493,494,493,863,493
493,494,492,758,494
492,495,492,537,494
492,496,494,348,495
492,495,495,218,496
492,495,495,168,494
492,494,492,184,495
492,494,492,233,494
492,494,491,339,495
492,494,493,485,495
492,494,493,653,493
493,495,490,834,494
493,494,492,882,496
493,496,492,841,496
492,496,493,667,494
492,497,494,449,497
492,495,495,281,495
492,497,493,193,497
492,495,493,170,495
492,496,492,199,493
492,494,493,274,491
492,493,491,398,492
492,493,492,556,493
493,492,490,741,495
493,495,492,873,495
493,496,491,868,494
493,496,494,785,498
492,497,495,568,496
492,496,495,375,493
492,495,492,229,493
492,494,493,171,492
492,495,495,177,494
492,496,492,222,494
492,493,491,324,495
492,494,494,463,496
492,495,490,622,498
493,495,490,814,495
493,495,491,885,496
493,494,493,849,494
492,496,493,698,495
492,497,493,474,494
492,496,493,302,491
492,495,495,200,492
492,494,495,166,493
492,496,494,190,490
492,494,491,256,490
492,496,491,377,492
492,493,491,530,493
493,492,490,714,492
493,491,491,864,494
493,494,492,874,492
493,494,492,801,496
492,494,495,606,497
492,495,494,398,497
492,495,495,240,498
492,496,495,177,496
492,495,493,174,496
492,494,492,209,493
492,495,492,306,494
492,494,491,437,493
492,494,491,599,495
493,494,492,796,495
493,493,492,883,494
493,494,492,857,492
493,494,493,732,494
492,494,496,504,496
492,496,495,323,498
492,496,493,206,495
492,496,493,165,493
492,494,493,188,492
492,495,494,246,494
492,496,491,358,493
492,493,492,506,494
492,493,492,681,494
493,493,490,851,494
493,493,491,879,494
493,493,492,825,494
492,497,494,634,497
492,495,493,422,495
492,497,494,257,496
492,496,493,185,498
492,495,493,170,496
492,494,494,203,495
492,493,493,290,492
492,495,494,416,494
492,493,492,575,494
493,494,492,764,494
493,495,491,880,495
493,495,493,863,492
493,495,490,755,497
492,497,492,535,495
492,495,493,349,495
492,494,493,218,492
492,494,494,167,491
492,496,493,182,493
492,496,493,232,495
492,496,491,341,496
492,495,492,485,493
493,495,492,651,491
493,495,490,834,489
493,494,490,884,492
493,495,491,842,492
493,494,494,665,492
492,496,495,448,493
492,496,495,278,494
492,496,493,191,500
492,496,493,170,497
492,493,493,199,495
492,494,493,276,493
492,494,494,398,493
493,494,491,555,493
493,494,492,741,494
493,494,491,877,496
493,493,493,870,495
492,495,492,785,496
492,494,493,567,496
492,496,493,373,495
492,495,495,228,495
492,494,493,172,495
492,496,493,178,495
492,494,494,218,492
492,495,491,325,493
493,494,491,461,492
493,494,491,621,491
493,493,491,810,492
493,495,493,883,492
493,494,492,851,494
493,495,492,700,493
493,497,491,471,494
492,494,495,298,494
492,496,493,199,493
492,496,493,167,492
492,494,493,192,495
492,494,492,260,494
492,495,491,376,494
492,495,491,527,494
493,493,490,712,492
493,494,490,863,495
493,493,491,875,495
492,495,492,803,492
492,497,492,600,495
492,495,495,397,495
492,496,495,241,497
492,495,494,178,496
492,496,493,171,494
492,494,492,211,492
492,493,491,304,493
493,494,491,438,493
493,493,491,599,490
493,492,491,790,489
493,493,490,884,494
492,496,491,860,499
492,497,491,729,502
492,497,492,506,495
492,494,495,325,494
492,496,495,206,495
492,494,493,165,495
492,495,493,188,493
492,496,492,243,492
493,495,493,356,491
493,495,493,505,494
493,493,490,684,493
493,495,491,849,495
493,494,492,877,492
493,496,492,824,494
493,497,494,634,495
492,495,494,421,496
492,496,495,254,495
492,496,495,183,495
492,494,494,169,494
492,494,492,204,493
492,493,494,288,494
492,492,494,416,495
492,492,492,575,493
493,494,489,768,493
493,493,491,882,493
493,494,493,865,496
492,496,493,756,497
492,494,495,539,494
492,495,495,349,495
492,495,496,220,493
492,493,493,170,493
492,495,491,183,492
492,495,493,231,492
492,494,493,344,495
492,494,492,483,493
493,493,491,650,494
493,495,490,832,492
493,493,491,881,495
493,496,494,839,495
492,496,491,666,495
492,496,493,444,494
492,496,493,274,498
492,496,495,191,493
492,495,496,166,492
492,496,491,200,491
492,494,493,277,493
493,496,492,397,493
492,495,491,550,494
493,494,493,742,495
493,493,491,874,495
493,494,491,871,493
492,494,493,785,496
492,496,491,568,497
492,496,495,376,498
492,496,493,229,495
492,495,495,172,495
492,495,494,178,494
492,494,491,223,492
492,495,493,322,493
493,495,491,466,493
492,495,491,623,492
493,493,489,814,493
493,494,491,884,495
493,495,493,851,495
492,496,491,701,495
492,494,493,477,494
492,495,493,301,494
492,495,495,197,495
492,494,493,166,494
492,496,494,192,494
492,493,494,260,497
492,493,491,377,495
492,492,493,529,494
492,495,493,711,494
493,493,492,860,495
493,494,491,873,497
492,494,492,803,496
492,496,492,599,495
492,495,494,395,494
492,496,495,239,496
492,494,494,178,494
492,495,493,175,496
492,493,493,211,493
492,496,494,304,491
492,494,492,439,493
493,492,491,598,492
493,494,492,792,489
493,493,493,885,494
493,495,491,858,493
492,496,491,728,495
492,494,494,503,497
492,495,494,324,500
492,495,492,207,497
492,494,494,168,494
492,496,492,185,495
492,496,492,242,492
492,493,491,360,494
492,494,491,507,494
493,493,492,681,490
493,493,490,850,491
493,493,494,878,491
493,496,493,822,494
493,495,492,634,498
492,496,495,423,497
492,496,493,257,496
492,494,495,184,496
492,495,495,170,493
492,496,491,205,494
492,495,493,288,494
492,496,493,416,492
493,493,492,574,495
493,493,490,768,495
493,493,490,880,495
493,495,491,864,495
492,495,492,755,496
492,495,493,536,495
492,496,495,347,494
492,496,495,216,493
492,494,494,171,493
492,495,495,181,492
492,495,492,233,492
492,495,493,342,493
492,495,493,486,493
492,493,491,654,495
493,493,490,833,494
493,493,491,884,493
492,495,492,844,496
492,496,492,668,497
492,497,493,450,496
492,494,494,276,496
492,495,492,194,497
492,496,495,167,495
492,495,494,200,492
492,495,492,275,490
492,496,491,396,493
493,493,492,555,491
493,493,493,738,492
493,495,492,878,492
493,493,490,870,494
493,494,495,785,492
492,497,493,566,492
492,496,495,369,494
492,495,492,227,495
492,497,492,172,493
492,495,493,179,492
492,493,494,221,494
492,496,492,323,494
492,494,492,457,495
492,494,491,619,493
493,495,490,815,492
493,494,490,886,494
492,494,493,851,494
492,493,492,699,493
492,494,493,474,495
492,496,493,300,495
492,495,495,202,493
492,494,492,169,496
492,494,494,195,493
492,494,494,259,494
492,495,491,377,494
493,494,492,530,492
493,494,491,715,490
493,493,492,866,494
493,493,491,874,493
493,495,493,805,497
492,496,495,605,497
492,495,493,397,495
492,496,494,240,494
492,495,493,176,494
492,495,495,172,493
492,495,493,209,495
492,494,492,306,493
492,495,492,439,495
492,493,492,600,493
492,492,491,793,493
493,492,492,883,494
493,494,493,860,493
492,493,493,729,494
492,497,495,502,496
492,495,493,320,495
492,495,493,209,495
492,496,493,164,495
492,495,494,188,496
492,495,491,246,494
492,493,494,357,494
492,494,491,503,493
493,493,492,683,492
493,494,490,849,495
493,493,490,878,496
493,494,491,827,493
492,494,494,636,494
492,496,494,420,496
492,496,494,256,495
492,496,495,185,493
492,494,495,168,492
492,494,493,201,494
492,494,494,292,494
492,493,491,418,493
492,493,491,573,494
493,492,493,767,493
493,495,490,882,492
493,494,493,862,493
492,496,492,759,497
492,497,492,538,497
492,497,495,351,496
492,497,493,218,494
492,495,495,169,491
492,495,492,181,492
492,495,492,233,492
492,495,491,339,494
492,495,491,485,493
493,494,492,649,491
493,494,492,834,494
493,495,491,881,493
493,495,491,841,495
492,495,494,666,495
492,497,495,449,494
492,495,493,277,496
492,497,495,192,494
492,494,493,169,492
492,493,494,198,494
492,495,492,276,494
492,493,492,398,492
492,494,492,553,493
493,495,490,743,494
493,494,490,877,493
493,493,492,870,498
493,494,492,785,497
492,495,493,570,496
492,495,494,373,494
492,495,493,228,492
492,495,495,174,492
492,495,492,176,493
492,494,492,220,492
492,495,491,324,492
492,495,491,463,494
493,495,493,622,493
493,495,491,814,493
493,495,490,884,493
493,493,491,849,496
492,494,492,700,494
492,496,494,476,496
492,496,493,304,495
492,496,493,201,496
492,495,492,166,495
492,494,494,191,494
492,495,492,256,491
492,494,494,377,492
493,494,493,530,494
492,494,490,710,495
493,495,492,860,496
493,493,492,876,495
493,496,492,804,494
492,495,493,603,496
492,497,495,396,491
492,496,495,240,493
492,496,495,175,494
492,494,494,175,496
492,495,494,207,494
492,494,494,305,495
492,495,493,438,492
493,494,493,596,494
493,493,491,791,495
493,495,492,888,496
492,494,493,861,495
493,497,492,731,496
492,495,492,503,493
492,497,493,322,492
492,496,495,209,491
492,494,495,167,494
492,495,493,186,494
492,493,492,245,495
492,495,493,360,494
492,493,491,507,493
492,494,492,684,492
493,494,491,848,492
493,495,491,878,495
493,495,493,824,498
492,494,494,636,496
492,496,495,423,496
492,495,494,257,495
492,496,493,183,495
492,495,493,171,493
492,496,492,203,494
492,494,493,290,495
492,493,492,423,493
493,494,491,578,491
493,494,492,765,490
493,493,491,879,493
493,494,491,863,494
492,494,494,756,495
492,495,494,537,496
492,496,493,354,497
492,497,493,217,495
492,494,493,168,495
493,494,493,181,494
492,495,492,233,493
492,495,492,342,493
492,494,493,489,492
493,494,492,650,493
493,493,492,834,494
493,494,491,881,494
492,494,492,841,496
492,494,493,665,497
492,496,494,450,495
492,495,494,281,496
492,496,493,193,495
492,495,494,166,494
492,495,493,199,495
492,495,492,274,492
492,495,492,396,491
493,494,492,557,493
493,494,491,740,495
493,494,492,874,497
492,495,491,868,496
493,494,493,782,494
492,495,494,571,493
492,495,494,379,494
492,495,495,227,493
492,494,492,172,492
492,495,495,177,494
492,495,493,220,494
492,495,493,323,493
492,493,492,467,494
492,493,492,628,494
493,493,491,811,494
493,494,492,882,494
492,495,492,850,495
492,494,494,697,496
492,496,495,480,495
492,495,494,307,495
492,496,493,197,494
492,495,494,166,494
492,494,493,192,494
492,495,492,257,493
492,494,493,380,493
493,494,492,535,494
493,494,491,709,492
493,493,492,858,494
493,495,492,871,495
492,495,492,800,496
492,494,492,597,495
492,495,493,402,494
492,495,494,238,495
492,495,494,174,495
492,494,494,173,494
492,495,493,209,493
492,493,492,307,494
492,493,492,446,494
493,493,491,603,494
493,494,491,787,494
493,492,493,882,494
492,494,492,856,496
492,495,493,725,495
492,495,495,506,495
492,495,494,330,495
492,496,494,205,494
492,495,494,165,494
492,494,493,186,494
492,493,493,242,494
492,494,493,359,495
492,494,492,511,496
492,494,492,681,494
493,494,491,847,493
493,494,492,875,492
493,495,493,824,494
492,495,494,633,496
492,496,494,427,495
492,496,494,260,495
492,495,494,181,496
492,494,493,169,493
492,495,493,204,494
492,494,493,289,492
492,494,492,423,493
493,494,491,581,493
493,492,491,766,494
493,493,492,878,495
492,494,492,863,495
492,494,493,752,496
492,496,493,536,495
492,496,494,354,492
492,495,494,214,493
492,495,492,165,494
492,495,493,181,495
492,494,493,232,496
492,495,492,338,493
492,493,491,492,493
492,493,492,650,492
493,494,490,831,493
493,494,492,880,495
492,494,492,840,496
492,494,493,664,494
492,495,494,454,495
492,495,493,282,495
492,496,493,190,495
492,494,493,167,494
492,494,493,197,495
492,494,493,271,494
492,495,492,400,493
492,494,492,558,492
493,495,491,735,490
493,493,491,873,492
493,494,492,866,493
492,495,493,780,496
492,494,494,568,497
492,496,494,382,497
492,497,494,226,494
492,495,494,170,494
492,495,493,175,494
492,495,493,219,494
492,494,493,323,492
492,494,492,468,493
492,494,491,627,494
493,493,491,811,495
493,493,492,882,495
492,495,492,849,495
492,494,492,697,496
492,495,495,481,494
492,495,495,308,494
492,495,494,195,494
492,495,493,162,494
492,495,493,191,496
492,495,493,257,494
492,493,492,379,493
493,494,492,534,491
493,494,492,710,492
493,494,490,861,495
493,495,492,872,495
492,494,492,799,496
492,495,495,600,495
492,496,494,402,494
492,496,494,237,495
492,495,494,174,494
492,495,493,172,493
492,494,493,208,493
492,494,493,305,493
492,493,492,445,492
493,493,492,606,493
493,494,492,791,493
493,494,492,881,493
493,495,492,856,494
492,495,492,728,495
492,494,492,508,495
492,495,493,329,494
492,496,494,204,492
492,496,494,163,491
492,495,493,185,492
492,495,493,241,493
492,495,494,360,494
492,494,492,511,495
492,494,492,680,495
493,493,492,847,494
493,495,491,877,494
492,495,492,823,494
492,495,492,630,493
492,496,494,427,494
492,496,493,259,495
492,495,493,182,494
492,494,493,171,494
492,495,493,203,492
492,494,493,290,493
492,494,491,422,495
492,494,491,580,494
493,493,490,765,494
493,494,491,879,494
493,495,492,863,497
493,495,492,753,498
492,496,493,537,497
492,495,494,355,495
492,495,494,213,494
492,495,494,166,495
492,494,494,181,494
492,494,493,231,495
492,493,493,340,493
492,494,493,491,494
493,493,491,652,494
493,494,491,832,493
493,494,491,879,491
493,495,492,839,492
493,494,492,664,495
492,495,494,452,497
492,496,494,282,496
492,495,494,189,496
492,496,492,166,495
492,495,493,198,496
492,494,492,272,493
492,494,492,402,489
493,494,492,561,491
493,494,491,738,491
493,493,491,874,492
493,495,492,866,492
493,494,494,782,494
492,497,494,566,496
492,496,494,379,497
492,496,495,226,495
492,495,494,170,495
492,494,493,176,494
492,495,493,220,494
492,495,492,349,493
492,494,492,516,495
492,494,491,671,493
493,495,491,796,493
493,494,492,867,493
493,494,492,837,494
493,495,492,706,495
492,495,492,524,494
492,496,494,353,495
492,496,494,202,494
492,495,494,140,494
492,494,493,170,493
492,495,493,251,492
492,494,492,411,492
493,494,492,574,494
493,493,491,724,493
493,494,492,831,492
493,494,492,846,496
492,495,493,783,499
492,496,493,618,499
492,496,493,441,497
492,496,494,274,495
492,496,494,148,493
492,495,493,144,493
492,495,492,187,493
492,494,491,309,492
493,494,492,482,492
493,493,491,640,493
493,495,491,773,495
493,493,491,854,497
493,495,491,832,497
492,495,492,719,495
492,496,493,540,494
492,496,494,364,494
492,495,494,210,493
492,496,493,131,492
492,494,492,159,492
492,494,492,226,491
492,493,492,383,493
493,493,491,548,496
493,494,491,702,495
493,494,491,814,494
493,495,491,849,494
493,494,492,799,493
493,495,492,644,495
492,494,493,463,497
492,495,494,296,496
492,496,495,164,496
492,494,492,139,492
492,494,492,177,491
492,495,492,290,492
492,494,492,457,495
493,494,491,614,494
493,493,491,756,494
493,494,491,847,492
493,495,492,834,492
493,494,493,742,494
492,494,493,566,498
492,495,494,390,496
492,496,494,232,494
492,495,494,133,492
492,495,493,150,490
492,494,493,213,491
492,494,492,357,493
493,493,491,526,493
493,494,491,681,495
493,493,490,799,495
493,493,491,850,495
492,495,493,816,494
492,495,493,671,494
492,494,493,487,496
492,495,493,318,495
492,495,493,176,493
492,494,492,134,493
492,495,493,171,492
492,494,492,267,493
492,494,492,431,495
493,493,491,593,494
493,493,491,739,494
493,493,491,841,497
493,494,491,839,497
493,495,493,762,498
492,496,493,591,495
492,495,493,417,491
492,496,494,250,493
492,495,494,136,492
492,494,493,147,493
492,495,493,194,493
492,494,492,334,492
493,493,492,505,492
493,494,490,659,492
493,494,492,784,492
493,494,492,850,493
493,495,492,822,493
493,494,492,694,497
492,496,494,511,500
492,496,494,344,497
492,495,494,194,493
492,496,495,132,490
492,495,494,163,492
492,495,493,245,492
492,493,492,410,492
492,494,492,571,495
492,494,491,719,495
493,493,492,827,493
493,495,491,843,494
493,496,492,780,495
492,494,493,617,497
492,495,493,436,496
492,496,494,268,495
492,496,494,143,494
492,495,493,143,493
492,495,492,185,494
492,494,493,312,492
492,493,493,479,492
493,495,491,636,491
493,493,492,768,493
493,494,491,852,492
493,495,490,830,495
492,495,493,719,496
492,495,494,540,496
492,495,495,363,494
492,496,493,208,494
492,496,495,133,493
492,494,494,160,494
492,495,493,226,492
492,494,492,382,491
493,495,491,546,493
493,494,492,702,493
492,494,491,818,491
493,494,492,848,494
493,494,492,802,490
493,496,493,642,493
492,495,494,460,496
492,496,493,293,497
492,495,494,159,496
492,496,493,140,495
492,494,493,178,493
492,494,492,289,492
492,493,492,456,492
493,494,492,616,493
493,494,491,754,495
493,494,492,850,493
493,494,493,836,494
493,494,492,742,494
492,496,492,563,493
492,495,493,388,496
492,496,494,228,497
492,495,495,137,496
492,496,493,155,495
492,494,493,213,492
492,493,492,357,491
493,494,492,527,494
492,494,491,680,496
492,494,492,800,496
493,494,491,852,494
493,494,492,815,491
493,496,493,669,492
492,494,495,487,493
492,496,494,317,494
492,496,494,174,494
492,494,495,139,494
492,495,493,172,494
492,494,493,269,493
492,493,492,433,493
493,493,492,593,493
493,494,490,739,494
493,494,490,845,495
493,494,492,840,494
493,494,493,764,494
492,496,492,590,493
492,495,493,416,495
492,495,495,246,493
492,495,495,142,493
492,495,493,149,494
492,495,492,198,493
493,494,492,335,491
493,494,492,504,492
493,493,492,660,493
493,493,491,783,494
493,493,492,853,496
493,494,492,824,496
493,495,492,695,494
492,495,493,511,493
492,497,493,340,493
492,496,494,191,494
492,496,493,137,495
492,494,494,166,494
492,495,492,247,492
492,494,492,406,491
493,494,491,567,493
493,493,492,720,497
493,493,491,830,495
493,494,492,844,494
493,496,492,783,492
492,495,492,614,490
492,495,494,434,494
492,496,494,267,497
492,495,495,143,495
492,494,494,144,496
492,496,494,186,496
492,494,493,309,496
492,494,491,480,495
492,494,491,635,492
493,494,491,767,492
493,493,490,852,492
493,494,492,832,493
492,495,492,717,495
492,495,494,538,493
492,496,493,365,492
492,496,494,210,491
492,497,492,134,489
492,495,494,160,492
492,496,492,229,494
492,494,491,383,497
492,494,492,546,495
493,494,491,700,493
493,494,490,816,494
493,494,492,846,494
493,495,492,799,495
492,496,493,645,494
492,496,494,462,494
492,496,493,292,496
492,496,494,159,494
492,494,494,141,492
492,494,493,179,492
492,494,492,289,493
493,494,491,457,494
492,493,491,615,493
493,493,492,753,494
493,493,490,850,494
493,494,491,837,496
493,496,492,743,496
492,494,492,564,494
492,496,493,388,493
492,496,494,225,493
492,495,494,136,493
492,495,492,153,492
492,495,492,211,493
492,494,492,359,493
493,494,491,525,494
493,494,491,680,495
493,494,491,802,493
493,494,492,850,492
493,494,492,815,490
493,494,492,669,493
492,495,493,487,494
492,496,494,316,495
492,496,494,174,497
492,495,493,137,496
492,495,493,172,495
492,495,492,269,492
493,494,491,433,492
493,494,492,594,493
493,494,492,737,495
493,494,492,843,491
493,495,491,839,489
493,495,493,765,491
493,495,493,589,494
492,495,493,415,495
492,495,494,249,493
492,496,494,140,494
492,495,493,149,496
492,494,493,199,496
492,493,492,334,494
492,492,492,503,492
493,494,491,658,495
493,494,491,782,494
493,495,491,852,494
493,496,492,825,496
493,495,493,694,491
493,496,494,510,493
492,495,494,339,495
492,496,493,186,499
492,496,493,136,497
492,494,494,167,495
492,494,492,248,493
492,493,492,408,491
493,495,492,569,492
493,494,492,719,492
493,494,491,831,493
493,493,491,844,495
493,493,491,780,494
492,496,491,616,494
492,495,493,435,494
492,496,494,264,495
492,495,493,142,495
492,496,494,144,493
492,494,492,187,494
493,493,491,311,494
493,493,492,481,491
493,493,492,636,492
493,494,491,768,493
493,493,492,853,493
493,494,492,832,494
493,494,492,718,497
492,494,492,537,495
492,494,492,362,495
492,495,494,208,495
492,495,493,136,494
492,495,494,159,494
492,494,492,229,492
492,494,492,384,494
493,494,491,548,497
493,493,491,699,496
493,494,491,818,492
493,494,492,848,490
493,495,492,800,493
493,495,493,641,493
492,495,493,461,495
492,496,494,292,494
492,495,493,159,493
492,495,493,141,492
492,495,492,180,494
492,494,492,290,492
493,495,492,457,492
493,495,491,612,493
493,493,493,752,493
493,493,492,851,494
493,495,492,836,495
493,495,493,745,495
492,494,494,563,495
492,496,494,391,494
492,494,494,227,493
492,495,494,138,494
492,495,492,155,492
492,495,493,215,492
492,496,493,358,494
493,493,491,524,492
493,495,491,681,493
493,496,493,801,493
493,496,492,850,495
492,496,491,814,493
493,494,491,668,495
492,496,492,487,493
492,494,495,313,496
492,494,494,171,495
492,495,493,136,494
492,495,493,172,493
492,493,491,267,493
493,494,492,432,492
493,494,492,594,493
493,493,491,739,492
493,494,491,843,494
493,494,492,840,493
493,495,492,763,496
492,496,494,590,495
492,496,494,414,494
492,495,493,248,495
492,494,493,140,494
492,496,492,148,493
492,495,493,197,493
492,493,493,336,493
493,495,492,506,494
492,494,491,659,495
493,494,491,783,494
493,494,490,852,494
493,494,492,823,492
493,494,494,696,494
492,495,493,513,493
492,496,494,340,493
492,495,494,192,496
492,495,493,137,494
492,495,493,164,490
492,494,493,248,488
492,494,492,409,490
493,494,492,569,495
493,493,492,718,494
493,493,490,830,492
493,494,492,846,494
493,494,492,781,497
492,496,493,616,496
492,496,494,437,496
492,495,495,268,494
492,496,495,144,493
492,494,494,144,495
492,495,493,187,494
492,493,492,312,494
493,494,492,478,493
493,493,491,638,492
493,494,492,771,493
493,494,492,854,493
493,496,491,831,493
493,495,493,718,494
492,495,493,538,493
492,495,493,363,494
492,496,494,206,495
492,495,494,134,493
492,495,492,161,492
492,496,493,229,494
493,495,491,382,493
493,495,491,547,492
493,494,491,701,492
493,494,492,818,493
493,494,491,847,493
493,495,491,800,494
493,494,493,642,495
492,495,494,458,496
492,496,494,290,496
492,496,494,158,494
492,495,493,140,492
492,495,493,179,495
492,496,491,289,493
493,493,492,457,492
493,493,492,614,492
493,494,490,753,490
493,494,490,851,492
493,495,493,837,494
493,495,491,742,495
492,496,492,563,496
492,495,492,389,498
492,496,494,227,495
492,495,492,137,493
492,494,492,154,495
492,495,492,213,495
492,494,491,360,498
492,495,493,525,496
493,492,490,679,493
493,494,491,801,491
493,494,492,851,491
493,495,492,815,494
493,496,494,668,493
492,495,493,485,493
492,495,494,314,494
492,496,493,172,492
492,496,493,138,493
492,494,492,173,493
492,495,491,269,494
493,493,491,432,493
493,493,490,593,492
493,493,490,739,492
493,494,491,844,492
493,494,491,840,494
493,494,493,762,493
492,495,493,590,494
492,496,494,413,494
492,496,493,246,493
492,495,494,139,496
492,494,492,149,496
492,494,493,196,492
492,494,491,334,492
493,494,491,503,493
493,493,492,661,494
493,493,491,782,494
493,495,491,853,493
493,496,492,825,496
492,494,492,695,493
492,495,492,510,494
492,496,493,338,494
492,496,494,190,493
492,495,493,136,493
492,495,492,165,495
492,494,492,247,493
493,494,492,409,492
493,494,491,571,494
493,494,492,720,493
492,494,491,831,495
493,495,491,843,496
493,496,491,781,496
492,496,494,616,495
492,496,494,437,494
492,496,494,270,494
492,496,494,144,492
492,496,494,145,492
492,495,492,185,492
492,493,491,311,493
493,494,491,481,492
493,495,492,637,491
493,495,491,769,492
493,493,492,852,493
493,493,491,830,495
493,495,493,718,496
492,495,493,537,495
492,496,494,364,493
492,495,493,207,496
492,497,494,136,494
492,496,493,160,493
492,494,492,228,495
492,493,492,383,495
493,494,492,547,498
492,493,490,699,496
493,494,491,818,495
493,494,491,849,494
493,496,491,798,492
493,494,492,643,491
492,495,494,463,492
492,495,494,292,494
492,495,495,158,493
492,494,494,140,493
492,495,492,178,492
492,495,493,289,491
492,494,491,457,493
493,493,491,616,493
493,493,492,755,492
493,493,491,850,494
493,495,491,835,495
493,495,494,741,495
492,496,494,563,494
492,496,493,386,494
492,496,494,227,494
492,496,494,137,494
492,494,493,155,494
492,494,493,212,494
492,495,492,359,494
493,494,491,527,495
492,494,491,681,493
493,494,492,803,491
493,495,491,849,492
493,494,492,814,493
493,496,492,669,495
492,496,493,485,496
492,496,493,315,494
492,496,493,175,494
492,495,494,136,493
492,495,494,173,494
492,494,492,267,492
493,494,492,435,492
493,494,492,593,492
493,494,492,739,494
493,493,491,844,494
493,495,491,841,494
493,496,492,764,493
492,496,494,588,496
492,495,494,414,498
492,496,494,249,498
492,496,494,139,495
492,496,493,150,492
492,495,493,198,491
492,495,493,335,493
493,494,492,504,494
493,494,491,660,495
493,493,490,783,492
493,494,491,851,493
493,495,492,822,493
493,495,493,691,494
492,495,493,511,494
492,495,494,340,490
492,496,494,188,491
492,495,494,136,492
492,494,492,165,495
492,494,491,246,494
492,494,493,410,494
492,494,491,572,493
493,495,490,722,495
493,493,492,832,499
492,494,493,844,499
493,496,493,782,496
493,496,492,614,494
492,497,494,434,490
492,495,494,264,494
492,496,494,143,494
492,494,494,144,493
492,495,493,185,494
492,495,493,312,491
492,495,492,480,492
493,493,492,638,493
493,494,492,770,493
493,494,492,852,494
493,494,493,832,493
493,495,492,716,494
492,496,493,537,495
492,496,493,363,494
492,495,495,209,494
492,496,494,136,493
492,495,494,160,494
492,495,493,229,494
492,493,491,385,494
492,493,493,547,492
493,493,492,701,493
493,494,491,817,494
493,494,493,848,494
493,496,492,799,495
492,494,492,642,496
492,495,493,459,496
492,495,494,292,495
492,496,495,158,494
492,495,494,142,493
492,494,494,179,492
492,495,492,292,491
493,494,492,457,493
493,494,491,615,493
493,494,492,753,493
493,493,491,850,494
493,494,490,838,496
493,495,491,741,494
492,495,493,564,494
492,496,494,386,493
492,495,494,227,494
492,495,495,137,492
492,495,494,155,493
492,494,492,215,494
492,495,493,357,493
492,494,492,525,493
493,494,491,682,493
493,494,491,804,493
493,494,491,850,495
493,494,493,813,493
492,495,492,665,494
492,495,492,483,496
492,496,494,313,497
492,495,495,170,493
492,496,493,137,488
492,494,493,173,490
492,494,492,267,493
492,494,492,435,494
492,494,492,595,493
493,493,491,737,491
493,495,492,846,493
493,494,492,842,496
493,496,492,765,496
492,495,493,587,497
492,496,493,413,495
492,496,495,247,494
492,496,494,142,494
492,495,493,148,495
492,495,494,198,494
492,494,493,335,493
493,495,492,505,494
493,493,492,660,496
493,493,491,782,495
493,494,492,850,494
493,495,493,824,490
493,494,492,692,491
492,495,493,511,493
492,497,494,340,493
492,496,494,189,494
492,495,494,135,493
492,494,493,164,493
492,494,492,249,492
493,494,492,409,494
493,495,491,572,495
493,493,492,721,493
493,494,491,834,494
493,495,492,844,495
493,496,494,780,495
492,495,494,616,497
492,497,494,435,496
492,495,493,269,494
492,496,494,142,493
492,496,493,142,494
492,494,492,187,493
492,494,493,313,492
493,495,490,481,494
493,494,492,638,493
493,494,491,771,493
493,494,491,853,493
493,495,492,833,493
493,495,492,718,495
492,496,493,537,495
492,496,493,363,495
492,496,493,206,494
492,495,493,134,494
492,496,493,161,494
492,494,492,229,494
493,495,492,386,494
493,494,492,551,492
493,493,492,703,494
493,495,491,817,493
493,494,492,847,496
492,495,493,800,496
492,494,494,642,497
492,496,493,459,497
492,496,494,291,496
492,496,493,157,494
492,495,494,143,491
492,495,493,180,490
492,495,492,292,490
493,494,492,461,492
493,494,491,615,493
493,494,491,755,493
493,494,492,851,495
493,494,491,837,493
493,496,494,739,493
492,495,493,563,494
492,495,495,389,493
492,496,494,225,494
492,496,493,138,493
492,495,493,155,493
492,494,494,216,492
492,493,492,361,492
493,492,492,528,493
492,494,491,682,497
493,494,492,804,497
493,495,491,851,494
493,495,492,815,494
492,494,493,667,492
492,495,493,487,492
492,496,493,313,493
492,496,495,170,493
492,495,494,140,492
492,494,493,171,494
492,494,493,269,493
493,494,491,434,495
493,494,492,595,495
493,494,491,741,493
493,493,491,846,490
493,494,492,841,493
493,495,493,765,494
492,496,492,589,494
492,496,494,411,495
492,495,493,245,497
492,495,494,140,494
492,495,494,148,496
492,494,493,200,494
492,493,492,337,491
493,493,492,504,493
493,495,492,661,493
493,494,491,783,493
493,495,492,851,495
493,495,492,824,494
492,496,493,691,494
492,496,493,509,493
492,496,493,337,495
492,495,495,189,494
492,497,493,137,494
492,495,494,167,492
492,494,493,250,493
492,494,492,412,492
493,494,491,572,492
493,493,491,719,493
493,495,491,832,493
493,494,491,845,494
493,494,492,779,494
492,495,492,614,494
492,495,493,436,493
492,496,493,268,494
492,496,495,143,494
492,494,493,145,494
492,494,492,185,493
492,494,492,312,494
492,494,491,480,492
493,494,492,637,491
493,494,490,771,491
493,495,491,855,493
493,494,493,831,497
493,496,493,719,496
492,496,493,536,497
492,495,492,361,496
492,495,493,205,497
492,496,493,133,494
492,494,493,162,494
492,494,492,228,494
492,494,492,384,492
493,493,491,548,493
493,495,490,701,494
493,494,491,819,493
493,493,491,847,494
492,495,492,796,495
492,495,493,642,496
492,495,493,457,498
492,495,494,289,497
492,496,494,156,494
492,495,494,139,493
492,494,492,177,493
492,495,492,291,492
493,494,493,459,492
493,495,491,617,492
493,493,491,756,494
493,494,493,851,495
493,495,492,836,496
493,496,493,743,497
492,496,493,560,494
492,495,492,387,492
492,496,494,226,494
492,496,494,137,493
492,494,494,154,493
492,495,493,215,494
492,494,493,363,493
493,494,492,527,492
493,494,492,682,493
493,494,491,802,493
493,495,492,850,493
493,495,491,815,493
492,495,493,665,495
492,495,493,486,497
492,495,493,315,497
492,496,494,172,497
492,495,494,136,494
492,495,493,173,495
492,494,492,270,492
493,494,491,434,492
493,494,491,593,494
492,494,491,740,493
493,493,491,845,493
493,494,492,841,494
493,494,492,763,496
492,495,492,589,495
492,495,493,412,494
492,495,495,246,493
492,496,494,139,492
492,494,493,150,491
492,494,492,199,493
492,494,492,336,493
492,494,492,505,493
493,494,492,660,494
493,494,491,783,494
493,494,492,852,494
493,494,492,823,496
493,495,492,693,494
492,495,493,510,495
492,496,493,338,494
492,495,494,188,494
492,495,494,137,493
492,495,492,165,496
492,493,493,248,494
492,493,492,411,493
493,493,492,573,490
493,494,490,722,492
493,494,491,835,494
493,494,491,844,496
493,494,492,780,495
492,496,492,613,495
492,495,495,434,495
492,496,495,267,495
492,496,495,144,494
492,494,493,146,493
492,494,493,185,495
492,494,492,314,494
493,494,493,482,492
493,494,491,638,493
493,494,491,770,494
493,493,491,855,494
493,495,492,832,493
493,496,492,718,494
492,495,494,536,495
492,496,493,363,496
492,496,494,207,495
492,496,494,136,493
492,495,494,161,493
492,494,493,231,493
492,493,492,387,494
493,492,493,550,492
493,494,492,703,493
493,494,492,819,494
493,494,491,849,496
492,495,492,798,495
492,495,494,642,495
492,495,495,459,493
492,496,494,290,493
492,496,494,159,493
492,494,494,140,492
492,494,493,180,494
492,493,492,292,493
493,494,492,459,492
493,494,492,617,493
493,493,491,757,493
493,495,491,851,494
492,495,492,834,495
492,494,493,742,495
492,495,493,562,494
492,495,494,388,494
492,495,494,224,493
492,495,495,136,493
492,494,493,155,495
492,495,493,214,496
492,494,492,361,496
493,494,493,527,497
493,494,491,683,494
493,493,491,802,492
493,494,493,851,493
493,495,493,814,494
493,495,493,666,492
492,495,495,484,493
492,496,493,312,494
492,496,494,172,494
492,494,494,138,496
492,495,493,172,497
492,494,493,269,493
492,494,492,436,492
493,494,492,595,493
493,494,491,738,492
493,494,492,845,494
493,495,491,840,497
493,495,491,761,499
492,495,493,587,495
492,495,495,413,493
492,496,494,246,495
492,495,495,140,494
492,495,494,149,495
492,494,492,201,496
492,494,492,339,493
492,494,491,507,494
493,494,491,660,494
493,494,492,784,495
493,494,491,854,496
493,494,491,825,495
493,495,493,692,493
492,495,494,511,495
492,496,494,339,494
492,496,494,189,493
492,494,493,137,495
492,495,493,167,494
492,495,493,250,493
492,494,493,409,493
493,494,492,570,493
493,494,491,721,493
493,494,492,832,493
493,494,492,846,492
493,493,493,782,495
492,496,494,614,495
492,497,494,435,494
492,496,495,267,493
492,496,493,142,491
492,495,494,144,493
492,494,492,187,494
492,494,492,315,495
493,493,493,482,492
493,494,492,639,493
493,493,492,769,494
493,493,492,854,494
493,494,492,831,496
493,494,492,718,495
492,496,494,535,495
492,495,494,360,494
492,496,494,207,496
492,495,493,135,498
492,494,493,159,494
492,495,493,229,495
492,493,492,384,494
493,494,491,550,493
493,495,491,702,494
493,494,491,818,495
493,494,492,847,496
493,494,493,796,495
492,494,493,639,494
492,496,495,456,492
492,496,494,290,491
492,495,494,158,494
492,495,494,141,495
492,494,493,180,495
492,495,492,292,493
492,493,492,458,491
493,494,492,615,491
493,493,492,756,492
493,494,492,852,494
493,494,491,837,494
493,495,494,740,497
492,495,493,563,498
492,495,495,387,497
492,495,494,223,495
492,496,493,136,493
492,495,494,154,493
492,494,493,215,493
493,493,492,363,493
493,493,491,527,492
493,494,491,682,489
493,494,491,806,492
493,495,491,851,495
493,495,491,815,497
492,495,493,668,497
492,495,494,483,497
492,496,493,313,494
492,494,494,171,494
492,496,493,136,494
492,495,493,171,493
493,495,493,271,493
492,494,493,436,493
493,494,491,597,494
493,493,491,740,493
493,493,492,845,494
493,494,491,840,495
493,493,491,762,494
492,495,493,588,494
492,496,494,410,495
492,496,494,244,494
492,496,494,139,494
492,495,493,150,493
492,495,492,199,494
492,493,492,338,493
493,495,491,508,493
493,492,492,661,492
493,492,493,783,491
493,493,491,851,494
493,495,493,821,495
492,494,494,690,496
492,495,493,508,495
492,496,493,336,496
492,495,494,187,496
492,495,494,134,493
492,494,494,166,494
492,495,492,250,494
492,494,492,412,495
493,492,492,573,495
492,493,491,722,495
493,494,491,835,495
493,494,491,846,494
493,494,491,778,495
492,495,494,613,494
492,494,495,434,495
492,495,494,265,493
492,495,495,143,495
492,495,494,145,495
492,495,493,186,495
492,495,492,313,494
492,493,493,480,493
493,494,492,638,494
493,493,491,771,493
493,494,491,855,492
493,493,494,830,494
492,494,493,718,496
492,496,493,535,496
492,494,493,361,495
492,495,494,206,493
492,495,494,137,493
492,494,493,161,492
492,493,493,231,491
492,493,492,388,493
493,494,491,549,496
492,493,491,704,495
493,493,492,819,495
493,495,492,847,494
493,494,493,798,498
492,495,491,639,497
492,494,493,456,495
492,494,494,286,494
492,494,495,158,493
492,495,493,141,493
492,494,492,178,494
492,495,493,292,494
492,495,492,459,493
493,493,491,617,493
493,493,492,755,492
493,494,491,851,494
493,495,491,834,493
492,495,493,742,496
492,495,492,560,496
492,494,494,383,496
492,495,493,225,494
492,496,494,135,495
492,496,493,153,492
492,495,492,216,493
492,495,491,361,494
493,495,492,528,493
492,493,491,682,494
493,493,491,806,493
493,495,491,853,494
493,494,493,814,493
492,494,491,666,493
492,496,493,482,493
492,497,494,315,495
492,496,493,169,495
492,494,495,138,496
492,495,494,173,493
492,493,492,269,494
493,494,493,435,494
493,495,492,595,493
493,494,491,740,492
493,494,492,845,491
493,494,492,843,495
493,495,492,765,500
492,494,493,589,499
492,496,493,411,497
492,496,495,245,497
492,496,494,138,496
492,494,494,150,493
492,495,492,202,492
492,494,493,338,491
492,493,492,508,492
493,493,491,663,491
493,494,491,786,492
493,493,493,852,494
493,495,491,823,496
493,495,493,691,495
492,495,493,509,495
492,495,495,336,495
492,495,493,188,496
492,496,493,136,493
492,494,493,167,492
492,495,493,251,492
493,494,492,414,493
493,495,491,575,492
493,494,491,723,493
493,494,491,833,493
493,495,492,842,494
493,495,491,779,494
492,495,493,612,495
492,496,493,435,495
492,495,494,267,494
492,495,493,142,493
492,494,492,145,493
492,494,493,186,493
492,495,492,316,493
492,492,492,482,493
493,493,492,639,494
493,494,492,772,494
493,495,491,855,493
493,494,493,830,495
492,494,492,714,496
492,495,493,534,497
492,496,494,361,494
492,496,495,204,493
492,495,493,133,493
492,495,494,160,492
492,495,493,231,492
492,495,493,388,492
493,494,493,550,493
493,493,491,703,494
493,494,491,818,494
493,494,491,847,494
493,495,492,796,493
492,496,493,639,494
492,495,493,458,496
492,496,494,287,496
492,495,493,156,493
492,494,493,142,494
492,495,493,181,494
492,494,493,291,493
492,493,492,460,493
493,494,492,618,492
493,494,491,757,492
493,494,491,850,495
493,495,492,837,494
493,496,491,741,495
492,495,493,561,494
492,496,493,385,494
492,495,495,224,493
492,495,494,137,493
492,494,493,155,492
492,495,493,216,494
492,493,492,365,493
493,495,491,529,493
492,493,491,682,497
493,494,491,804,496
493,494,492,850,496
492,495,493,813,495
493,496,493,665,493
492,496,495,483,494
492,495,495,313,495
492,496,494,172,495
492,494,494,137,493
492,495,492,173,493
492,495,493,271,494
493,493,491,437,493
493,494,491,596,494
493,494,492,739,494
492,494,491,845,494
492,494,492,841,494
493,494,494,763,493
492,496,493,587,494
492,496,494,410,495
492,496,494,246,495
492,495,495,139,493
492,495,493,150,494
492,494,493,200,493
492,494,492,339,494
492,494,491,504,493
493,494,492,661,494
493,494,491,786,493
493,495,492,854,493
493,495,493,823,494
493,494,493,693,495
492,495,493,508,496
492,495,494,337,497
492,496,495,187,497
492,495,494,136,495
492,495,493,167,495
492,494,492,251,493
492,494,493,411,493
492,495,491,574,492
493,494,492,724,493
493,493,492,832,494
493,495,492,844,493
493,494,492,779,494
492,496,492,613,495
492,497,495,431,495
492,496,493,266,495
492,496,494,142,494
492,494,494,143,493
492,494,493,186,493
492,495,492,313,494
492,494,492,485,493
493,494,492,639,494
493,495,491,771,494
493,494,492,854,493
493,495,492,831,493
492,495,493,715,494
492,496,492,535,494
492,495,493,360,494
492,495,493,205,494
492,495,494,135,493
492,495,493,161,493
492,494,491,230,493
492,493,492,389,494
492,494,491,550,496
493,494,492,702,492
493,494,492,819,492
493,495,492,846,493
493,494,492,795,494
492,495,493,640,494
492,496,495,456,494
492,495,495,288,494
492,495,494,158,493
492,496,493,142,493
492,494,494,177,495
492,495,493,293,494
492,493,492,460,493
493,495,491,617,493
493,495,492,758,495
493,494,492,850,497
493,495,491,835,495
492,495,493,737,495
492,496,493,561,494
492,496,494,386,496
492,495,494,225,496
492,496,494,136,494
492,495,492,154,494
492,494,492,217,492
492,494,493,363,492
493,494,491,530,493
493,493,492,684,493
493,494,492,805,491
493,494,492,850,493
493,495,493,813,496
492,496,493,666,499
492,496,492,482,496
492,496,493,310,495
492,495,493,171,494
492,496,494,139,491
492,494,492,174,493
492,494,492,271,493
493,494,492,436,493
493,493,492,597,493
493,493,491,742,494
493,493,491,845,494
493,495,491,841,493
493,496,492,763,494
492,495,494,587,493
492,496,492,410,494
492,497,494,244,495
492,496,494,140,494
492,495,493,150,492
492,495,492,203,492
492,494,492,340,493
493,495,492,509,492
493,494,492,662,494
493,494,491,785,494
493,495,491,853,495
493,496,492,824,493
492,496,492,690,494
492,495,494,505,493
492,495,493,336,495
492,496,495,187,495
492,495,493,136,494
492,495,493,166,495
492,495,492,250,495
492,493,492,412,496
492,494,492,573,493
493,494,492,723,493
493,495,492,834,493
493,496,491,844,493
493,495,493,779,495
492,495,494,612,494
492,495,494,432,494
492,495,494,265,494
492,496,494,141,492
492,494,494,144,494
492,494,493,185,494
492,495,492,315,493
493,494,491,482,493
493,494,492,641,493
493,494,491,773,492
493,495,491,856,495
492,495,491,830,496
492,494,493,717,496
492,496,493,536,495
492,496,493,358,495
492,495,494,204,493
492,495,493,134,491
492,495,492,160,492
492,494,493,230,492
493,495,493,387,491
493,492,492,550,492
493,493,491,704,494
493,495,491,819,494
493,495,492,845,496
493,496,491,795,497
492,494,493,637,496
492,495,492,456,495
492,495,494,289,495
492,496,494,158,494
492,494,493,141,493
492,495,492,179,493
493,494,493,295,493
493,494,492,461,493
493,494,492,618,492
493,494,491,756,493
493,493,491,851,494
493,494,491,834,494
493,495,493,737,495
492,495,493,560,493
492,497,494,385,493
492,495,494,224,490
492,494,494,136,490
492,495,494,154,494
492,494,492,217,496
492,494,492,363,497
493,494,491,528,495
493,495,491,684,494
493,494,491,804,494
493,494,491,851,494
492,494,491,811,495
492,495,492,664,495
492,496,492,481,496
492,496,494,311,496
492,495,493,169,495
492,496,493,139,494
492,495,493,173,494
492,494,493,270,493
493,495,492,434,492
493,495,492,596,493
493,494,491,742,493
493,494,492,847,493
493,496,491,838,494
493,495,493,761,495
492,495,493,587,495
492,495,493,409,495
492,496,494,242,495
492,496,495,139,493
492,496,493,150,493
492,495,493,201,492
492,494,492,340,492
493,494,491,509,494
493,494,491,663,493
493,494,492,785,493
493,495,492,853,493
493,495,493,823,492
492,495,492,690,494
492,496,493,507,494
492,497,494,335,494
492,496,495,188,494
492,495,493,137,494
492,495,493,167,494
492,495,492,251,493
492,493,492,415,493
493,494,492,575,494
493,493,492,723,493
493,494,491,834,494
493,495,491,843,493
493,495,492,780,493
492,496,493,612,493
492,495,493,431,496
492,495,495,266,496
492,495,495,143,495
492,496,493,145,493
492,494,493,188,493
492,494,492,317,495
492,493,491,484,495
493,494,492,641,493
493,494,492,771,493
493,494,491,853,491
493,496,492,831,495
492,495,492,715,495
492,495,493,536,494
492,496,495,362,493
492,496,495,205,495
492,496,494,134,492
492,495,492,160,492
492,495,492,232,493
492,495,492,387,493
493,494,492,553,493
493,493,492,706,494
493,494,492,821,494
493,495,493,848,493
493,494,493,796,494
492,495,493,638,494
492,496,494,457,494
492,495,495,288,494
492,496,494,156,494
492,495,493,142,493
492,494,493,180,494
492,494,493,295,495
492,494,494,462,493
493,494,492,620,495
493,494,492,758,494
493,494,492,853,494
493,494,493,835,494
493,495,493,736,492
492,496,494,558,492
492,497,495,382,492
492,497,495,223,493
492,496,495,134,498
492,495,494,156,497
492,494,492,217,495
492,494,492,364,494
493,494,491,531,492
493,494,491,685,492
493,495,491,805,494
493,494,491,852,495
493,495,493,811,496
492,496,493,664,496
492,495,494,484,494
492,496,494,314,497
492,495,494,171,497
492,495,493,140,495
492,494,492,173,494
492,495,492,273,491
493,494,492,437,492
493,495,491,596,491
493,494,491,741,492
493,495,492,847,492
493,495,493,838,495
492,496,492,761,496
492,495,493,585,497
492,495,495,409,496
492,496,494,244,495
492,496,495,140,494
492,495,493,150,493
492,495,493,203,494
492,494,492,339,493
493,494,493,509,494
493,494,492,663,494
493,494,492,785,493
493,495,492,854,493
493,495,492,824,492
492,495,493,690,494
492,496,493,507,492
492,496,494,335,494
492,496,495,186,493
492,495,494,136,492
492,495,492,168,495
492,494,493,251,494
493,494,493,412,495
492,494,492,575,496
493,495,491,724,494
493,495,492,835,494
493,495,493,843,494
493,495,494,779,494
492,495,493,613,495
492,497,494,433,494
492,496,493,265,495
492,496,494,143,494
492,495,494,146,493
492,495,493,188,494
492,495,492,315,493
493,494,492,486,494
492,494,491,641,495
492,494,491,771,494
493,494,491,855,495
492,495,492,829,494
492,496,493,712,494
492,495,493,531,493
492,496,494,359,495
492,496,494,205,495
492,496,493,136,494
492,494,492,160,493
492,494,493,230,492
492,494,491,389,492
492,495,491,552,495
493,495,491,705,494
493,495,491,819,494
493,495,493,848,492
493,495,492,795,492
493,495,492,639,495
492,496,495,458,497
492,495,494,289,497
492,496,494,156,498
492,496,493,141,494
492,496,492,179,491
493,495,492,294,490
493,494,492,462,491
493,495,491,619,491
493,495,491,758,494
493,495,491,853,496
493,494,493,835,497
493,495,493,738,495
492,495,493,558,494
492,495,493,384,494
492,496,494,223,495
492,496,494,135,495
492,495,492,153,495
492,495,492,215,494
492,494,492,365,493
493,494,491,529,495
493,494,492,687,494
493,494,491,806,493
493,494,492,851,492
493,494,492,815,493
492,494,492,664,496
492,496,493,479,495
492,497,494,310,496
492,496,495,170,494
492,496,494,139,493
492,495,494,174,492
492,494,492,271,493
492,494,492,440,494
493,494,492,598,494
493,494,492,740,492
493,493,492,844,493
493,495,492,840,494
493,495,491,760,494
492,495,493,584,499
