Sensor0,Sensor1,Sensor2,Sensor3,Sensor4

490,495,486,495,493
491,494,487,495,493
491,495,488,495,493
491,495,487,495,493
490,495,486,495,493
490,495,486,495,493
489,495,486,495,492
488,495,486,495,494
488,494,487,495,493
487,494,487,495,493
488,495,486,495,493
488,494,486,495,493
489,495,486,495,493
490,495,486,495,493
491,495,486,495,493
491,495,486,495,493
490,495,486,495,493
490,495,486,495,493
489,495,486,495,493
488,494,486,495,493
487,494,486,495,493
487,495,486,495,493
487,495,486,495,493
488,495,486,495,493
489,495,486,495,494
490,495,486,495,494
491,495,485,495,491
490,495,485,495,492
491,495,485,495,494
490,494,486,495,493
490,494,487,495,494
489,494,487,495,493
488,495,486,495,495
488,495,485,495,493
488,496,485,495,493
488,495,485,495,493
488,495,485,495,493
490,495,487,495,493
490,495,489,495,494
491,495,487,495,493
491,495,487,495,493
491,495,487,495,493
490,495,486,495,493
490,495,487,495,493
489,495,486,495,493
488,495,486,495,493
488,495,487,495,493
488,495,486,495,494
488,495,486,495,493
489,495,486,495,493
490,494,485,495,493
491,495,486,495,492
491,495,486,495,493
491,495,486,495,493
491,495,486,495,493
490,494,486,495,493
489,494,487,495,493
489,495,488,495,494
488,495,487,495,494
488,496,487,495,494
488,495,487,495,493
488,495,486,495,493
489,495,485,495,493
490,495,485,495,493
491,495,486,495,491
491,496,486,495,494
491,495,486,495,494
491,495,488,495,493
490,494,488,496,493
489,495,487,495,493
488,495,486,495,494
487,495,486,495,493
487,495,486,495,493
488,495,486,495,493
488,494,486,495,493
489,495,487,495,493
490,495,487,495,493
491,495,487,495,493
491,495,486,495,493
490,495,486,495,493
489,495,486,495,493
489,494,486,495,493
488,494,486,495,493
487,495,486,495,493
487,494,486,495,493
487,495,486,495,493
488,495,486,495,493
489,495,486,495,493
490,495,487,495,493
490,494,486,495,493
490,495,486,495,493
490,494,486,495,493
490,495,486,495,494
489,494,486,496,496
489,495,486,495,492
487,496,487,495,492
487,496,486,495,492
487,495,486,495,493
487,494,486,495,493
488,495,487,495,493
489,495,487,495,493
489,495,486,495,494
490,496,487,495,493
490,495,487,495,493
490,495,487,495,493
489,495,486,495,493
488,494,486,495,493
488,495,486,495,493
487,495,487,495,493
487,495,486,495,493
487,495,487,495,493
488,495,487,495,493
489,495,487,495,493
489,495,487,495,493
490,495,487,495,493
491,495,487,495,493
491,495,486,495,493
490,494,486,495,494
490,495,485,495,494
489,495,485,495,493
488,495,485,496,493
488,495,484,495,493
488,495,484,495,494
488,495,485,495,493
489,495,486,495,491
489,496,486,495,494
491,495,488,495,493
491,495,489,495,494
491,494,488,495,494
491,495,487,495,493
490,495,487,495,493
489,495,489,496,493
489,495,489,496,493
488,494,488,496,493
487,495,487,495,493
487,495,487,495,494
488,495,487,494,494
489,495,487,494,494
490,495,487,494,493
490,495,487,495,493
491,495,487,495,493
491,495,487,495,493
490,495,486,495,493
490,495,487,496,493
489,495,486,495,493
488,495,486,495,493
487,495,486,495,493
487,495,486,495,493
487,495,486,495,493
488,495,487,495,493
489,495,486,495,493
489,495,486,495,493
490,495,486,495,494
490,495,486,495,493
490,495,486,495,493
490,495,486,495,493
489,494,486,495,493
488,495,486,495,493
487,494,487,495,493
487,494,487,495,494
487,495,486,495,493
487,495,487,495,493
488,495,487,495,492
489,495,487,495,493
489,495,487,495,493
490,495,486,495,493
490,495,486,495,493
489,495,486,495,493
489,495,486,495,493
488,495,487,495,493
487,495,487,495,493
486,495,487,495,493
486,494,487,495,493
486,494,487,495,493
487,494,487,495,493
488,494,487,495,493
488,494,486,495,493
489,495,486,495,493
489,495,487,495,493
489,495,487,495,493
489,494,487,495,492
488,495,487,495,493
487,495,487,495,493
486,495,486,495,493
486,495,487,495,492
486,495,487,495,495
487,496,487,495,494
487,496,486,495,493
488,495,486,495,493
489,494,486,495,494
490,494,486,495,493
490,495,486,495,493
489,495,486,495,493
489,495,486,495,493
488,495,486,495,493
487,495,486,495,493
486,496,486,495,493
486,496,488,495,493
486,495,488,495,493
487,495,490,495,493
488,495,490,495,493
489,495,490,496,493
489,495,489,496,493
490,495,487,495,493
490,494,486,495,493
489,495,486,495,493
488,495,486,495,493
488,495,486,495,493
487,495,486,495,493
486,495,487,495,493
486,494,487,495,493
487,495,488,495,493
487,494,487,495,493
488,495,487,495,493
489,495,487,495,493
490,495,487,495,493
490,494,487,495,493
490,495,487,495,493
489,495,487,495,493
488,495,487,495,493
487,495,487,495,493
487,494,486,495,493
487,495,485,495,493
487,494,485,495,492
487,495,486,495,493
488,495,486,496,495
489,496,487,495,495
491,495,488,495,492
490,495,488,495,492
490,495,487,495,493
490,495,486,495,493
489,495,486,495,493
488,496,488,495,493
488,496,488,495,493
487,494,488,495,493
487,495,488,495,493
487,495,487,495,491
487,495,487,495,493
489,495,487,495,493
490,494,487,495,493
491,495,486,495,494
491,495,486,495,493
491,496,486,495,493
490,495,486,495,493
489,495,486,495,493
489,494,486,495,494
488,494,487,495,493
487,495,487,495,493
488,495,488,495,493
488,495,489,495,493
489,495,488,495,493
490,494,487,495,494
490,494,486,495,493
491,495,487,495,493
491,495,487,495,493
490,495,486,495,493
489,495,487,495,493
489,494,487,495,493
488,495,487,495,493
487,495,487,495,493
487,495,487,495,493
487,495,487,495,493
488,495,487,495,493
489,494,487,495,493
490,495,487,495,493
490,495,487,495,493
491,495,487,495,493
490,495,487,495,493
490,495,487,495,493
489,494,486,495,493
488,495,486,495,493
487,495,485,495,493
487,495,485,495,494
487,495,486,495,493
487,495,486,495,493
488,494,487,495,493
489,495,489,495,493
490,495,488,495,493
490,495,487,495,493
490,494,487,495,493
490,494,488,496,494
489,494,487,495,493
488,495,487,495,493
487,495,486,495,493
487,495,486,495,493
486,494,487,495,493
487,494,487,495,492
487,495,487,495,494
488,495,488,495,493
489,495,488,495,493
490,495,487,495,493
490,495,487,495,493
490,494,487,495,493
490,494,487,495,495
489,494,487,495,493
488,495,486,495,493
487,495,487,495,492
486,495,487,495,493
486,495,487,495,493
487,495,487,495,493
487,496,487,495,493
488,496,487,495,491
489,496,487,495,495
490,495,486,495,494
490,494,485,495,493
490,495,486,495,493
489,494,486,495,492
488,495,487,495,493
487,495,487,495,493
487,495,487,495,493
486,494,487,495,493
486,495,487,495,493
487,495,487,495,493
488,495,488,495,493
489,494,488,495,493
489,494,487,495,493
490,494,487,495,493
490,494,487,495,493
489,494,486,495,493
488,495,486,495,493
488,495,486,495,494
487,495,486,495,494
486,495,487,495,493
486,495,487,495,493
486,495,488,496,493
487,494,488,495,493
488,495,488,495,493
489,495,486,495,493
489,495,487,495,493
490,495,486,495,493
489,495,487,495,493
489,494,486,495,493
488,495,488,495,493
487,496,488,495,494
487,496,487,495,493
486,495,486,495,493
486,495,487,495,493
486,494,489,495,493
487,495,489,495,493
488,495,488,495,493
489,495,487,495,493
489,495,487,495,493
489,495,486,495,493
489,495,487,495,493
488,494,487,495,493
487,495,487,495,493
487,495,487,495,493
486,494,487,495,493
486,494,487,495,493
486,494,487,495,493
487,494,487,495,493
488,494,487,495,494
489,494,487,495,493
489,495,487,495,493
489,495,487,495,492
489,494,487,495,494
489,494,487,495,493
488,495,487,495,493
487,495,486,495,493
486,495,486,495,493
486,495,486,495,492
486,495,486,495,495
487,494,487,495,494
487,495,487,495,493
489,495,487,495,494
489,495,487,495,492
489,495,487,495,493
490,495,487,495,494
490,494,487,495,493
489,495,488,495,492
488,495,489,495,493
487,495,488,495,493
486,494,488,495,493
486,494,487,495,493
487,495,487,495,492
487,494,487,495,493
488,495,487,495,493
489,494,487,495,493
489,495,487,495,493
490,495,487,495,493
490,495,487,495,493
489,495,487,495,493
488,495,487,495,493
488,495,487,495,493
487,495,487,495,493
486,495,487,495,493
486,494,487,495,493
486,495,487,495,493
487,494,487,495,493
488,494,487,495,493
489,494,487,495,493
490,495,487,495,493
490,495,487,495,494
490,497,488,495,494
489,498,488,495,494
488,497,487,495,492
487,495,487,495,492
486,494,487,495,493
486,494,488,495,493
486,495,487,495,493
487,494,487,495,493
488,494,487,495,493
488,495,487,495,492
489,495,487,495,493
490,495,487,495,493
490,495,487,495,493
489,494,487,495,493
488,495,487,495,493
487,494,486,495,493
487,495,486,495,493
486,495,487,495,493
486,495,487,495,493
486,495,487,495,493
487,495,487,495,493
488,495,488,495,493
489,495,487,495,493
489,495,487,495,493
489,495,486,495,493
489,494,486,495,493
489,494,486,495,492
488,494,487,495,493
487,495,488,495,493
486,495,488,495,492
485,495,488,495,491
485,495,487,495,494
486,495,487,495,493
487,495,487,495,493
488,494,486,495,494
489,494,487,496,494
489,494,487,495,493
489,495,487,495,494
489,495,487,495,493
488,495,487,495,492
487,495,487,495,493
487,495,487,495,493
485,495,487,495,492
485,495,487,495,493
486,494,486,495,493
486,495,487,495,493
488,495,486,495,493
488,495,487,495,493
489,495,486,495,493
489,495,486,495,493
489,495,486,495,493
489,496,487,495,493
488,496,485,495,493
487,495,486,495,493
486,495,487,495,493
486,494,487,495,493
486,495,488,495,493
486,495,489,496,493
487,495,489,495,493
488,494,488,495,493
489,494,488,496,493
489,494,488,495,493
489,494,487,495,493
489,494,487,495,492
488,495,487,495,493
487,494,487,495,493
486,495,488,495,493
486,495,487,495,493
486,495,488,495,493
486,495,487,495,493
487,494,487,495,493
488,495,487,495,493
489,495,487,495,493
489,494,487,495,493
489,494,487,495,493
489,495,487,495,493
489,495,487,495,493
488,495,487,495,493
487,494,487,495,493
486,495,487,495,494
486,494,487,495,492
486,495,486,495,493
486,495,486,495,491
487,495,486,495,494
488,494,486,495,493
489,495,486,495,494
489,494,485,495,493
490,495,487,495,493
489,495,487,495,493
489,495,487,495,493
488,495,488,495,492
487,495,488,495,493
486,495,488,495,493
486,495,487,495,493
486,494,486,495,493
487,495,487,495,493
488,495,487,495,493
489,495,488,495,493
489,495,488,496,494
490,494,487,495,493
490,494,487,495,493
489,494,487,495,493
488,494,487,495,493
488,495,487,495,493
487,494,487,495,493
486,495,487,495,493
486,495,487,495,494
487,496,487,495,493
487,496,487,495,494
489,495,487,495,493
489,494,487,495,493
490,495,487,495,492
490,495,487,495,493
489,495,487,495,493
489,494,487,495,493
488,494,487,495,493
487,494,487,495,493
486,494,487,495,493
486,495,487,495,493
486,494,488,495,493
487,495,487,495,493
488,495,487,495,493
489,496,488,495,493
489,494,487,495,493
490,495,487,495,493
490,495,487,495,493
489,495,487,495,493
488,495,486,495,493
488,495,487,496,493
487,495,486,495,493
486,495,487,495,493
486,495,487,495,493
486,494,488,495,493
487,495,487,495,493
488,494,487,495,493
489,495,487,495,493
489,495,487,495,493
489,494,487,495,493
489,495,487,495,493
488,494,487,495,494
488,494,487,495,493
487,495,487,495,493
486,494,487,495,492
486,495,488,495,492
486,495,487,495,494
486,494,487,495,493
487,495,487,495,492
488,495,487,495,493
489,495,487,495,492
489,495,487,495,493
490,494,487,495,494
489,494,486,495,493
488,495,486,495,493
487,495,487,495,492
486,495,487,495,492
486,495,487,495,493
486,495,488,495,493
486,495,488,495,493
487,495,488,495,493
488,494,487,495,493
489,495,487,495,493
489,495,487,495,493
490,495,486,495,493
489,495,486,495,493
489,495,486,495,493
488,495,486,495,493
487,495,487,495,493
487,495,487,495,492
486,495,488,495,493
486,495,488,495,493
487,495,487,495,493
488,495,487,495,493
489,496,488,495,493
490,497,488,496,493
490,497,487,495,493
490,494,487,495,493
489,493,487,495,493
489,494,487,495,493
488,494,487,495,493
487,494,487,495,493
487,495,487,495,493
486,495,487,495,493
486,495,487,495,493
487,495,487,495,493
488,495,487,495,493
489,494,486,495,494
490,495,487,495,495
490,495,487,495,493
490,494,488,495,492
489,494,488,495,493
488,495,488,495,493
487,494,487,495,493
487,494,487,495,493
486,494,487,495,493
486,494,487,495,493
486,494,487,495,493
487,495,487,495,493
488,495,487,495,493
489,495,487,495,493
489,494,487,495,493
490,494,487,495,494
489,494,487,495,492
488,495,487,495,493
488,495,487,495,491
487,495,487,495,494
486,495,485,495,493
486,495,484,495,493
486,495,486,495,493
486,496,486,495,493
488,495,487,495,493
489,495,488,495,493
489,495,491,496,493
490,494,490,495,493
489,495,487,495,493
489,495,488,495,492
488,495,488,496,493
488,494,487,495,494
487,496,487,495,493
486,496,487,495,493
486,495,487,495,493
486,494,487,495,492
487,494,487,495,493
488,495,487,495,492
489,494,487,495,493
489,495,487,495,493
489,495,488,495,493
489,495,488,495,493
489,494,488,495,492
488,495,487,495,493
487,494,486,495,493
486,495,487,495,493
486,494,487,495,493
486,495,487,495,493
486,495,487,495,493
487,494,487,495,493
488,494,487,495,493
489,495,487,495,493
490,495,487,495,493
489,495,487,495,493
489,495,487,495,493
488,494,487,495,493
487,495,487,495,493
486,494,487,495,494
486,494,487,495,493
486,494,486,495,493
486,494,486,495,493
487,495,487,495,493
488,494,487,495,493
489,494,487,495,493
489,495,487,495,493
489,495,486,495,493
489,495,486,495,493
489,495,486,495,493
488,494,487,495,493
487,495,487,495,495
487,495,488,495,494
486,496,489,495,492
486,495,487,495,493
487,494,487,495,492
487,495,487,495,493
488,495,487,495,493
489,495,488,495,492
489,495,488,495,492
489,494,487,495,493
489,494,487,495,493
488,495,488,495,493
487,494,487,495,493
487,494,487,496,493
486,495,487,495,493
486,494,487,495,493
486,494,487,495,493
487,495,487,495,493
488,494,487,495,491
488,495,487,495,493
489,494,487,495,494
490,494,487,495,493
489,494,487,495,493
489,494,487,495,493
488,495,487,495,493
487,494,487,495,493
486,495,487,495,493
486,494,487,495,493
486,495,487,495,493
486,494,487,495,493
487,494,487,495,493
488,494,487,495,493
489,495,487,496,495
490,494,487,495,491
489,495,487,495,491
489,495,487,495,494
488,495,487,495,493
487,495,487,495,493
487,494,486,495,493
486,495,487,495,493
486,494,487,495,493
486,495,487,495,493
486,494,487,495,493
487,494,487,495,493
488,495,488,495,493
489,495,487,495,493
489,495,487,495,493
489,495,486,495,493
489,495,487,495,493
488,495,487,495,493
487,495,486,495,493
486,495,487,495,493
486,495,487,495,493
486,495,486,495,493
486,495,487,495,493
487,494,488,495,493
488,494,488,495,493
489,494,487,495,493
489,495,487,495,493
489,495,486,495,493
489,496,485,495,494
489,497,486,496,494
488,496,487,495,493
487,495,488,495,493
486,494,488,495,493
486,495,489,495,493
486,494,487,495,493
486,493,487,495,493
487,494,486,495,493
488,494,486,495,493
489,494,486,495,493
489,494,487,495,493
489,495,487,495,493
489,494,487,495,492
488,495,487,495,494
487,494,487,495,495
487,494,487,495,491
485,494,487,495,492
485,494,487,495,493
486,495,488,495,493
486,495,488,495,493
488,495,487,495,493
488,494,487,495,493
489,494,487,496,493
489,495,487,495,493
489,495,487,495,493
488,494,486,495,493
488,495,487,495,492
487,495,487,495,493
486,495,487,495,492
486,495,487,495,493
486,495,488,495,493
486,495,487,495,493
487,495,487,495,493
488,494,487,495,493
489,494,487,495,493
489,495,487,495,493
489,494,487,495,493
489,494,487,495,493
488,495,487,495,492
487,494,487,495,493
487,494,487,495,493
486,494,487,495,493
486,494,487,495,493
486,494,487,495,493
487,494,487,495,493
488,495,487,495,493
489,495,487,495,493
489,495,486,495,493
490,495,486,495,493
490,495,486,495,494
489,495,486,495,493
488,495,487,495,493
487,495,487,495,493
487,495,487,495,493
486,494,486,495,493
486,495,486,495,493
487,495,484,495,492
487,496,486,495,493
489,495,488,495,494
490,495,488,495,493
490,495,488,495,492
490,495,489,495,493
489,495,488,495,493
489,495,488,495,493
488,495,487,495,493
487,494,487,495,493
486,493,487,496,493
486,494,488,496,495
487,494,487,495,491
487,495,487,495,490
487,495,487,495,493
489,494,487,495,493
489,494,487,495,493
490,494,487,495,493
489,494,487,495,493
489,494,487,495,493
488,494,487,495,493
487,494,487,495,494
487,494,487,495,492
486,495,487,495,492
486,494,487,495,493
486,494,487,495,493
487,494,487,495,493
488,494,487,495,493
489,495,487,495,493
489,494,487,495,493
489,495,487,495,493
489,494,487,495,493
488,495,487,495,493
487,494,487,495,493
487,494,487,495,493
486,494,487,495,493
486,494,487,495,493
486,494,487,495,493
486,494,487,495,493
487,494,487,495,493
488,494,487,495,493
489,494,487,495,493
489,494,487,495,493
489,494,487,495,493
489,494,487,495,493
488,494,487,495,493
487,494,487,495,493
487,494,487,495,493
486,494,487,495,493
486,494,487,495,493
486,494,487,495,493
487,494,487,495,493
488,495,487,495,493
489,494,487,495,493
489,494,487,495,492
489,495,488,495,492
489,495,487,495,493
488,495,487,495,493
488,495,486,495,493
487,495,485,495,493
486,496,484,495,493
486,496,484,495,493
486,495,486,495,493
487,495,486,495,492
487,495,487,495,493
488,495,487,495,492
489,496,487,495,493
490,497,487,495,494
490,496,488,495,494
490,496,489,496,495
489,495,488,495,492
488,495,488,495,493
487,495,489,495,493
486,495,488,495,493
486,496,488,495,493
486,497,488,496,492
487,494,487,495,492
488,491,487,495,492
488,492,487,496,493
489,493,487,495,493
489,493,487,495,493
489,494,487,495,493
489,494,487,495,493
488,494,487,495,493
487,494,487,495,493
486,494,487,495,493
486,494,487,495,493
486,495,488,495,493
486,494,487,495,493
487,494,487,495,493
488,494,487,495,495
489,494,487,495,492
489,494,487,495,492
489,495,487,495,493
489,494,487,495,493
488,494,487,495,493
487,494,487,495,493
487,494,487,495,493
486,494,487,495,493
486,495,487,495,493
486,494,487,495,493
487,495,487,495,493
488,494,487,495,493
489,494,487,495,493
489,494,486,495,492
489,494,487,495,493
489,494,487,495,493
489,494,487,495,493
488,494,487,495,493
487,494,487,495,493
487,494,487,495,493
486,495,487,495,493
486,495,487,495,493
487,494,487,495,493
487,494,487,495,493
489,494,487,495,493
489,494,487,495,493
490,494,487,495,493
490,494,487,495,493
490,494,487,495,493
489,494,487,495,492
488,494,487,495,494
487,494,487,495,493
487,494,487,495,492
486,494,486,495,495
487,496,486,495,492
487,496,487,495,490
488,496,486,495,494
489,495,485,495,495
490,495,485,495,493
490,494,486,495,493
490,495,486,495,492
490,495,487,494,492
489,495,488,495,493
488,495,488,495,493
487,495,487,495,493
486,494,488,495,493
487,494,489,496,493
487,494,488,496,493
488,494,488,495,493
489,494,487,495,493
490,496,487,495,493
490,496,487,495,494
490,495,488,495,493
490,494,488,495,493
489,493,487,496,493
488,494,487,495,493
487,494,487,495,492
487,494,487,495,493
486,493,487,495,492
486,493,487,495,493
487,494,487,495,493
488,494,487,495,493
488,494,487,495,493
489,494,487,495,493
489,494,487,495,493
489,494,487,495,493
489,494,487,495,493
488,494,487,495,493
487,494,487,495,493
486,494,487,495,493
486,494,487,495,493
486,494,487,495,493
486,494,487,495,493
487,495,487,495,492
488,494,487,495,493
488,494,487,495,493
489,494,487,495,494
489,494,487,496,495
489,494,486,495,491
488,494,487,496,493
487,494,487,495,493
487,496,487,495,493
486,495,487,495,492
485,495,487,495,492
485,495,487,495,490
485,495,487,495,495
487,495,487,495,495
488,495,487,495,492
489,495,487,495,493
489,495,487,495,493
489,495,487,495,493
489,495,487,495,493
488,495,487,495,493
487,494,487,495,493
486,494,487,495,493
485,494,487,495,493
485,494,487,495,493
486,495,487,495,493
487,495,487,495,493
488,495,487,495,493
488,494,487,495,493
489,495,487,495,493
489,495,487,495,493
489,494,487,495,493
489,494,487,495,493
488,494,487,495,493
487,495,487,495,493
486,495,487,495,493
486,495,487,495,493
486,494,486,495,493
487,495,487,495,493
488,495,487,496,494
489,495,486,495,494
489,495,486,495,493
490,494,485,495,493
490,495,485,495,493
489,495,486,495,493
489,494,487,495,493
488,493,487,495,493
487,494,487,495,493
487,494,488,495,493
486,494,487,495,493
486,494,487,495,493
487,494,487,496,493
488,494,487,495,493
489,494,488,495,493
490,494,488,495,493
490,494,488,495,493
490,494,488,495,493
489,494,488,495,493
488,494,487,496,493
488,494,487,495,493
487,495,488,496,493
486,495,488,495,493
486,494,487,495,493
487,494,487,495,493
488,494,487,495,493
489,494,487,495,493
490,494,487,495,493
490,495,487,495,493
490,494,487,495,493
490,494,487,495,492
489,494,487,495,492
488,494,487,495,492
487,494,487,495,494
487,494,487,495,494
487,494,487,495,492
487,494,487,495,492
487,494,487,495,492
488,494,487,495,493
489,494,487,495,493
490,494,487,495,493
490,494,487,495,493
490,494,487,495,493
489,495,487,495,492
488,494,487,495,493
488,494,487,495,493
487,494,487,495,492
486,495,487,495,493
486,495,487,495,492
486,495,487,495,493
487,495,487,495,493
488,494,486,495,492
489,495,486,495,493
490,495,486,495,495
490,495,486,495,493
490,495,486,495,493
489,495,486,495,493
488,494,486,495,493
487,494,486,495,493
487,494,486,495,493
486,495,486,495,493
486,495,487,495,493
487,494,488,495,493
488,494,486,495,493
489,495,486,496,493
489,494,486,496,493
490,494,489,495,493
490,494,490,496,493
489,494,487,496,493
488,494,487,495,493
487,494,486,495,493
487,495,487,495,493
486,494,487,495,493
486,494,487,495,493
486,494,487,495,493
487,494,487,495,493
488,495,487,496,493
489,494,487,495,493
489,494,487,495,493
489,494,487,495,493
489,494,487,495,493
488,494,487,495,493
488,494,487,495,493
487,494,487,495,493
486,494,487,495,493
486,494,487,495,493
486,494,487,495,493
486,495,487,495,492
487,494,487,495,493
488,494,487,495,493
489,495,487,495,493
489,495,486,495,493
489,494,486,495,493
489,495,487,495,493
488,495,487,495,493
487,494,486,495,493
487,494,487,495,493
486,494,486,495,493
486,495,487,495,493
486,495,487,495,493
487,495,487,495,493
488,494,487,495,493
489,494,486,495,493
489,494,487,495,493
490,495,487,495,493
489,495,487,495,494
489,494,487,495,493
488,494,487,495,491
487,494,487,495,491
486,494,487,495,493
486,493,486,495,493
486,493,487,496,493
486,494,488,496,493
487,494,487,495,492
488,495,486,495,493
489,495,485,495,493
490,495,485,495,493
490,495,485,495,494
490,494,486,495,493
489,495,487,495,492
488,494,489,495,491
487,494,489,495,493
487,494,488,495,493
486,494,487,495,493
486,494,486,495,493
487,494,486,495,493
488,495,487,495,493
489,495,487,495,493
490,494,488,495,493
490,495,488,495,493
490,495,487,495,493
489,495,488,495,493
488,495,486,495,493
488,495,486,495,493
487,495,486,495,493
486,494,487,495,493
486,494,487,495,493
487,494,487,495,493
487,495,487,495,493
489,494,487,495,492
489,494,487,495,493
490,494,487,495,493
490,495,486,495,493
490,495,486,495,493
489,494,487,495,493
488,494,487,495,493
487,494,487,495,492
486,494,487,495,492
486,494,487,495,493
486,494,486,495,493
487,494,487,495,493
488,495,487,495,493
489,495,487,495,492
489,494,486,495,492
489,494,486,495,493
489,494,486,495,493
489,494,487,495,493
488,494,487,495,493
487,494,486,495,493
486,494,486,495,493
486,495,486,495,493
486,495,486,495,493
486,495,486,495,493
487,495,487,495,493
488,495,488,496,493
489,494,488,495,493
489,494,487,495,492
489,494,487,495,491
489,495,487,496,494
489,494,487,495,494
488,494,486,495,493
487,494,487,495,493
486,495,487,495,491
485,495,487,495,493
486,495,487,495,493
486,494,486,495,493
487,495,487,495,492
488,494,487,495,492
489,495,487,495,493
489,494,487,495,493
489,494,487,495,493
489,495,486,495,493
488,494,486,495,493
487,494,485,495,492
486,494,485,495,493
486,495,485,495,493
486,495,486,495,493
486,495,486,495,493
487,495,486,495,493
488,494,488,495,493
489,494,488,495,493
489,495,488,496,493
489,494,488,495,493
489,495,487,495,493
489,496,487,495,493
488,494,487,495,493
487,495,487,495,493
486,494,487,495,493
486,494,487,495,493
486,495,486,495,493
487,495,487,495,493
487,495,487,495,493
488,495,487,495,493
489,493,487,495,492
489,493,487,495,493
489,494,487,495,493
489,494,487,495,493
488,494,487,495,493
487,494,486,495,493
487,495,486,495,493
486,494,486,495,493
486,494,486,496,493
486,494,486,495,493
487,494,486,495,493
488,494,487,495,493
489,494,487,495,493
489,495,488,495,493
489,495,488,495,493
489,495,487,495,493
489,494,487,495,493
488,494,487,495,493
487,494,487,495,493
486,494,486,495,492
486,494,486,495,493
486,494,487,495,493
486,494,487,495,491
487,494,487,495,494
488,494,487,495,493
489,494,487,495,493
489,494,486,495,493
489,494,487,495,492
489,494,487,495,493
489,494,485,495,494
488,494,485,495,493
487,494,486,495,493
486,495,486,495,493
486,494,487,495,493
486,494,488,495,493
487,495,488,495,494
489,494,487,495,493
489,495,487,495,493
490,495,487,495,492
490,495,487,495,493
490,495,487,495,493
490,494,487,495,492
488,494,487,495,492
487,494,487,495,492
487,494,487,495,493
486,494,487,495,493
486,494,487,495,493
487,494,487,495,493
487,494,487,495,493
488,494,487,495,493
489,494,487,495,493
490,495,487,495,493
490,494,487,495,493
490,495,487,495,493
489,495,486,495,492
488,494,486,495,494
488,494,486,495,493
487,494,486,495,492
486,495,487,495,492
486,495,487,496,493
487,494,486,495,493
488,494,485,495,493
489,494,485,495,493
490,495,485,495,493
490,494,485,495,493
490,495,486,495,493
490,496,487,495,493
489,496,488,495,493
488,495,488,495,493
487,495,488,495,493
486,494,488,495,493
486,494,487,495,493
487,494,487,495,492
487,494,487,495,493
488,494,486,495,493
489,494,486,495,493
489,495,486,495,493
490,495,486,495,493
489,494,486,495,493
489,494,487,495,493
488,494,487,495,493
487,494,487,495,493
486,494,487,495,493
486,495,486,495,493
486,495,486,495,493
486,495,486,495,493
487,495,485,495,493
488,495,485,495,493
489,495,486,495,491
489,495,486,495,493
489,494,487,496,494
489,494,489,496,493
488,494,488,495,493
487,494,487,495,493
486,495,487,495,492
486,494,487,495,493
486,494,486,495,493
486,494,487,495,492
487,494,487,495,493
488,494,487,496,494
488,494,487,495,493
489,495,487,495,493
489,495,487,495,493
489,494,487,495,493
489,494,487,495,492
488,494,487,495,493
487,494,486,495,493
486,494,487,495,493
486,494,486,495,493
486,494,486,495,493
486,495,486,495,493
487,495,486,495,493
488,495,487,495,493
489,494,486,495,493
489,494,486,495,493
490,494,487,495,493
489,494,486,495,493
489,495,485,495,495
488,495,485,495,492
487,495,485,495,492
486,494,486,495,493
486,495,486,495,493
486,495,487,495,493
487,495,486,495,493
488,494,487,495,493
489,495,486,495,492
489,495,487,495,492
490,494,486,495,492
489,494,487,495,492
489,494,489,495,493
488,494,488,495,493
487,494,487,495,493
487,494,487,495,493
486,494,487,495,493
486,494,486,495,493
486,494,486,495,493
487,495,486,495,493
488,494,486,495,493
489,494,486,496,493
489,494,485,495,493
490,494,485,495,493
489,494,486,495,494
489,494,486,495,492
488,494,486,495,492
487,494,488,495,492
486,494,488,495,494
486,495,487,495,493
486,495,487,495,491
486,495,487,495,492
488,494,487,496,494
489,494,487,495,493
489,494,486,495,493
490,495,487,495,493
489,495,487,495,492
489,494,487,495,493
488,495,487,495,493
487,495,486,495,493
487,494,486,495,493
486,495,487,495,493
486,494,487,495,493
486,494,486,495,493
487,495,486,495,493
488,495,486,495,493
489,494,486,495,493
490,494,486,495,493
490,495,486,495,493
490,495,487,495,493
489,496,487,495,493
488,496,487,495,492
487,494,487,495,493
486,493,487,495,492
486,494,487,495,493
486,494,487,495,493
487,494,487,495,493
488,494,486,495,493
489,494,486,495,493
489,494,487,495,493
490,494,486,495,493
490,494,487,495,493
490,494,486,495,493
489,494,486,495,493
488,494,486,495,493
487,494,487,495,493
486,494,487,495,492
486,494,487,495,493
487,494,486,495,493
487,495,487,495,493
489,494,486,495,492
489,494,486,495,493
490,494,487,495,494
490,494,487,495,493
490,495,487,495,493
489,495,486,495,493
488,495,486,495,493
487,495,486,495,493
487,495,485,495,493
486,495,486,495,493
487,495,487,495,493
487,494,487,495,493
488,494,486,495,493
489,494,487,495,492
489,494,488,495,493
490,494,487,495,493
490,494,486,495,493
489,494,486,495,493
489,494,486,495,493
488,494,487,495,493
487,494,487,495,495
487,494,486,495,492
486,494,487,496,492
486,495,486,495,493
487,495,486,495,493
488,494,486,495,493
489,494,486,495,493
489,495,487,495,493
489,495,486,495,493
489,494,487,495,493
489,495,486,495,493
488,495,484,495,493
487,494,483,495,493
487,495,484,495,494
486,495,485,495,492
486,495,486,495,491
486,495,488,495,492
487,494,489,495,494
488,494,488,495,493
489,494,486,495,493
489,495,487,495,492
489,495,487,495,493
489,495,487,495,492
488,494,487,495,493
487,494,486,495,493
487,494,486,495,493
486,494,486,495,493
486,494,486,495,493
486,495,487,495,493
486,495,486,495,493
487,495,486,495,493
488,494,487,495,493
489,494,486,495,493
489,495,487,495,493
489,494,487,495,492
489,494,486,495,492
488,494,487,495,492
487,494,487,495,493
486,494,487,495,493
486,494,486,495,493
486,495,487,495,493
486,494,486,495,493
487,494,486,495,493
488,494,486,495,493
489,494,486,495,493
489,494,487,495,493
489,494,486,495,493
489,494,486,495,493
489,494,486,495,493
488,494,486,495,493
487,495,487,495,493
486,494,486,495,493
486,495,486,495,493
486,495,486,495,492
486,495,486,495,493
488,495,487,495,493
488,495,486,495,493
489,495,486,495,493
489,495,486,495,493
489,494,487,495,493
489,494,487,495,493
488,494,487,495,493
487,494,486,495,493
487,494,486,495,493
486,494,487,495,493
486,494,486,495,493
486,494,487,495,493
487,495,486,495,493
488,494,486,495,493
489,494,486,495,493
490,494,486,495,493
490,494,486,495,493
490,494,486,495,494
489,494,487,496,492
488,494,487,495,493
487,494,487,495,493
487,494,487,495,493
486,495,486,495,493
486,495,487,495,492
487,495,487,495,491
487,494,486,495,494
489,494,486,495,493
489,494,487,495,493
490,494,487,495,493
490,494,486,495,493
489,494,486,495,493
489,495,486,495,493
488,494,486,495,493
487,494,487,495,493
486,495,487,495,493
486,494,487,495,493
486,494,487,495,493
487,494,487,495,493
488,495,486,495,493
489,495,486,495,493
489,495,485,495,493
490,495,484,495,494
490,494,484,495,495
489,495,485,495,491
488,495,486,495,492
487,495,488,495,493
486,495,488,495,493
486,495,488,495,493
486,495,487,495,493
486,494,487,495,493
487,494,486,495,494
488,494,486,495,492
489,494,486,495,492
489,494,486,495,493
489,494,486,495,493
489,494,486,495,493
488,494,486,495,493
487,494,486,495,493
486,494,486,495,493
486,495,486,495,493
485,495,486,495,492
486,495,486,495,493
486,495,486,495,493
487,495,486,495,493
488,495,486,495,491
488,494,486,495,494
489,494,486,495,493
489,494,486,495,493
488,494,485,495,492
487,494,487,495,493
487,494,487,495,493
486,494,488,495,493
485,495,487,495,493
485,495,486,495,492
486,495,487,495,493
487,495,486,495,493
488,494,486,495,493
488,494,486,495,493
489,494,486,495,493
489,495,486,495,493
489,494,486,495,493
488,494,487,495,493
487,494,487,495,493
486,494,486,495,493
486,495,486,495,493
485,494,486,495,493
486,494,487,495,493
486,494,486,495,493
487,494,486,495,493
488,494,486,495,493
489,495,487,495,493
489,494,486,495,493
489,494,486,495,493
489,494,486,495,492
488,495,487,495,490
486,495,486,495,494
486,495,486,495,493
485,494,486,495,493
485,494,486,495,493
486,494,486,495,493
487,495,486,495,493
488,494,486,495,493
488,494,486,495,493
489,495,486,495,493
489,496,486,495,493
489,494,486,495,493
488,494,486,495,493
488,494,486,495,493
487,495,487,495,493
486,495,487,495,493
486,495,486,495,493
486,494,486,495,493
486,494,486,495,493
488,494,486,495,493
488,495,485,495,493
489,494,485,496,492
489,494,486,495,492
489,494,486,495,493
489,494,486,495,493
488,493,487,495,495
488,494,487,495,492
486,496,487,495,492
486,495,486,495,493
486,494,486,495,493
486,494,486,495,493
487,494,486,495,493
488,494,486,495,494
489,494,486,495,491
489,494,486,495,493
489,494,487,495,493
489,494,486,495,493
489,494,486,495,493
488,495,486,495,493
487,495,486,495,493
486,495,486,495,493
486,495,485,495,493
486,495,485,495,493
487,495,486,495,493
487,495,486,495,492
488,494,485,495,492
489,494,486,495,493
489,494,486,495,493
489,494,486,495,493
489,494,486,495,493
488,494,486,495,493
487,494,486,495,493
487,495,486,495,493
486,495,487,495,493
486,494,488,496,493
486,495,486,495,493
487,495,486,495,493
488,494,486,495,493
488,495,486,495,491
489,495,487,495,494
489,494,487,495,493
489,493,486,495,493
488,494,486,495,493
488,494,485,495,493
487,494,485,495,493
486,494,485,495,492
486,494,485,495,493
486,495,485,495,493
486,495,485,495,493
487,494,487,495,493
488,494,486,495,493
489,494,486,495,493
490,494,487,495,493
490,494,488,496,493
489,494,486,495,494
489,495,486,495,492
488,495,486,495,491
486,494,486,495,493
486,494,486,495,493
486,494,486,495,493
486,494,486,495,493
487,495,487,495,493
488,494,487,495,493
489,494,486,495,493
490,495,486,495,493
490,494,486,495,493
490,495,486,495,493
489,494,486,495,492
488,494,486,495,493
488,494,486,495,493
487,494,486,495,493
487,494,486,495,493
487,494,486,495,493
487,494,486,495,493
488,494,487,495,492
489,494,486,495,493
490,494,486,495,493
491,494,486,495,493
490,495,486,495,492
490,495,486,495,493
489,494,486,495,493
488,494,486,495,493
488,494,486,495,493
487,495,487,495,492
487,494,486,495,493
487,494,486,495,493
488,494,486,495,492
489,495,486,495,493
490,494,486,495,493
490,495,486,495,493
490,495,486,495,493
490,495,486,495,493
490,495,486,495,493
489,495,486,495,493
488,494,486,495,493
487,495,486,495,493
486,494,486,495,493
487,495,487,495,493
487,495,486,495,492
488,494,487,495,491
488,493,487,495,492
489,494,486,495,493
490,494,485,495,493
490,493,485,495,493
490,494,486,495,493
489,494,486,495,493
488,494,487,495,493
487,494,487,496,493
487,494,486,496,493
487,494,486,495,493
487,494,486,495,493
487,494,486,495,493
488,494,487,495,492
489,494,487,495,493
490,494,486,495,493
490,494,486,495,493
490,495,486,495,493
489,494,486,496,493
488,494,486,495,490
487,495,486,495,492
487,495,486,495,494
487,494,486,495,492
486,494,486,495,493
487,494,486,495,493
488,494,485,495,493
489,495,486,495,492
489,495,486,495,493
490,495,486,495,493
490,495,486,495,493
490,495,487,495,493
489,494,487,495,493
488,494,487,495,493
487,494,487,495,492
487,494,486,495,493
486,494,486,495,493
487,494,486,495,493
487,495,486,495,493
488,494,486,495,493
489,494,487,495,493
490,495,486,495,493
490,494,486,495,493
490,494,486,495,493
489,494,486,495,493
489,495,486,495,494
488,495,486,495,493
488,494,486,495,492
487,495,486,495,491
486,495,487,495,492
487,494,486,495,494
488,494,486,495,493
489,494,486,495,493
490,494,486,495,493
490,494,486,495,493
490,494,486,495,493
490,494,486,495,493
489,494,486,495,493
489,494,486,495,493
488,494,486,495,493
487,495,485,495,493
487,494,486,495,493
487,493,486,495,493
487,494,486,495,493
488,494,486,495,493
489,495,486,495,493
490,495,486,495,493
490,494,486,495,493
490,494,486,495,493
489,494,486,495,493
489,494,486,495,493
488,494,486,495,493
487,494,486,495,493
487,495,486,495,492
486,494,486,495,493
487,493,486,495,494
488,494,486,495,494
488,494,486,495,491
489,494,486,495,492
489,495,486,495,492
489,494,486,496,493
489,495,486,495,493
489,494,486,495,493
488,494,486,495,493
487,494,486,495,493
487,495,486,495,493
486,494,486,495,493
486,495,486,495,493
487,494,486,495,493
488,494,486,496,493
489,494,486,496,493
489,494,486,495,493
490,494,486,495,493
490,494,486,495,493
490,494,486,495,493
489,495,486,495,493
488,496,486,495,492
487,495,486,495,492
486,495,486,495,493
486,494,486,495,493
487,494,486,495,493
487,495,486,495,493
488,494,486,495,492
489,494,485,495,491
489,494,486,496,492
489,494,485,496,495
490,494,486,495,493
490,495,486,495,493
488,494,486,495,493
488,494,486,495,493
487,495,486,495,493
486,495,485,495,493
486,495,485,495,493
487,494,485,495,493
488,495,485,495,492
489,495,485,495,493
489,494,487,495,493
490,494,488,495,493
490,495,486,495,493
490,494,486,495,493
489,494,486,495,493
488,494,486,495,493
487,494,486,495,493
486,494,486,495,493
487,494,486,495,493
487,494,486,495,493
487,494,486,495,493
488,495,486,495,493
489,495,486,495,493
490,494,486,495,493
490,494,486,495,493
490,494,486,495,493
489,494,486,495,493
488,494,486,495,493
487,494,486,495,493
486,495,486,495,493
486,494,486,495,493
486,494,486,495,493
486,494,486,495,493
487,495,486,495,493
488,495,486,495,493
489,494,486,495,493
489,493,486,495,493
489,494,486,495,493
489,493,486,496,495
489,493,486,495,492
487,495,486,495,492
486,494,486,495,493
486,494,486,495,493
486,494,486,495,493
486,494,486,496,493
487,494,486,495,493
487,494,486,495,493
488,495,486,495,493
489,495,486,495,493
489,496,486,495,493
489,495,486,495,493
488,495,486,495,493
488,494,486,495,493
487,494,486,495,493
486,494,486,495,493
486,494,486,495,493
486,494,486,495,493
486,494,486,495,493
487,494,486,495,493
488,494,486,495,493
489,494,486,495,493
489,494,486,495,493
490,494,486,495,494
490,495,486,495,493
489,494,486,495,493
488,494,486,495,493
488,494,486,495,493
487,495,486,495,492
486,495,486,495,493
487,495,486,495,495
488,494,486,495,492
488,495,485,495,493
489,495,486,495,493
490,495,485,495,493
490,495,486,495,492
490,495,486,495,493
490,494,487,495,492
489,494,486,495,493
488,494,486,495,493
488,495,486,495,493
487,494,486,495,493
487,495,486,495,493
488,494,486,495,493
489,494,486,496,493
490,494,486,495,493
491,494,486,495,492
491,494,486,495,493
491,494,486,495,493
491,494,486,495,493
491,494,486,495,493
490,494,486,495,493
490,495,486,496,493
489,494,486,495,493
489,494,486,495,493
490,494,486,495,493
491,494,486,495,493
492,494,486,495,493
492,494,486,495,493
492,494,486,495,493
492,494,486,495,494
492,494,485,495,493
492,495,486,495,493
491,495,486,495,493
490,495,486,495,493
489,494,486,495,493
488,494,486,495,493
488,494,486,495,493
488,494,486,495,493
488,494,486,495,493
489,494,486,495,493
490,494,486,495,493
490,494,486,495,493
490,495,486,495,493
490,494,485,495,493
490,495,485,495,493
488,495,486,495,493
488,495,486,495,493
487,494,486,495,493
486,494,486,495,493
487,494,486,495,493
487,494,486,495,493
488,494,486,495,493
489,494,486,495,493
490,495,486,495,493
490,495,486,495,493
490,494,486,495,493
490,494,486,495,493
489,494,486,495,493
488,495,485,495,493
487,494,486,495,493
487,494,486,495,493
486,494,486,495,493
487,494,486,495,493
487,494,486,495,493
488,494,486,495,493
489,494,486,495,493
489,494,485,495,493
489,494,485,495,493
489,494,486,495,493
489,494,485,495,493
488,494,485,495,493
488,495,486,495,493
487,494,486,495,493
486,495,486,495,493
486,495,485,495,492
487,495,485,495,495
488,494,486,495,494
489,495,486,495,492
489,495,486,495,493
490,495,486,495,493
489,494,486,495,492
489,495,485,495,493
489,494,485,495,494
488,494,486,495,493
487,494,487,495,493
487,494,489,495,493
487,494,487,495,493
487,494,486,495,493
487,494,486,495,493
488,495,486,495,493
489,494,486,495,493
490,494,486,495,493
490,494,486,495,492
490,494,486,495,493
489,494,486,496,493
489,494,486,495,493
488,494,486,495,493
487,494,486,495,493
487,494,486,495,493
487,494,486,495,495
488,494,485,495,491
488,495,486,495,492
489,494,486,495,493
489,495,486,495,493
490,495,486,495,493
490,495,487,495,493
490,495,486,495,493
489,495,486,495,493
488,494,486,495,493
488,494,486,495,493
487,494,486,495,493
486,494,486,495,493
487,495,486,495,493
487,495,486,495,493
488,495,486,495,493
489,495,486,495,493
489,494,486,495,493
490,495,486,495,493
490,494,486,495,493
489,494,486,495,493
489,494,486,495,492
488,494,486,495,493
487,494,486,495,493
487,494,486,495,493
487,494,486,495,493
487,494,486,495,493
487,495,486,495,493
488,494,486,495,493
489,494,486,495,493
490,495,486,495,492
490,494,486,495,491
489,495,486,495,494
490,495,486,495,493
489,495,486,495,493
488,494,486,495,493
487,494,486,495,493
487,494,486,496,493
487,494,486,495,492
487,495,486,495,493
488,494,486,495,492
489,495,486,495,493
489,495,486,495,493
490,494,486,495,493
490,494,486,495,493
489,494,486,495,494
489,494,486,495,491
488,495,486,495,493
487,495,486,495,493
487,495,486,495,492
486,495,486,495,493
486,494,486,495,493
486,495,486,495,493
487,495,486,495,493
488,495,486,495,493
489,494,486,495,493
489,495,486,496,493
489,495,485,495,493
489,494,484,495,493
488,494,484,495,493
487,494,483,495,493
486,495,481,495,493
486,496,482,495,493
485,495,483,495,493
486,495,486,495,493
486,494,488,495,492
487,494,489,496,493
488,494,489,496,493
488,494,487,495,493
488,494,486,495,493
488,494,486,495,493
487,494,487,495,493
487,494,487,495,493
486,495,487,495,493
485,495,486,495,494
485,494,486,495,493
485,494,487,495,493
485,494,486,495,493
486,495,486,495,493
487,495,486,495,493
488,494,486,495,493
488,495,486,495,493
488,495,486,495,492
488,494,486,495,493
487,494,486,495,493
487,494,486,495,493
486,495,486,495,493
485,494,486,495,493
485,494,486,495,493
485,494,486,495,493
486,494,486,495,493
487,494,486,495,493
488,494,486,495,493
488,494,486,495,493
488,494,486,495,493
488,495,486,495,492
488,495,486,495,492
487,495,486,495,496
487,495,486,495,492
486,494,486,495,493
485,495,486,495,493
485,494,486,495,493
486,494,486,495,493
487,496,486,495,493
488,495,486,495,492
488,494,486,495,493
489,495,486,495,493
488,495,486,495,493
488,495,486,495,493
488,494,486,495,493
487,494,486,495,493
486,494,486,495,493
485,494,486,495,493
485,494,486,495,493
486,496,486,495,494
486,497,486,495,494
487,496,485,495,493
488,496,484,495,493
488,495,484,495,492
488,492,483,495,492
488,494,483,496,491
487,495,486,496,493
487,495,486,495,493
487,494,485,495,493
486,494,485,495,493
485,494,487,496,493
486,495,487,495,494
486,495,486,495,494
487,495,486,495,493
488,494,486,495,493
488,494,487,495,493
489,494,486,495,494
489,493,486,495,494
489,494,486,495,495
489,495,487,496,495
488,495,487,495,495
488,496,486,495,495
487,496,486,495,494
486,495,486,495,493
486,495,486,495,493
487,496,486,495,491
487,494,486,495,492
488,494,486,495,492
488,494,486,495,493
489,495,486,495,493
489,494,486,495,493
488,495,486,495,493
488,495,486,495,492
487,495,486,495,492
486,494,486,495,491
485,494,486,495,492
485,495,486,495,492
485,495,486,495,492
486,495,486,495,493
487,494,486,495,493
488,494,486,495,493
488,494,486,495,494
488,494,486,495,492
488,494,486,495,492
488,494,486,495,491
487,496,486,495,492
486,495,486,495,493
486,494,486,496,493
485,494,486,495,492
485,495,486,495,493
486,495,486,495,494
487,494,486,495,492
487,494,486,495,493
488,494,486,495,492
488,495,487,495,492
488,494,487,495,491
487,494,486,495,492
487,495,486,495,491
485,495,486,496,493
485,494,485,495,493
485,494,485,495,492
484,494,486,495,493
485,494,486,495,493
485,495,486,495,493
486,495,487,495,493
487,495,487,496,493
487,496,486,495,493
487,496,486,495,492
487,495,485,495,492
487,495,486,495,492
486,495,486,495,492
485,494,486,495,492
484,494,486,495,493
484,495,486,495,493
484,494,486,495,493
484,494,486,495,493
485,495,486,495,493
485,496,486,495,493
486,497,486,496,493
486,495,486,495,492
485,493,486,495,492
484,494,486,495,492
483,493,486,495,492
482,494,486,495,492
481,495,486,495,493
481,495,486,495,493
480,494,486,495,493
481,494,486,495,493
481,493,486,495,493
482,494,486,495,492
483,493,486,495,493
483,494,486,495,493
484,495,486,495,493
484,495,486,495,493
484,495,486,495,493
483,494,486,495,493
482,494,486,495,493
482,494,486,495,492
481,494,486,495,492
481,494,486,495,493
482,494,486,495,493
483,494,486,495,493
484,494,486,495,493
485,495,485,495,493
486,495,485,495,492
486,495,486,495,493
486,494,486,495,493
485,494,486,495,493
485,494,487,495,493
484,494,486,495,493
484,495,486,495,493
484,495,486,495,493
485,494,487,495,493
485,494,486,495,493
487,494,486,495,493
488,494,486,495,493
489,495,486,495,493
489,495,486,495,493
490,495,486,495,493
490,494,486,495,493
489,494,486,495,493
489,495,487,495,493
490,495,486,495,493
491,494,486,495,493
490,494,486,495,492
490,494,486,495,493
490,494,486,496,493
491,494,486,495,493
491,494,486,495,493
491,495,486,495,493
491,494,486,495,493
490,494,487,495,493
489,493,486,495,493
488,493,486,495,493
487,494,486,495,493
486,494,486,495,493
486,494,486,495,493
486,494,486,495,493
486,495,486,495,492
487,494,486,495,492
488,494,486,495,493
488,494,486,495,493
489,494,486,495,493
489,495,486,495,493
488,494,486,495,493
487,494,486,495,492
486,495,486,495,495
486,494,486,495,493
485,494,486,495,493
485,494,486,496,492
485,493,486,495,492
486,494,486,495,493
487,494,486,495,493
487,495,486,495,493
488,495,486,495,493
488,495,486,495,493
488,494,486,495,493
487,494,486,495,492
486,493,486,495,492
485,494,486,495,493
485,494,486,496,493
485,494,486,495,493
484,495,486,495,493
485,495,486,495,493
486,494,486,495,493
487,495,486,495,493
487,494,486,495,492
487,493,486,495,492
487,494,486,495,492
487,494,486,495,492
486,494,487,495,492
485,494,486,495,492
485,495,486,495,493
484,494,486,495,493
484,494,486,495,493
484,494,486,495,493
485,495,486,495,492
486,495,486,495,493
487,494,486,495,493
487,494,486,495,493
487,494,486,495,493
487,493,486,495,493
487,494,486,495,493
486,494,486,495,493
485,494,486,495,493
484,493,486,495,493
484,493,486,495,491
484,495,486,495,492
484,495,486,495,493
485,494,486,495,493
486,494,486,495,493
487,495,485,495,493
487,495,485,495,493
487,495,485,495,493
487,495,484,495,492
486,494,484,495,493
485,495,486,495,493
484,495,488,496,493
484,495,488,495,493
484,494,488,495,493
484,494,487,495,492
484,494,487,495,493
485,494,486,495,493
486,494,486,495,493
486,494,486,495,493
486,494,486,495,493
486,495,486,495,493
486,495,486,495,493
485,494,486,495,492
484,494,486,495,493
483,494,486,495,493
483,494,486,495,493
483,495,486,495,492
483,495,486,495,492
484,495,486,495,491
484,494,486,495,494
485,494,485,495,493
486,495,485,495,493
486,495,485,495,493
486,495,485,495,493
485,494,485,495,493
484,494,486,495,492
483,494,486,495,493
483,493,486,495,493
482,494,486,495,493
483,494,487,495,493
483,494,487,495,493
484,495,487,495,493
485,495,487,495,493
485,495,487,495,493
486,495,486,495,492
485,494,485,495,493
485,494,486,495,494
485,494,486,495,495
484,495,485,495,492
483,496,486,495,492
482,495,485,495,493
482,494,485,495,493
483,494,485,495,493
483,494,486,495,493
484,495,486,495,493
485,494,487,495,494
485,495,489,496,494
486,494,487,495,492
485,493,487,495,491
484,493,486,495,492
483,494,486,495,493
482,494,486,495,492
482,495,486,495,492
481,496,487,495,492
482,494,486,495,493
482,494,486,495,493
483,494,486,495,493
484,494,486,495,493
484,494,486,495,493
485,494,486,495,493
484,494,486,495,493
484,494,486,495,493
483,494,486,495,493
482,494,486,495,493
481,494,486,495,492
480,494,486,495,493
480,494,486,495,493
480,494,486,495,493
481,494,486,495,493
481,494,486,495,493
482,494,486,495,493
482,494,486,495,493
482,493,486,495,492
482,494,486,495,493
482,495,486,495,493
482,495,486,495,493
481,494,486,495,493
481,495,486,495,493
481,494,486,495,494
482,493,486,496,494
482,494,486,495,493
483,495,486,495,493
484,494,486,495,492
484,494,486,495,492
485,494,486,495,493
485,494,486,495,493
485,495,486,495,492
485,494,486,495,492
484,494,486,495,493
484,494,486,495,493
483,494,486,495,493
483,494,486,495,493
484,494,486,495,493
484,495,486,495,493
485,494,486,495,493
486,495,486,495,493
487,495,486,495,493
487,494,486,495,493
487,494,486,495,493
487,494,486,495,493
486,492,486,495,492
486,492,486,495,493
485,492,486,495,493
485,494,486,495,493
485,494,486,495,493
485,494,486,495,493
486,493,486,495,493
487,495,486,495,493
487,496,486,495,493
487,495,486,495,493
487,494,486,495,493
487,494,486,495,493
486,494,486,495,493
486,494,486,495,493
485,494,486,495,493
484,494,486,495,493
484,492,486,496,493
484,494,486,495,493
485,494,486,495,493
486,494,486,495,493
486,494,486,495,491
486,494,486,495,493
487,494,486,495,493
487,495,486,495,493
487,495,486,495,493
486,494,486,495,492
485,494,487,495,493
484,494,486,495,493
484,495,486,495,493
484,495,486,495,493
485,495,486,495,493
485,494,486,495,493
486,494,486,495,493
487,494,487,495,493
487,494,486,495,493
487,494,486,495,492
487,494,486,495,493
487,494,486,495,493
486,494,486,495,493
486,495,486,495,493
485,494,486,495,493
485,493,486,495,493
485,494,486,495,493
486,494,486,495,493
486,495,485,495,493
487,495,485,495,493
488,494,485,495,493
488,494,485,495,493
488,494,485,495,493
487,494,486,495,493
487,494,487,495,493
486,494,487,495,493
486,494,486,495,493
485,494,486,495,493
485,494,487,495,493
485,494,487,495,493
486,494,487,495,493
487,495,487,495,493
487,494,486,495,493
488,493,486,495,493
488,493,486,495,494
488,493,486,495,493
487,494,486,495,492
486,494,486,495,492
486,494,486,495,493
485,494,486,495,493
485,494,486,495,493
485,494,486,495,493
485,494,486,495,493
486,493,486,495,492
487,494,487,495,493
487,494,486,495,493
488,494,486,495,494
488,494,486,495,493
487,494,486,495,492
487,494,486,495,493
486,495,486,495,493
485,495,486,495,493
485,494,486,495,493
485,492,486,495,493
485,493,486,495,493
485,494,485,495,493
486,494,486,495,493
487,494,486,495,493
487,494,486,495,493
487,494,487,495,493
487,494,486,495,493
486,494,487,495,493
486,494,487,495,493
485,494,486,495,493
484,494,486,495,493
484,494,486,495,493
484,494,486,495,493
484,494,486,495,493
485,494,486,495,493
486,494,486,495,493
487,494,486,495,493
487,494,486,495,493
487,494,486,495,492
487,494,486,495,492
486,494,486,496,492
485,494,486,495,493
485,494,486,495,493
484,494,486,495,492
484,494,486,495,492
485,493,486,495,493
485,494,486,495,493
486,494,486,495,493
487,494,486,495,493
487,494,486,495,493
488,494,486,495,493
488,494,486,495,493
487,494,486,495,493
487,494,486,495,493
486,494,486,495,493
486,493,486,495,493
485,496,486,495,493
485,495,486,495,492
485,494,486,495,493
486,494,486,495,493
487,494,486,495,493
488,495,486,495,493
488,495,486,495,493
488,494,486,495,493
488,494,486,495,493
487,494,486,495,493
487,495,486,495,493
486,494,486,495,493
486,495,486,495,493
486,494,486,495,493
486,494,486,495,493
486,494,485,495,493
487,494,485,495,493
488,494,486,495,493
488,494,486,495,492
489,495,486,495,493
489,495,486,495,493
489,494,486,495,493
488,493,486,495,493
487,493,486,495,493
487,493,486,495,493
486,493,486,495,492
486,495,486,495,492
486,495,486,495,493
487,494,486,495,493
488,494,486,495,493
489,494,486,495,493
489,495,486,495,493
489,494,486,495,493
489,494,486,495,493
489,494,486,495,493
488,494,486,495,493
488,495,486,495,493
487,494,486,495,493
486,494,486,495,493
486,494,486,495,493
487,494,486,495,493
488,494,486,495,493
488,493,486,495,493
489,493,486,495,494
489,493,486,495,493
489,493,486,495,492
489,494,486,495,493
488,495,486,495,493
487,496,486,495,493
487,496,486,495,493
486,494,486,495,493
486,494,486,495,493
487,495,486,495,493
487,495,486,495,493
488,494,486,495,493
489,494,486,495,493
489,494,486,495,493
489,495,486,495,493
489,494,486,495,493
488,494,486,495,493
488,494,486,495,493
487,494,486,495,493
486,494,486,495,493
486,495,486,495,493
486,494,486,495,493
487,495,485,495,493
487,494,484,496,493
488,493,485,495,493
489,494,484,495,493
489,494,484,495,493
489,494,485,495,493
489,494,485,495,493
488,494,485,495,493
487,494,485,495,494
487,494,487,495,493
486,494,488,495,493
486,494,488,495,492
486,495,487,495,491
487,495,487,495,494
488,494,487,495,493
488,494,487,495,493
489,494,486,495,493
489,494,486,495,493
489,494,486,495,493
488,494,486,495,493
488,494,486,495,493
487,494,486,495,493
487,494,486,495,493
486,494,486,495,493
486,494,486,495,493
487,494,486,495,493
488,494,486,495,493
488,494,486,495,493
489,496,486,495,493
489,495,486,495,493
489,494,486,495,493
489,493,486,495,493
489,494,486,495,493
488,495,486,495,493
487,494,486,495,493
487,495,486,495,493
487,495,486,495,493
487,495,486,495,492
487,494,486,495,493
488,494,486,495,493
489,494,486,495,493
490,494,486,495,493
490,494,486,495,493
490,494,486,495,493
490,494,486,495,493
489,494,486,495,493
488,494,486,495,493
488,494,486,495,493
487,494,486,495,493
487,494,486,495,493
488,494,486,495,493
488,495,486,495,493
489,494,486,495,493
490,493,486,495,493
490,493,486,495,493
490,495,485,495,493
490,494,486,495,491
489,494,486,495,494
489,494,486,495,493
488,495,486,495,493
487,495,486,495,493
487,495,485,495,493
487,494,486,495,493
488,495,486,495,493
489,495,486,495,493
489,494,486,495,493
489,495,486,495,493
490,495,486,495,494
490,495,486,495,493
489,495,486,495,493
488,494,486,495,493
488,494,486,495,493
487,494,486,495,493
487,493,487,495,493
487,494,488,495,493
487,494,486,495,493
487,494,486,495,493
488,495,486,495,493
488,495,486,495,493
489,495,486,495,493
489,495,486,495,493
488,494,486,495,493
488,493,486,495,493
487,494,486,495,493
486,494,485,495,493
485,495,485,495,493
485,495,485,495,493
485,495,485,495,493
486,495,485,495,493
486,494,486,495,493
487,494,488,495,493
488,495,487,495,493
488,495,486,495,493
488,494,486,495,493
488,494,486,495,493
487,494,486,495,493
487,494,486,495,493
486,494,486,495,493
486,494,486,495,493
485,494,486,495,493
486,494,486,495,493
486,495,486,495,493
487,495,486,495,493
488,495,486,495,493
488,494,486,495,493
489,494,486,495,493
489,494,486,495,494
488,494,486,495,493
487,495,486,495,493
487,495,486,495,493
486,494,486,495,493
486,494,486,495,493
486,494,486,495,493
486,494,486,495,493
487,494,486,495,493
488,494,486,495,493
488,495,486,495,493
489,495,486,495,493
489,495,486,495,493
488,495,486,495,492
488,493,486,495,493
487,494,486,495,493
486,494,486,495,493
486,494,486,495,493
486,494,486,495,493
486,494,486,495,493
487,494,486,495,493
488,494,486,495,492
488,494,486,495,493
489,494,486,495,493
489,495,486,495,493
489,495,486,495,493
489,495,486,495,493
488,494,486,495,493
488,493,486,495,493
487,494,486,495,492
487,494,486,495,492
487,494,486,495,494
487,493,486,495,493
488,494,486,495,493
489,494,486,495,493
489,495,486,495,493
490,495,486,495,493
490,495,486,495,493
490,494,486,495,493
489,494,486,495,493
489,494,486,495,493
488,494,486,495,493
488,494,485,495,493
488,495,485,495,493
488,495,485,495,493
489,494,485,495,493
490,494,486,495,493
491,494,485,495,493
491,494,486,495,493
492,494,486,495,492
492,494,486,495,493
492,495,486,495,493
492,494,486,495,493
491,495,486,495,492
491,495,487,495,492
491,494,486,495,493
491,494,486,495,493
492,495,487,495,493
493,494,487,495,493
494,494,486,495,493
495,494,485,495,493
496,494,486,495,493
496,494,486,495,493
496,494,486,495,494
495,495,486,495,493
494,495,485,495,493
494,494,485,495,493
493,494,486,495,493
493,494,486,495,493
493,494,486,495,493
493,494,486,495,493
494,495,486,495,493
494,495,486,495,493
495,495,486,495,493
495,494,486,495,493
494,494,486,495,493
493,494,486,495,493
492,494,486,495,492
491,494,486,495,493
490,495,486,495,493
489,494,486,495,493
489,494,486,495,493
489,494,486,495,493
490,494,486,495,493
490,494,486,495,493
491,494,486,495,493
491,494,486,495,493
491,494,486,495,493
490,494,486,495,493
490,494,486,495,493
489,494,485,495,493
488,494,486,495,493
487,494,486,495,493
487,494,486,495,493
486,494,486,495,493
487,494,486,495,493
487,494,486,495,493
488,494,486,495,493
489,494,485,495,493
489,494,486,495,493
489,494,485,495,493
489,495,486,495,493
489,496,485,495,493
488,494,485,495,494
487,494,486,495,494
486,495,486,495,494
486,496,486,495,493
486,496,486,495,493
486,495,486,495,493
486,494,485,495,493
487,493,486,495,492
487,494,486,495,492
487,494,486,495,492
486,493,486,495,493
486,494,486,495,492
485,495,486,495,493
485,495,485,495,493
484,494,486,495,493
483,494,486,495,493
483,494,486,495,493
484,494,486,495,493
485,494,486,495,493
486,494,486,495,493
487,494,486,495,493
487,494,486,495,493
487,494,485,495,493
487,494,486,495,492
486,494,485,495,493
486,494,485,495,493
486,494,486,496,493
485,494,485,495,493
485,495,485,495,493
485,494,485,495,493
486,494,485,495,493
486,494,485,495,493
487,494,486,495,493
488,494,485,495,493
488,494,486,495,493
488,494,486,495,493
488,494,486,495,493
487,494,486,495,493
487,494,486,495,493
487,494,486,495,493
487,494,486,495,493
486,494,486,495,493
486,494,486,495,493
487,494,486,495,493
487,494,485,495,493
488,494,486,495,493
488,495,486,495,493
488,495,486,495,493
488,495,486,495,493
488,495,485,495,493
487,495,485,495,493
487,494,485,495,493
486,494,485,495,492
485,493,486,495,492
485,492,486,495,493
486,493,486,495,493
487,494,486,495,493
487,494,486,495,493
488,494,486,495,493
488,494,486,495,493
488,494,486,495,493
488,495,485,495,493
488,495,485,495,493
487,494,485,495,493
486,494,486,495,493
486,493,486,495,493
486,493,486,495,492
485,494,486,495,492
486,494,485,495,493
487,494,486,495,493
488,494,486,495,493
488,494,486,495,493
488,493,485,495,493
488,494,485,495,493
488,494,485,495,493
487,496,485,495,493
487,495,485,495,493
486,495,485,495,493
486,495,485,495,493
486,495,485,495,493
486,494,485,495,493
486,494,485,495,493
487,494,486,495,493
487,494,485,495,493
488,494,486,495,493
488,494,485,495,493
488,494,486,495,493
487,494,486,495,493
487,494,486,495,493
486,494,485,495,493
485,494,485,495,493
485,494,486,495,493
485,494,485,495,493
486,494,485,495,493
487,494,485,495,493
487,494,485,495,493
488,496,486,495,493
488,495,485,495,493
488,495,485,495,493
488,494,485,495,493
487,494,485,495,493
486,494,485,495,493
486,494,485,495,493
486,494,484,495,493
486,494,484,495,493
486,494,485,495,493
486,494,485,495,493
487,494,486,495,493
488,494,486,495,493
488,494,487,495,493
488,494,486,495,493
488,494,485,495,493
488,494,485,495,493
487,494,485,495,493
486,494,485,495,493
486,494,485,495,493
485,494,485,495,493
486,494,485,495,493
486,494,486,495,493
487,494,486,495,493
488,494,485,495,493
488,495,485,495,493
488,495,485,495,493
488,494,485,495,493
488,494,486,495,493
487,494,485,495,493
487,494,486,495,493
486,494,486,495,493
486,494,485,495,493
485,495,485,495,493
486,495,485,495,493
486,495,485,495,493
487,494,486,495,493
487,494,486,495,492
487,494,486,495,492
488,493,485,495,493
488,494,485,495,493
487,494,485,495,493
487,495,485,495,493
486,495,485,495,493
486,496,485,495,492
485,495,486,495,492
486,494,486,495,493
486,494,486,495,493
487,494,486,495,493
487,494,485,495,493
488,493,485,495,493
488,493,485,495,493
488,494,485,495,493
488,494,485,495,493
488,494,485,495,493
487,494,485,495,493
486,495,485,495,493
486,495,485,495,493
486,494,485,495,493
486,494,485,495,493
487,494,485,495,492
487,495,485,495,493
488,495,485,495,493
488,495,485,495,493
489,494,485,495,493
489,494,485,495,493
488,494,485,495,492
488,494,485,495,493
487,494,484,495,493
487,494,485,495,493
486,494,485,495,493
486,494,486,495,493
486,494,486,495,493
487,494,486,495,493
488,494,486,495,493
488,494,485,495,492
489,494,485,495,493
489,494,485,495,493
489,494,485,495,493
488,494,485,495,493
488,494,485,495,493
487,494,485,495,493
486,494,485,495,493
486,494,485,495,493
486,494,485,495,493
487,495,485,495,493
487,494,485,495,493
488,494,485,495,493
488,494,485,495,493
489,494,485,495,493
489,494,485,495,493
489,494,485,495,493
488,494,485,495,493
488,494,485,495,493
487,496,485,495,493
487,496,485,495,493
487,494,485,495,493
487,494,485,495,493
487,493,485,495,493
488,493,485,495,493
489,494,485,495,493
489,494,485,495,493
489,496,485,495,493
489,496,485,495,493
488,494,485,495,493
488,494,485,495,493
487,494,485,495,493
487,494,485,495,493
487,494,485,495,493
487,494,485,495,493
487,495,485,495,493
488,495,485,495,493
488,495,485,495,493
489,495,485,495,493
489,495,485,495,493
489,495,485,495,493
489,496,485,495,493
488,495,485,495,493
488,493,485,495,493
487,493,485,495,493
487,493,485,495,493
487,493,485,495,493
487,494,485,495,493
488,494,485,495,493
488,494,485,495,493
489,494,485,495,493
489,494,485,495,493
489,494,485,495,493
489,494,485,495,493
489,494,485,495,493
488,494,485,495,493
488,495,485,495,493
487,494,485,495,493
487,494,485,495,493
487,494,485,495,493
487,494,485,495,493
488,494,485,495,493
489,494,485,495,493
489,494,486,495,493
489,495,485,495,492
489,495,485,495,493
489,495,485,495,493
489,494,485,495,493
488,494,485,495,493
488,494,485,495,493
487,496,485,495,493
487,495,485,495,493
487,494,485,495,493
488,493,485,495,493
488,494,485,495,493
489,494,485,495,493
490,494,485,495,493
490,494,485,495,493
490,494,485,495,493
489,494,485,495,493
489,494,485,495,493
489,494,485,495,493
488,494,485,495,493
488,494,485,495,493
488,494,484,495,493
488,494,484,495,493
489,494,484,496,493
489,494,485,495,493
490,494,485,495,493
490,494,486,495,493
490,494,487,495,493
491,494,486,495,493
490,493,485,495,493
489,494,485,495,493
489,495,485,495,493
488,497,486,495,494
489,497,486,495,494
489,496,485,495,493
489,495,486,495,493
490,494,485,495,493
490,493,485,495,492
491,493,485,495,492
491,493,485,495,493
491,493,485,495,493
491,493,485,495,493
490,493,485,495,493
490,495,485,495,493
489,494,485,495,493
489,494,485,495,493
488,494,485,495,493
489,494,485,495,493
489,494,485,495,493
490,494,485,495,493
491,494,485,495,493
491,494,485,495,493
491,494,485,495,493
491,494,485,495,493
491,494,485,495,493
490,494,485,495,493
490,495,485,495,493
489,494,485,495,493
489,494,485,495,493
489,494,485,495,493
490,495,485,495,493
490,494,485,495,493
491,494,485,495,493
491,494,485,495,493
491,493,485,495,493
492,494,485,495,493
491,497,485,495,493
491,497,485,495,493
491,498,485,495,493
490,498,485,495,493
489,496,485,495,493
489,495,486,495,493
489,494,485,495,493
490,494,485,495,493
491,494,485,495,494
492,495,485,496,493
492,495,485,495,492
492,491,485,495,493
492,493,485,495,493
491,493,485,495,493
491,493,485,495,493
490,493,485,495,493
490,493,485,495,493
489,493,485,495,493
489,494,485,495,493
490,494,485,495,493
490,494,485,495,493
491,494,485,495,493
491,494,485,495,493
492,494,485,495,493
492,494,485,495,493
492,494,485,495,493
491,494,485,495,493
491,494,485,495,493
490,495,485,495,493
489,494,485,495,493
489,494,485,495,493
489,494,485,495,493
490,494,485,495,493
490,494,485,495,493
491,494,485,495,493
491,494,485,495,493
491,494,485,495,493
491,494,485,495,493
491,495,485,495,493
490,495,485,495,493
489,494,485,495,492
488,494,485,495,493
488,495,486,495,493
488,495,486,495,493
488,495,485,495,493
489,494,485,495,493
489,494,485,495,493
490,495,485,495,493
490,495,485,495,493
490,495,485,495,493
490,494,485,495,493
489,494,485,495,493
489,494,485,495,493
488,494,485,495,493
487,494,485,495,493
487,494,485,495,493
487,493,485,495,493
487,493,485,495,492
488,493,485,495,493
489,493,485,495,493
489,493,485,495,493
489,494,485,495,493
489,495,485,495,493
489,494,485,495,493
488,494,485,495,492
487,494,485,495,492
486,494,485,495,493
486,494,485,495,493
486,494,485,495,493
486,494,485,495,492
486,494,485,495,493
487,494,485,495,493
488,494,485,495,493
488,494,485,495,493
488,494,485,495,493
488,494,485,495,493
487,496,485,495,493
487,495,485,495,493
486,494,485,495,493
485,494,485,495,493
485,494,486,495,493
485,494,485,495,493
486,494,485,495,493
486,494,485,495,493
487,494,485,495,493
487,496,485,495,493
487,495,485,495,493
487,494,485,495,493
487,493,485,495,493
487,494,485,495,493
486,495,485,495,493
486,496,485,495,493
485,496,485,495,493
485,495,485,495,493
485,494,485,495,493
485,494,486,495,493
486,494,485,495,492
487,494,485,495,492
487,495,485,495,493
487,495,485,495,493
487,494,485,495,493
487,493,485,495,493
486,494,485,495,493
485,493,485,495,493
485,493,485,495,493
485,495,485,495,493
485,494,485,495,493
485,494,485,495,492
486,494,485,495,493
486,494,485,496,493
487,494,485,495,493
487,494,485,495,493
487,494,485,495,493
487,495,485,495,493
486,495,485,495,493
486,495,485,495,493
485,494,485,495,493
485,494,485,496,493
485,494,485,495,493
485,494,485,495,493
485,494,485,495,493
486,494,485,495,493
487,494,485,495,493
487,494,485,495,493
487,494,485,495,493
487,494,485,495,493
487,495,485,495,493
486,494,485,495,493
486,494,485,495,493
485,494,485,495,493
485,494,485,495,493
485,494,485,495,493
485,494,485,495,493
486,494,485,495,493
486,495,485,495,493
487,494,485,495,493
487,494,485,495,493
487,494,485,495,493
487,494,485,495,493
487,495,485,495,493
486,494,485,495,493
485,495,485,495,493
485,494,485,495,493
485,494,484,495,493
485,495,484,495,493
486,495,485,495,493
486,494,485,495,493
487,494,485,495,493
487,494,485,495,493
488,494,485,495,493
488,494,485,495,492
487,494,485,495,493
487,494,485,495,492
486,494,486,495,492
486,495,486,495,493
485,495,486,495,493
485,494,485,495,493
485,494,485,495,493
486,495,486,495,492
487,495,485,495,493
487,494,485,495,493
488,495,485,495,492
487,494,485,495,493
488,494,485,495,493
487,494,485,495,493
487,495,485,495,493
486,495,485,495,493
486,494,485,495,493
486,495,485,495,493
486,495,485,495,493
486,494,485,495,493
487,494,485,495,493
488,494,485,495,493
488,494,486,495,493
488,494,486,495,493
488,494,486,495,493
488,494,485,495,493
487,494,485,495,493
487,494,484,495,493
486,494,485,495,493
486,494,485,495,493
486,495,486,495,493
486,494,486,495,493
487,494,486,495,493
488,494,485,495,493
488,494,485,495,493
488,494,485,495,493
489,494,485,495,493
489,494,485,495,493
488,494,485,495,493
488,494,485,495,493
487,494,485,495,493
486,494,485,495,493
486,495,485,495,493
486,494,485,495,493
487,495,485,495,493
488,496,485,495,493
488,495,485,495,493
489,495,485,495,493
489,495,485,495,493
489,494,485,495,492
489,493,485,495,493
488,494,484,495,493
488,494,484,495,493
487,494,485,495,493
487,495,485,495,493
486,494,485,495,493
487,494,486,495,493
487,494,486,495,493
488,494,486,495,493
488,495,486,495,493
489,494,485,495,493
489,494,485,495,493
489,494,485,495,493
489,494,485,495,493
488,494,485,495,493
487,494,486,495,493
487,494,485,495,493
486,494,485,495,493
487,494,485,495,493
487,494,485,495,493
488,494,485,495,493
488,494,485,495,493
489,494,485,495,493
489,494,485,495,493
489,495,485,495,493
489,495,485,495,493
489,495,485,495,493
488,495,485,495,493
487,494,485,495,493
487,494,485,495,493
487,494,485,495,493
487,495,485,495,493
488,494,485,495,493
488,494,485,495,493
489,494,485,495,493
489,494,485,495,493
490,494,486,495,493
490,494,485,495,493
489,494,485,495,493
489,495,485,495,493
488,495,485,495,493
487,494,485,495,493
487,494,485,495,493
487,494,485,495,493
487,494,485,495,493
488,494,485,495,493
489,494,485,495,493
489,494,485,495,493
489,494,485,495,493
489,494,485,495,493
489,494,485,495,493
489,494,485,495,493
488,494,485,495,493
487,494,485,495,493
487,494,485,495,493
487,494,485,495,493
487,494,485,495,493
487,494,485,495,493
488,494,485,495,493
488,495,485,495,493
489,494,485,495,493
489,494,485,495,493
489,494,485,495,493
489,494,485,495,493
488,494,485,495,493
488,495,485,495,493
487,494,485,495,493
486,495,485,495,493
486,495,485,495,493
487,494,485,495,493
487,494,485,495,494
488,495,485,495,493
489,495,484,495,493
489,494,485,495,492
489,495,485,495,492
489,493,485,495,493
488,494,485,495,493
488,494,485,495,493
487,494,486,495,493
487,494,485,495,493
486,494,485,495,493
486,494,485,495,493
487,494,485,495,493
488,494,485,495,493
488,494,485,495,493
489,494,485,495,493
489,495,485,495,493
489,495,485,495,493
488,494,485,495,493
488,494,485,495,493
487,494,485,495,493
486,494,485,495,493
486,495,485,495,493
486,495,485,495,493
486,495,485,495,493
487,494,485,495,493
487,493,485,495,493
488,494,485,495,493
488,495,485,495,493
488,494,485,495,493
488,494,485,495,493
488,494,485,495,493
487,494,485,495,493
487,494,485,495,493
486,495,485,495,493
486,494,485,495,493
486,494,485,495,493
486,494,485,495,493
487,493,485,495,493
488,494,486,495,493
488,494,486,495,493
489,494,486,495,493
489,494,486,495,493
488,494,485,495,493
488,494,485,495,493
487,495,485,495,493
487,494,485,495,492
486,494,485,495,493
486,494,485,495,493
486,494,485,495,493
487,494,485,495,492
488,495,485,495,493
488,495,485,495,493
488,494,485,495,493
489,494,485,495,493
489,494,485,495,493
488,494,485,495,493
488,495,485,495,493
487,495,485,495,493
487,495,485,495,493
486,494,485,495,493
486,494,485,495,492
486,494,485,495,492
487,495,485,495,493
488,494,485,495,493
488,494,484,495,493
488,495,484,495,493
489,495,484,495,493
489,494,485,495,493
488,494,486,495,493
487,494,486,495,493
487,494,486,495,493
486,494,486,495,493
486,494,486,495,493
486,494,485,495,493
487,495,484,495,493
487,495,485,495,493
488,494,485,495,493
488,494,485,495,493
489,495,485,495,493
489,496,485,495,493
488,495,485,495,493
488,494,485,495,493
487,494,485,495,493
487,494,485,495,493
486,493,485,495,492
486,494,485,495,494
487,495,485,495,494
487,495,485,495,494
488,495,485,495,493
489,495,486,495,493
489,495,485,495,493
489,494,485,495,493
489,494,485,495,493
488,494,485,495,493
488,494,484,495,493
487,495,485,495,493
487,495,485,495,493
487,494,485,495,492
487,493,485,495,493
487,493,485,495,493
488,494,485,495,493
488,494,485,495,493
489,494,485,495,492
489,494,485,495,493
489,494,485,495,493
489,494,485,495,493
488,494,485,495,493
488,494,485,495,493
487,495,485,495,493
487,495,485,495,492
487,495,485,495,493
487,495,485,495,493
487,495,485,495,493
488,494,485,495,492
488,493,485,495,493
489,494,485,495,493
489,495,485,495,493
489,495,486,495,493
489,494,485,495,493
488,494,485,495,493
487,495,485,495,493
487,495,485,495,493
487,494,485,495,492
486,494,485,495,493
487,494,484,495,495
488,493,484,495,492
488,494,485,495,492
489,495,485,495,493
489,494,485,495,493
489,494,486,495,493
489,494,486,495,492
488,494,486,495,493
488,495,485,495,492
487,495,485,495,493
487,494,485,495,492
487,494,485,495,493
487,494,485,495,492
487,494,485,495,492
488,494,486,495,492
488,495,487,495,493
489,495,486,495,492
489,494,486,495,492
489,494,485,495,493
489,494,485,495,493
488,494,485,495,493
487,494,485,495,493
487,495,486,495,492
486,495,485,495,492
486,494,485,495,491
486,494,485,495,491
487,493,485,495,494
488,494,485,495,493
489,494,485,495,492
489,494,485,495,492
489,494,485,495,493
489,494,485,495,493
488,494,485,495,493
488,494,485,495,493
487,495,485,495,493
487,495,485,495,493
486,495,485,495,493
486,494,485,495,493
487,494,485,495,493
488,494,485,495,493
488,494,485,495,492
489,494,485,495,494
490,494,485,495,495
489,494,486,495,490
488,494,486,495,491
488,494,485,495,493
487,494,485,495,493
487,494,485,495,493
486,495,485,495,494
487,495,485,495,493
487,495,485,495,492
487,494,485,495,491
488,494,485,495,492
488,494,485,495,493
489,494,485,495,493
489,495,485,495,493
489,495,485,495,493
488,494,485,495,492
487,494,486,495,492
487,494,485,495,492
486,494,486,495,493
486,494,485,495,493
486,494,485,495,493
487,495,485,495,493
488,495,485,495,493
488,495,484,495,493
489,495,484,495,493
489,494,486,495,492
489,495,486,495,493
489,494,486,495,492
488,494,486,495,493
487,494,485,495,493
487,494,484,495,493
486,495,484,495,493
486,495,484,495,493
487,495,485,495,493
487,494,486,495,493
488,494,486,495,493
489,494,486,495,493
489,494,487,495,493
489,495,487,495,493
489,494,486,495,493
488,494,485,495,493
488,494,485,495,493
487,493,485,495,493
487,494,486,495,493
487,494,485,495,493
487,493,485,495,493
487,493,485,495,493
488,494,485,495,493
489,494,485,495,493
489,494,485,495,493
489,495,485,495,492
489,494,485,495,491
488,494,485,496,493
488,493,485,495,493
488,494,485,495,493
487,494,485,495,493
487,494,485,495,494
487,494,485,495,494
487,495,485,495,492
488,495,485,495,493
488,494,486,495,492
489,494,486,495,493
489,494,485,495,492
489,493,485,495,493
489,494,485,495,492
489,494,485,495,493
488,494,485,495,493
488,494,485,495,493
487,494,486,495,493
487,494,485,495,494
487,493,485,495,493
487,494,485,495,492
488,494,485,495,493
489,495,485,495,493
489,495,485,495,493
489,495,485,495,493
489,494,485,495,492
489,494,485,495,493
488,494,485,495,493
488,494,485,495,493
487,494,485,495,493
487,494,485,495,492
486,494,485,495,493
487,495,485,495,493
487,495,486,495,493
488,494,486,495,493
489,494,485,495,493
489,494,485,495,493
489,494,485,495,493
489,494,485,495,493
489,494,485,495,493
488,494,485,495,493
488,494,485,495,493
487,495,485,495,493
487,495,485,495,493
487,494,485,495,493
487,494,485,495,493
488,494,483,495,493
489,494,484,495,493
489,494,484,495,493
489,495,484,495,493
489,495,485,495,493
489,494,486,496,492
489,494,488,495,491
488,495,487,496,494
488,494,486,496,494
487,494,485,495,493
487,494,485,495,492
487,494,486,495,493
488,494,485,495,493
488,494,486,495,493
489,494,485,495,493
489,494,485,495,493
489,494,485,495,493
489,494,485,495,493
489,495,486,495,494
489,495,486,495,493
488,495,486,495,493
487,494,485,495,493
487,494,485,495,493
487,494,485,495,493
487,493,485,495,494
488,494,485,495,492
488,494,485,495,492
489,494,485,495,493
489,494,485,495,493
489,494,486,495,493
489,494,485,495,494
489,494,485,495,493
488,494,485,495,492
487,494,485,495,493
487,494,485,495,493
487,494,485,495,493
487,494,485,495,493
487,494,485,495,493
488,494,485,495,493
489,494,485,495,492
489,494,485,495,492
489,494,485,495,493
489,494,485,495,493
489,494,485,495,493
488,495,485,495,493
488,495,485,495,493
487,494,485,495,493
486,494,485,495,493
487,494,485,495,493
487,494,486,495,493
487,494,485,495,493
488,494,485,495,493
489,494,485,495,493
489,494,485,495,493
489,494,486,495,493
489,494,485,495,493
488,494,485,495,492
488,493,485,495,492
487,494,485,495,493
486,494,485,495,493
486,494,485,495,493
487,494,485,495,493
487,495,485,495,491
487,494,485,495,493
488,494,485,495,494
489,495,485,495,493
489,494,485,495,493
489,494,485,495,493
489,494,485,495,493
489,494,485,495,493
488,494,486,495,493
487,494,486,495,493
487,494,486,495,493
487,494,486,495,493
487,494,485,495,493
488,494,485,495,494
489,494,485,495,492
489,494,485,495,492
489,494,485,495,492
489,493,485,495,493
489,494,485,495,493
489,494,485,495,493
489,494,485,495,493
488,494,485,495,493
487,494,485,495,493
487,494,485,495,494
487,494,485,495,493
488,494,485,496,492
488,494,486,495,493
489,494,487,495,493
489,495,486,495,493
490,494,485,495,493
490,495,485,495,493
490,494,485,495,493
489,495,485,495,493
488,494,485,495,493
488,494,485,495,493
487,494,485,495,493
487,495,484,496,495
488,494,485,496,492
488,494,485,495,493
489,494,485,495,493
489,494,485,495,493
490,494,486,496,493
490,494,486,495,493
490,494,485,495,493
489,494,485,495,493
489,494,485,495,492
488,493,485,495,492
487,494,485,495,493
487,494,485,495,493
487,494,485,495,493
488,494,484,495,493
488,494,483,495,493
489,494,483,495,493
490,494,484,495,493
490,494,484,495,493
490,494,485,495,493
490,494,486,495,493
489,494,487,495,493
489,494,487,495,493
488,494,487,495,493
488,494,487,495,493
488,494,487,495,493
488,494,486,495,492
488,495,485,496,491
489,494,485,496,494
490,494,485,496,494
490,494,485,495,493
490,494,485,495,493
490,494,485,495,492
490,494,485,495,493
489,494,485,495,493
489,494,484,495,493
488,494,484,495,494
488,494,484,495,493
488,494,483,495,493
488,495,484,495,492
489,494,485,495,493
490,494,485,496,493
490,494,487,496,493
491,494,488,495,493
491,495,486,495,493
491,494,486,495,493
490,494,485,495,493
489,494,485,495,493
489,494,484,495,493
488,494,484,495,493
488,494,484,496,493
488,493,485,496,493
489,494,486,495,493
490,494,487,495,493
491,494,486,495,493
491,494,485,495,493
491,494,485,496,493
491,494,485,495,494
491,495,485,495,493
491,494,485,495,493
490,494,485,495,493
490,495,485,495,493
490,494,485,495,493
490,494,485,495,493
490,493,485,495,493
490,494,485,495,492
491,494,485,495,492
491,494,485,495,493
492,494,484,495,493
492,494,484,495,493
492,494,484,495,493
491,494,485,495,493
491,494,485,495,493
491,494,486,495,494
490,494,485,495,493
490,494,486,495,493
490,494,485,495,493
490,493,485,495,493
491,494,485,495,493
492,494,485,495,493
492,495,485,495,493
492,494,485,495,493
492,494,485,495,494
492,493,485,496,494
492,494,485,495,491
491,494,485,495,493
490,494,485,495,493
490,494,485,495,495
490,494,485,495,492
490,495,485,495,492
491,495,485,495,492
491,495,484,495,493
492,494,484,496,493
492,494,484,496,493
493,494,484,496,493
492,494,484,495,493
492,494,485,495,493
491,494,486,495,493
491,494,486,496,493
490,494,485,495,493
490,494,485,495,493
490,494,486,495,493
490,494,485,495,493
491,494,485,495,493
491,494,485,495,493
492,495,485,495,493
492,494,485,495,493
492,495,485,495,493
491,495,485,495,493
491,494,485,495,493
490,494,485,495,493
489,495,485,495,493
489,495,485,495,493
489,495,485,495,493
489,494,485,495,494
490,494,486,496,493
490,494,486,496,493
491,494,485,495,493
491,494,485,495,493
491,494,486,495,493
491,495,485,495,493
490,494,485,495,493
490,494,485,495,493
489,494,485,495,493
488,495,485,495,494
488,495,485,495,494
488,495,485,495,493
488,494,485,495,493
489,493,484,495,493
490,494,484,495,493
490,494,485,495,493
490,494,485,495,493
490,494,485,495,493
490,494,485,495,493
490,494,484,495,493
489,494,484,495,493
489,494,484,495,493
488,494,485,496,493
488,494,486,495,493
488,494,486,495,493
489,494,486,495,493
490,494,485,495,494
490,495,485,495,493
491,494,485,495,493
491,494,486,495,493
491,494,486,496,493
491,494,485,496,493
490,494,485,496,493
490,494,485,496,493
489,494,484,495,492
489,494,484,495,493
489,494,482,495,494
490,494,480,495,494
491,494,480,495,493
491,494,482,495,493
492,494,485,495,493
492,495,487,496,493
492,495,488,496,493
492,494,489,495,493
492,494,488,495,494
492,494,486,495,493
491,494,486,495,491
490,495,486,495,494
490,494,485,495,493
490,494,485,495,493
491,494,485,495,493
491,494,485,495,493
492,494,486,495,493
493,494,485,496,494
493,494,485,496,493
493,495,485,495,494
493,496,485,495,493
492,495,485,495,494
492,494,485,496,496
492,494,485,495,491
491,494,485,495,492
491,493,485,495,493
491,494,485,495,493
492,494,486,495,493
493,494,485,495,493
493,494,485,495,493
494,495,485,495,493
494,494,485,495,493
494,494,484,495,493
493,494,483,495,493
493,494,483,495,492
492,493,483,495,492
492,493,484,495,494
492,494,485,495,493
492,494,486,495,493
493,494,487,495,493
493,494,487,496,493
493,494,486,495,493
493,494,485,495,493
493,494,485,495,493
493,495,485,495,493
492,494,485,495,493
492,494,485,495,493
491,494,485,495,493
490,494,485,495,493
490,494,485,495,493
490,494,485,495,493
490,494,483,495,493
490,494,483,495,493
491,494,483,495,493
491,494,484,495,493
492,494,484,495,493
491,494,485,495,493
491,494,486,495,493
490,494,486,495,494
489,494,486,495,494
488,494,486,495,493
487,494,485,495,493
486,495,486,495,493
486,494,486,494,493
486,494,486,494,494
487,494,486,494,494
487,494,486,494,493
487,495,485,495,493
487,495,485,495,493
487,495,485,496,493
487,495,485,496,493
487,495,485,496,493
486,494,485,496,494
485,494,485,496,493
485,494,485,496,493
485,493,485,496,493
485,494,485,495,493
486,494,485,496,493
486,494,485,495,493
487,494,485,495,493
488,494,485,496,493
488,494,485,495,493
488,494,485,495,492
487,494,485,496,492
487,494,485,496,494
487,494,485,495,493
486,494,485,495,494
486,494,484,495,493
486,494,484,495,493
487,494,483,495,493
488,494,483,495,494
488,494,484,495,495
489,494,484,495,493
489,494,485,495,493
489,494,487,495,493
489,494,487,495,493
489,494,487,496,493
488,494,484,496,494
488,494,484,496,492
487,494,484,496,492
487,494,484,496,492
487,494,485,496,493
487,494,486,495,494
488,494,486,495,493
489,495,486,495,493
490,494,485,495,493
490,494,485,495,493
490,494,485,495,493
490,494,485,496,493
489,494,484,495,493
489,493,484,495,493
488,494,484,496,493
488,494,484,495,493
488,494,484,495,493
488,494,484,495,493
489,494,484,495,493
489,494,485,495,493
490,494,485,495,493
490,494,486,495,493
490,494,486,495,493
490,494,486,495,493
490,494,485,496,493
489,494,485,495,493
488,494,485,495,493
488,495,485,495,493
487,495,485,495,493
487,495,485,495,493
488,494,485,495,493
488,494,485,495,493
489,494,485,495,493
490,494,485,495,493
490,494,485,495,493
490,494,485,495,493
490,494,485,495,493
489,494,485,495,493
488,494,485,495,493
488,494,485,495,493
487,494,485,495,493
487,494,485,495,493
487,494,485,495,493
488,494,485,495,493
488,494,484,495,492
489,495,484,495,491
489,495,485,495,495
489,495,485,496,493
489,495,485,495,493
489,494,485,495,493
488,493,485,495,493
487,493,485,495,494
487,494,485,495,493
486,494,485,495,493
486,494,485,495,493
487,494,485,495,493
488,494,485,495,493
488,494,485,495,493
489,494,485,495,493
489,495,485,495,493
489,494,485,495,493
489,494,484,495,494
488,494,484,495,493
488,494,484,495,493
487,493,484,495,493
486,494,485,495,493
486,494,485,495,493
486,494,486,496,493
487,494,485,495,493
487,494,485,495,494
488,494,485,495,494
488,494,484,495,492
488,494,485,495,493
488,494,485,495,493
488,494,485,495,493
487,494,485,495,493
486,494,485,495,493
485,493,485,495,493
485,494,486,495,493
485,494,486,496,493
485,494,485,496,492
486,494,485,496,493
486,494,484,496,493
487,494,484,495,493
487,495,484,495,493
487,494,484,495,493
487,494,484,495,494
486,494,485,495,492
485,494,485,495,493
485,494,485,495,493
484,494,485,495,493
484,494,485,495,493
484,494,485,495,493
485,495,485,495,493
485,494,485,495,493
486,494,485,495,493
486,495,485,495,493
486,495,485,495,493
487,494,485,495,493
486,494,485,495,493
485,494,485,495,493
485,494,485,496,493
484,494,485,496,492
483,495,485,496,492
484,495,485,496,495
485,494,485,496,493
485,494,485,495,492
486,494,485,495,494
486,494,485,495,493
487,494,485,495,493
486,494,485,495,493
486,494,485,495,493
486,495,485,495,493
485,494,485,495,493
485,495,485,496,493
484,495,484,495,493
484,494,483,496,493
484,494,484,495,493
485,494,485,495,493
486,494,485,495,493
486,494,486,495,493
487,494,486,495,493
487,494,486,495,493
487,494,485,495,493
487,494,485,495,493
486,494,485,495,493
486,494,485,495,493
485,494,485,495,493
485,494,485,495,493
485,494,485,495,494
485,494,485,496,495
486,494,484,495,492
487,494,485,495,493
487,494,485,495,493
488,494,485,495,493
487,494,485,495,493
488,494,485,495,493
487,495,485,495,493
486,494,485,495,494
486,494,485,496,493
485,494,485,495,492
485,494,485,495,493
485,494,484,495,493
486,494,485,495,493
486,494,485,495,493
487,494,485,495,493
487,494,485,495,493
488,494,485,495,494
488,494,485,496,493
487,494,485,495,493
487,494,485,495,492
486,494,485,495,493
485,494,485,495,494
485,494,485,495,493
485,494,485,495,493
485,494,484,495,493
486,494,484,495,494
487,494,485,495,493
487,495,485,495,493
487,495,485,495,492
487,494,485,495,493
487,494,485,496,494
487,494,485,495,493
486,494,485,495,493
486,494,485,495,492
485,494,485,495,493
485,494,485,495,493
485,494,485,495,493
485,494,485,495,493
486,494,485,495,493
487,494,485,495,493
487,494,485,495,493
488,494,485,495,493
488,493,485,496,494
488,494,485,495,493
487,494,485,495,493
487,494,484,495,493
486,494,485,496,493
486,494,485,495,493
485,495,485,495,493
486,495,485,495,492
486,494,485,495,493
487,494,485,495,493
487,494,485,495,493
488,494,485,495,493
488,494,485,495,493
488,494,485,495,493
488,494,485,495,494
487,495,485,495,493
487,494,485,495,493
486,494,485,496,493
486,494,485,495,493
485,494,485,495,493
486,494,485,495,493
487,494,485,495,494
487,493,485,495,493
488,494,484,495,493
488,494,484,495,493
488,494,484,495,493
488,494,484,495,493
488,494,485,495,493
487,494,485,495,493
486,494,485,495,493
486,494,485,495,493
485,494,485,495,493
486,494,484,495,493
486,494,484,496,493
487,494,484,496,493
488,494,484,495,493
488,494,485,495,493
488,494,485,495,493
488,493,485,495,494
488,494,485,495,493
487,494,485,495,493
487,495,484,495,493
486,495,484,495,493
486,494,484,495,495
486,494,483,495,495
487,494,484,495,491
487,495,484,495,493
487,494,485,495,493
488,494,485,495,493
488,494,485,495,493
488,493,485,495,493
488,494,485,495,493
488,494,485,495,493
487,494,485,495,493
486,494,485,495,493
486,494,485,495,493
486,494,485,495,493
486,494,485,495,492
486,494,485,496,493
487,493,484,495,494
488,494,485,495,494
488,494,485,495,493
489,494,484,495,494
489,494,484,495,493
489,494,485,495,493
488,494,484,496,494
488,493,485,495,493
487,494,485,495,493
487,495,485,495,493
487,494,485,495,493
487,495,485,495,493
488,494,485,495,494
488,494,485,495,494
489,494,484,495,494
489,494,485,495,493
489,494,485,495,493
489,494,485,495,493
489,494,485,495,493
488,494,484,495,494
488,494,485,495,493
487,494,485,495,492
486,494,485,495,492
486,494,485,495,493
487,494,485,495,493
488,494,484,495,493
488,494,485,495,493
489,494,485,495,493
489,493,485,495,493
489,494,484,496,493
489,494,485,495,493
488,494,485,495,493
488,494,484,495,493
487,494,485,495,493
486,494,485,495,493
486,494,485,495,493
487,494,485,495,493
487,494,485,495,494
488,494,485,496,493
489,494,484,495,493
489,494,484,495,493
489,495,484,495,495
489,494,484,495,492
488,494,484,495,493
488,494,484,495,493
487,495,485,495,493
486,494,484,495,493
486,494,485,495,493
486,494,485,495,493
487,494,484,495,494
487,494,484,495,493
488,494,485,495,493
489,494,484,495,493
489,494,484,495,494
489,494,484,495,493
489,494,485,495,491
488,494,485,496,495
488,494,485,495,493
487,494,485,495,493
486,494,485,495,494
487,495,485,495,494
487,495,485,495,494
488,495,485,495,493
488,494,485,495,493
489,494,485,495,493
489,494,484,495,493
489,494,484,495,493
489,494,485,495,493
489,494,485,495,493
488,493,484,495,494
487,494,484,495,493
487,494,484,495,493
486,494,484,495,493
487,495,484,495,493
487,494,484,495,493
488,494,485,495,493
488,494,485,496,493
489,493,485,495,494
489,494,484,495,493
489,494,485,495,494
490,493,485,496,493
489,494,485,495,493
488,494,485,496,493
487,494,484,495,494
487,494,485,495,492
486,493,484,495,493
487,494,485,495,493
487,494,485,495,493
488,494,485,495,493
488,494,485,495,493
489,494,485,495,493
489,494,484,495,493
489,494,485,495,493
489,494,485,495,493
488,494,484,495,493
487,494,484,495,493
487,494,485,495,493
486,494,484,495,493
486,494,484,495,493
487,494,484,495,494
488,494,484,495,493
488,494,484,495,493
489,494,484,495,494
489,494,485,496,493
489,494,484,495,493
489,493,485,495,493
488,494,485,495,493
488,494,484,495,493
487,494,485,495,493
487,494,484,496,494
487,494,484,495,493
487,494,484,495,493
487,494,484,495,493
488,494,484,495,493
488,494,485,495,493
489,494,484,495,494
489,494,485,495,493
489,494,485,495,493
489,494,484,495,493
488,494,484,495,493
488,494,484,496,494
487,494,484,495,493
487,495,485,495,493
487,494,484,495,493
487,494,484,495,493
487,494,484,495,491
488,495,484,495,494
489,494,485,495,494
489,494,485,495,493
489,494,485,495,493
489,493,484,495,493
489,494,484,495,493
488,494,485,495,493
487,494,485,495,494
487,494,484,495,493
487,495,484,495,494
487,495,484,496,494
488,495,484,496,494
488,494,484,495,493
489,494,484,496,493
489,494,484,495,493
489,494,485,495,493
489,493,485,495,493
489,493,484,495,493
488,494,484,495,493
488,494,484,495,493
487,494,484,495,493
487,494,485,495,493
486,494,484,495,494
487,494,484,495,493
488,494,484,495,493
488,494,484,495,493
489,494,484,495,493
489,494,485,495,493
489,495,485,495,492
489,494,484,495,494
489,494,484,495,493
488,494,484,495,493
488,494,484,495,493
487,494,484,495,493
486,493,484,495,493
487,494,484,495,493
487,494,484,495,495
488,494,484,495,491
488,494,485,495,493
489,494,484,495,493
489,494,484,495,493
489,494,485,495,493
489,494,485,496,493
488,494,484,495,493
488,494,484,495,493
487,494,485,495,493
486,494,484,495,493
486,494,484,495,493
486,494,484,495,493
487,494,485,495,493
488,494,484,496,493
489,494,484,495,494
489,494,484,495,493
489,494,484,495,493
489,494,484,495,493
489,494,485,495,493
488,494,484,495,493
487,494,485,495,493
487,495,484,495,493
486,494,484,495,493
486,494,484,495,493
487,494,484,495,493
488,494,484,495,493
488,494,484,495,493
489,494,484,495,493
489,494,484,495,493
489,494,484,495,493
489,494,484,495,493
489,494,484,495,493
488,494,484,495,493
487,494,484,495,492
486,494,485,495,494
487,494,484,496,494
487,494,484,495,493
487,494,484,495,493
488,494,484,495,494
489,494,484,496,495
490,494,484,496,493
489,494,485,495,493
489,494,485,495,493
489,494,485,495,493
488,494,485,495,493
488,494,485,495,493
487,494,484,495,493
486,494,484,495,493
487,495,484,495,494
487,494,484,495,493
487,495,484,496,493
488,494,484,495,493
489,494,484,495,493
489,494,484,495,493
489,494,484,495,493
489,494,484,495,493
488,493,485,495,493
488,494,484,495,493
487,493,485,495,493
486,494,484,495,493
486,494,484,495,493
486,494,483,496,493
486,494,483,495,494
487,494,483,495,493
488,495,484,495,493
488,495,484,495,491
488,495,484,495,494
489,494,484,495,493
488,494,485,495,493
488,494,484,495,493
487,494,484,496,493
486,494,484,495,494
486,494,484,496,493
486,494,484,495,492
486,495,484,495,493
487,495,484,495,493
487,495,485,496,493
488,494,484,495,493
488,494,484,495,493
488,494,484,495,494
489,495,484,495,492
488,494,484,495,492
487,493,484,495,493
486,494,485,495,493
486,494,485,495,493
485,494,484,496,493
486,494,484,495,493
486,494,484,495,493
487,494,484,495,493
488,494,484,495,494
488,495,484,495,493
488,495,484,495,493
488,494,484,495,492
488,494,484,495,491
487,494,484,495,494
487,494,484,495,493
486,494,484,495,493
486,494,484,495,493
486,493,484,495,493
486,494,484,495,493
487,494,484,496,493
488,494,484,496,493
488,494,484,495,494
489,494,484,495,493
489,494,485,495,493
489,494,484,495,493
489,494,484,495,493
488,494,484,496,493
487,494,484,495,493
486,495,484,495,493
486,494,485,495,493
486,494,484,495,493
487,494,484,495,493
487,495,484,496,493
488,494,484,496,493
489,494,484,495,493
489,494,484,496,493
489,494,483,495,493
489,494,484,495,493
488,494,484,495,493
488,494,484,495,494
487,494,483,495,493
486,494,481,495,493
486,494,481,495,493
487,494,482,495,493
487,494,484,495,493
488,494,486,495,493
489,494,487,495,493
489,494,485,496,493
489,494,483,495,493
489,494,484,495,493
489,494,484,495,493
488,494,484,495,493
487,494,485,495,493
487,494,485,495,493
486,494,485,495,494
487,494,485,496,494
487,494,484,496,493
488,494,484,496,493
488,494,485,495,493
489,494,484,495,492
489,494,484,495,493
489,494,484,496,494
489,494,484,496,493
489,494,484,495,493
488,494,484,495,493
487,494,484,495,493
486,495,484,495,493
486,495,484,496,493
486,494,484,496,493
487,494,484,495,493
488,494,484,495,493
488,494,484,496,493
489,494,484,495,493
489,494,484,495,493
489,494,484,495,493
489,494,484,495,494
488,494,484,495,493
488,494,484,495,493
487,494,484,495,493
487,494,484,495,493
486,494,484,495,493
487,494,484,496,492
487,494,485,496,493
488,494,484,495,493
489,494,484,495,493
489,494,484,495,493
489,494,484,496,493
489,494,484,496,493
488,494,484,496,492
487,494,484,495,493
487,495,484,496,495
487,494,484,496,495
487,494,484,496,492
486,494,484,495,492
487,495,484,495,493
487,494,484,495,493
488,494,484,495,493
488,494,484,495,493
489,494,484,495,493
489,494,484,495,493
488,494,484,495,493
488,494,484,495,493
487,494,484,495,493
486,494,484,496,493
486,494,484,495,493
486,494,483,495,493
486,494,484,495,493
487,494,484,495,493
488,494,484,496,493
488,494,484,496,493
489,494,484,495,493
489,494,484,496,493
489,494,484,496,493
488,494,484,496,493
488,494,484,495,493
487,494,484,496,493
487,494,484,496,493
486,494,484,495,493
486,494,484,496,493
487,494,483,495,493
488,494,483,496,493
488,494,483,496,493
489,494,483,496,494
489,494,484,496,493
489,494,484,495,493
489,494,484,495,493
488,494,485,496,493
488,494,484,496,493
487,494,484,496,493
487,494,484,496,493
487,494,484,495,493
487,494,484,495,493
487,495,485,495,493
488,495,484,495,493
489,494,484,496,493
489,494,484,495,493
489,494,484,496,493
489,494,484,496,493
489,494,484,496,494
488,494,484,496,491
487,495,484,496,493
487,495,484,495,493
486,494,484,495,493
487,494,484,496,493
487,494,484,495,493
488,495,484,496,493
488,494,484,496,492
489,494,484,496,494
489,494,484,496,493
489,494,484,495,493
489,494,484,495,493
488,494,484,495,493
488,495,484,496,493
487,494,484,496,493
487,494,484,495,493
486,494,484,495,493
486,494,484,496,493
487,494,484,496,493
488,494,484,496,493
488,495,484,495,493
489,494,484,496,493
489,494,484,495,493
489,494,484,495,493
489,495,483,496,494
488,496,482,495,494
487,495,482,495,493
487,495,482,496,493
486,494,483,496,493
486,494,484,496,493
487,494,485,496,493
487,494,484,496,493
488,494,484,496,493
488,494,484,495,493
489,494,484,495,493
489,494,484,496,493
489,494,485,496,493
488,493,485,496,493
487,493,485,496,492
486,493,485,495,492
486,494,484,496,494
486,494,484,495,493
486,494,484,495,493
487,494,483,495,493
487,494,483,496,493
488,494,483,496,494
489,494,484,495,493
489,494,485,496,492
488,494,484,496,493
488,494,486,496,493
488,494,486,495,493
487,494,484,495,493
486,494,484,495,493
486,494,484,495,493
486,494,484,496,493
486,494,484,496,493
487,494,484,495,493
487,494,484,495,493
488,494,483,496,493
489,494,484,496,493
489,494,483,496,493
489,494,483,496,493
488,494,484,496,493
488,494,484,495,493
487,494,485,496,493
486,494,485,496,493
486,494,484,496,493
486,494,484,495,494
487,494,484,496,493
487,494,484,495,493
488,494,484,495,493
488,494,484,496,493
489,494,484,496,493
489,494,484,496,493
488,494,484,495,494
488,494,484,496,493
488,495,484,495,493
487,494,484,495,493
486,494,484,496,493
486,494,484,496,493
486,494,483,496,493
487,494,482,496,492
488,495,482,495,493
488,495,484,496,493
489,494,484,496,494
489,494,484,495,493
489,494,485,495,493
488,494,486,496,493
488,494,485,495,493
487,494,484,495,493
486,494,484,495,493
486,494,484,495,493
486,494,484,495,493
486,494,485,495,493
487,494,484,495,493
488,494,484,495,493
488,494,484,495,493
489,495,484,496,493
489,494,484,496,493
489,494,484,496,493
488,494,484,496,493
487,494,484,496,493
487,494,484,496,493
486,494,484,495,493
486,494,484,496,493
486,494,484,495,493
487,494,484,495,493
487,494,484,495,493
488,494,484,496,493
488,493,484,496,493
489,493,484,496,493
488,494,484,496,493
488,494,484,496,494
488,494,484,496,493
487,494,484,495,493
486,494,484,495,493
486,494,484,496,493
486,494,484,496,493
486,494,484,496,493
487,494,484,496,493
488,494,484,495,493
488,494,484,496,493
489,494,484,496,492
489,494,484,495,494
489,494,484,495,493
488,495,484,496,493
488,494,484,496,493
487,494,484,496,493
486,494,484,496,493
486,494,484,495,493
486,494,484,495,493
487,494,484,496,494
488,494,484,496,495
489,494,484,496,492
489,494,485,496,493
489,494,484,496,493
489,494,484,496,493
489,495,484,495,492
488,494,484,496,493
487,494,484,496,493
486,494,484,495,491
486,495,485,496,494
486,494,484,496,494
487,494,484,496,493
487,494,484,495,493
488,494,484,496,493
488,494,484,496,493
489,494,484,496,493
489,494,484,496,493
489,494,484,495,493
488,494,484,495,493
488,494,484,495,493
487,494,484,495,493
487,494,483,496,494
486,495,482,495,493
486,494,482,495,494
487,495,484,496,494
488,495,483,495,493
488,494,482,495,493
489,494,483,495,493
489,494,484,495,493
489,494,484,496,493
489,494,484,496,493
488,494,486,496,493
487,494,486,496,493
487,494,485,495,493
486,494,484,496,493
486,494,484,495,493
486,494,484,495,493
487,494,484,496,493
488,494,484,496,493
488,494,484,496,493
489,494,484,496,493
489,494,484,495,493
489,494,484,495,493
488,494,484,496,493
488,494,484,496,493
487,494,484,496,493
486,494,484,496,493
486,494,484,495,493
486,494,484,496,493
487,494,484,496,493
488,494,484,496,493
488,494,484,495,493
489,494,484,496,493
489,494,484,496,494
489,494,484,496,493
489,494,484,496,493
488,494,484,496,493
488,494,484,496,493
487,494,484,496,493
486,494,484,496,493
486,494,484,496,493
487,494,483,496,494
487,494,484,496,494
488,496,484,495,493
489,495,484,495,492
489,495,484,495,492
489,495,484,495,493
489,495,484,495,493
488,494,484,495,493
488,493,484,496,493
487,494,484,496,493
486,494,484,496,493
486,494,484,495,493
486,494,484,496,493
487,494,484,495,493
487,494,484,496,493
488,494,484,496,493
489,494,484,496,491
488,494,484,496,496
489,494,484,496,492
488,494,484,496,492
488,494,484,495,493
487,495,484,495,493
487,494,484,496,493
486,494,484,495,493
486,494,484,496,493
486,494,484,495,493
487,494,484,496,494
488,494,484,495,493
488,494,484,495,493
489,494,484,496,493
489,494,484,496,493
489,494,484,495,493
489,494,484,495,493
488,494,484,496,494
487,494,484,495,492
487,494,484,496,493
486,494,484,495,493
486,494,484,495,493
487,494,484,495,493
487,494,484,496,493
488,495,484,495,493
489,494,484,495,493
489,494,484,495,493
489,494,484,495,493
489,495,484,496,493
488,494,484,495,493
488,494,484,496,493
487,494,484,495,493
487,494,483,495,493
486,494,484,496,493
486,494,484,496,493
487,494,484,496,494
488,494,484,495,493
489,494,484,495,493
489,494,484,495,493
489,494,484,496,493
489,494,484,495,493
489,495,484,495,493
488,494,484,496,494
488,495,484,496,494
487,496,484,496,494
487,497,483,496,494
487,496,483,495,492
487,494,483,496,492
487,491,483,496,493
488,492,484,495,493
489,493,484,495,493
489,494,485,496,493
489,494,484,496,493
489,494,484,495,493
489,494,484,495,493
488,494,483,495,493
487,494,483,495,493
487,494,484,495,493
486,494,484,495,493
487,494,484,495,493
487,494,484,495,493
488,494,484,495,493
488,494,484,495,491
488,494,484,495,495
489,494,484,495,494
489,494,484,495,493
489,494,484,496,493
488,494,484,495,493
488,494,484,495,493
487,493,484,496,493
486,494,484,495,494
487,494,484,495,494
487,494,484,495,492
487,495,484,495,492
488,495,484,495,493
489,494,484,495,493
489,494,484,495,493
489,494,484,495,493
489,495,484,495,493
489,494,484,495,493
488,494,484,495,494
488,494,484,495,492
486,494,484,495,493
487,494,484,496,495
487,494,484,495,493
487,494,484,496,493
488,494,484,495,493
489,495,484,495,493
489,494,484,495,493
489,494,484,495,493
489,494,484,495,493
489,494,484,495,493
488,494,484,495,493
488,494,484,495,494
488,494,484,496,494
487,494,484,495,492
487,494,484,495,493
487,494,484,495,493
487,494,483,495,493
488,494,482,495,493
489,494,483,495,493
489,494,483,495,493
489,495,484,495,493
489,495,483,495,493
489,495,483,496,494
489,495,483,495,494
488,495,483,495,493
487,493,483,496,493
487,493,484,496,493
487,494,486,496,493
487,494,483,496,493
488,494,482,496,493
488,494,483,495,493
489,494,484,496,493
489,494,484,495,493
489,493,485,495,493
489,494,486,495,493
489,494,485,495,493
488,494,484,495,493
487,494,484,495,493
487,494,484,495,493
486,494,484,495,493
487,494,484,496,493
487,494,484,495,493
488,494,484,495,493
488,494,484,495,493
489,494,484,495,493
489,494,484,495,493
489,494,484,496,493
489,494,484,495,492
488,494,484,495,491
487,494,484,496,494
487,494,484,495,493
486,494,484,495,494
486,494,484,495,493
487,494,484,496,493
488,494,484,496,495
489,494,484,495,492
489,495,484,495,492
489,495,484,495,493
489,495,484,495,493
489,494,484,496,493
488,494,484,495,493
488,494,484,495,493
487,494,484,496,493
487,494,484,496,493
486,494,484,495,493
487,494,484,495,493
487,494,484,496,493
488,494,484,495,493
489,494,483,495,493
489,494,483,496,493
489,494,484,495,493
489,494,483,495,493
489,494,483,495,493
488,494,484,495,493
488,494,483,495,493
487,494,480,495,493
487,494,481,495,493
487,495,483,495,492
487,494,483,495,493
488,494,484,495,495
489,494,486,495,492
489,494,487,496,493
489,494,484,495,493
490,494,484,496,494
490,494,484,495,493
489,494,485,496,493
488,494,484,495,493
487,494,484,495,493
487,494,484,495,493
487,494,484,495,493
487,494,484,495,493
487,494,484,496,493
488,494,484,495,493
488,494,484,496,493
489,494,484,495,493
489,494,484,495,493
489,494,484,495,493
489,494,484,495,493
488,494,484,496,493
488,494,484,496,494
487,494,484,496,493
487,494,484,496,493
487,495,484,495,493
487,495,484,495,493
488,494,483,496,494
488,494,483,496,494
489,496,484,496,494
490,496,484,496,494
490,496,484,495,492
489,494,484,495,490
489,493,484,495,493
488,493,484,495,493
488,493,484,496,493
487,493,484,495,493
487,493,484,495,493
487,494,484,496,493
487,494,484,496,493
488,494,484,495,493
489,494,484,495,493
489,494,484,496,492
489,494,484,496,494
489,494,484,496,492
489,494,484,495,493
489,494,484,495,493
488,494,484,495,493
487,494,484,495,493
487,494,484,496,493
486,494,484,495,493
487,494,484,496,493
487,494,484,495,493
488,494,484,496,493
489,494,484,495,493
489,494,484,496,493
489,494,483,495,493
489,494,483,495,493
489,495,483,495,493
488,494,484,495,493
488,495,483,495,493
487,495,483,495,493
487,495,484,495,493
487,494,484,495,493
487,494,484,495,493
488,494,484,495,493
489,494,484,495,493
489,494,484,495,493
489,494,484,495,493
489,494,484,495,493
489,494,484,496,493
489,494,484,495,493
488,494,484,495,493
487,494,484,496,493
487,494,484,495,493
486,494,484,495,493
487,494,484,495,493
487,494,484,495,493
488,494,484,495,494
489,494,484,495,493
489,494,484,496,493
489,494,484,495,492
489,494,484,496,494
489,494,484,496,494
489,494,484,496,493
488,494,484,496,492
487,494,484,495,493
486,494,484,495,493
486,494,484,495,492
487,494,484,495,491
487,494,484,495,494
488,494,484,495,493
489,494,484,496,493
489,494,484,495,493
489,494,483,495,493
489,494,483,495,493
488,494,484,495,493
488,495,483,495,493
487,495,483,495,493
486,494,482,496,493
486,494,482,495,493
486,495,482,495,493
487,494,483,495,493
488,494,484,495,493
488,494,484,495,493
489,494,484,495,493
489,494,483,495,493
489,494,483,496,494
489,494,483,495,493
488,494,484,495,493
488,494,485,495,493
487,494,486,496,493
487,494,486,496,493
486,494,485,495,493
487,494,484,495,493
487,494,484,495,493
488,494,484,495,493
488,494,484,495,493
489,494,484,496,493
489,494,484,495,493
489,494,484,495,493
488,494,484,495,493
488,494,484,495,493
487,494,484,495,493
487,494,484,495,493
486,494,484,495,493
487,494,484,495,493
487,494,484,495,493
488,494,484,495,493
488,494,484,495,493
489,494,484,495,493
489,494,484,495,493
489,494,484,495,493
489,494,484,495,493
488,494,484,495,493
488,494,484,495,493
487,494,484,495,493
486,494,483,496,495
487,494,484,495,493
487,494,484,495,493
487,494,484,495,493
488,494,484,495,493
489,494,484,495,493
489,494,484,495,493
489,494,484,495,493
489,494,484,495,493
489,494,484,495,493
488,494,484,495,493
488,495,484,495,493
487,494,484,495,493
486,495,484,495,493
487,494,484,495,493
487,495,484,495,493
488,495,484,495,490
488,495,484,495,495
489,495,484,495,494
489,494,484,496,493
489,494,484,495,493
489,494,483,495,493
489,493,483,496,495
488,494,484,495,492
487,494,484,495,493
487,495,483,496,493
487,494,483,495,493
487,494,483,495,493
487,494,483,495,493
488,494,483,495,493
489,495,483,495,493
489,494,484,495,493
489,494,485,495,493
489,494,484,495,493
489,494,484,496,493
488,494,484,495,493
488,494,484,495,493
487,494,484,495,493
486,494,484,495,493
486,494,484,495,493
487,494,484,495,493
488,494,484,495,493
488,494,484,495,493
489,494,484,495,493
489,494,484,495,493
489,494,483,495,494
489,495,483,495,493
489,494,483,496,493
488,494,483,496,493
487,494,483,495,493
487,494,484,495,493
487,494,484,495,493
487,494,486,495,493
487,494,484,495,493
488,494,484,495,493
489,494,484,495,493
489,494,484,495,493
489,494,484,495,493
489,494,484,495,493
489,494,484,495,493
488,494,484,495,493
488,494,484,495,493
487,494,484,495,494
487,494,484,495,493
487,495,484,495,493
487,495,484,495,493
488,495,483,495,493
489,494,483,495,493
489,494,483,495,493
490,493,483,496,493
490,493,484,496,493
490,494,484,496,493
489,493,484,495,493
488,494,484,495,493
488,495,484,495,493
487,494,484,495,493
487,494,484,495,493
487,494,484,495,493
487,495,484,495,493
488,494,484,496,492
489,494,484,495,492
489,494,484,495,492
489,494,484,495,494
489,494,484,496,494
489,494,484,495,493
489,494,484,495,493
488,494,484,495,493
487,494,484,495,492
486,494,484,496,494
487,494,484,495,493
487,494,484,495,493
488,494,484,495,493
489,494,484,495,493
489,495,484,495,494
490,495,484,495,495
490,494,484,495,493
490,494,484,495,493
489,494,484,495,493
489,494,484,495,493
488,494,484,495,494
487,493,483,495,495
487,494,483,495,492
487,495,484,496,493
487,494,484,495,493
488,494,483,495,493
489,494,484,496,493
489,494,484,495,494
490,494,484,495,493
489,494,484,495,493
489,494,484,495,493
489,494,484,495,493
488,494,484,495,493
487,494,484,495,493
487,494,482,495,493
487,494,481,495,493
487,494,482,495,493
488,494,482,495,493
488,494,482,495,493
489,494,484,495,493
489,494,485,495,493
490,494,486,495,493
489,494,485,495,493
489,494,484,496,493
488,494,484,495,493
488,494,484,495,493
487,494,485,496,493
487,494,484,495,493
487,494,484,495,493
487,494,484,495,493
488,494,484,496,493
489,494,484,495,493
489,494,484,495,493
489,494,484,496,494
489,494,484,495,493
489,494,484,495,493
489,494,484,495,493
488,494,484,495,493
487,495,484,495,493
487,494,484,496,494
487,494,484,495,493
487,494,484,495,493
487,494,484,495,493
488,494,484,495,493
489,494,484,495,493
489,494,484,495,493
489,494,484,495,492
489,494,484,495,490
488,494,484,496,495
488,494,484,495,493
488,494,484,495,494
487,494,484,495,493
487,494,484,495,493
487,494,484,496,494
487,494,484,496,493
488,494,484,495,493
488,494,484,495,492
489,495,484,495,493
489,494,484,495,493
489,494,484,495,493
489,494,483,495,493
489,494,484,495,493
488,494,484,495,493
487,494,483,495,493
487,494,484,495,493
487,494,484,496,493
487,494,484,495,493
487,494,484,496,493
488,494,484,495,493
489,494,484,495,493
489,494,484,495,493
489,494,484,495,494
489,494,484,495,494
489,494,484,496,495
489,494,483,495,493
488,495,484,496,493
487,495,484,495,492
487,495,484,495,493
487,494,484,495,493
487,495,484,495,493
488,494,484,495,493
488,495,483,495,493
489,494,484,495,493
489,494,484,496,493
489,493,484,495,493
489,494,484,495,493
489,494,484,496,493
488,494,484,495,493
487,494,484,495,493
487,494,484,496,494
487,494,484,495,495
487,494,484,495,492
487,494,483,495,493
488,494,484,496,493
488,494,483,496,493
489,494,484,496,493
489,494,484,496,493
489,494,484,495,493
489,494,484,495,493
488,494,484,495,493
488,494,484,495,493
487,494,484,495,493
486,494,484,495,492
486,494,484,495,493
486,494,484,495,493
487,494,484,495,493
488,494,484,495,493
488,494,484,495,493
489,494,484,495,493
489,494,484,495,493
489,494,484,495,493
489,494,484,495,493
488,494,483,496,493
487,494,483,496,493
487,494,484,495,492
486,494,484,495,492
486,495,484,495,494
487,494,484,495,493
488,494,484,495,493
488,494,484,495,493
489,494,484,495,493
489,494,484,495,493
489,494,484,495,493
489,494,484,496,494
488,494,484,496,493
488,494,484,496,494
487,494,484,495,493
487,494,484,495,493
487,494,484,495,493
487,494,484,495,493
487,494,484,495,493
488,494,484,495,493
489,494,484,495,492
489,494,484,495,492
489,494,484,495,494
489,494,484,495,493
489,494,484,495,493
488,494,484,495,493
488,494,484,496,493
487,494,484,495,494
487,494,484,496,494
487,494,484,495,492
487,494,484,496,493
488,494,484,495,494
488,494,484,495,493
489,495,484,495,493
489,494,483,495,493
489,495,483,495,493
489,495,483,495,492
489,494,483,496,494
488,494,484,495,493
487,494,484,495,493
487,494,483,495,493
486,494,483,495,493
487,494,483,495,492
487,494,483,496,493
488,494,484,496,494
489,494,484,496,493
489,494,484,495,493
489,494,484,495,493
489,494,484,495,493
489,494,484,495,493
488,494,484,495,493
488,494,484,495,493
487,495,484,495,493
487,495,484,495,493
487,495,484,495,493
487,494,484,495,493
488,493,483,496,495
489,494,484,495,492
489,494,484,495,493
489,494,484,495,493
489,494,484,495,493
489,494,484,496,493
489,494,483,495,493
488,494,483,495,492
487,494,483,496,492
487,494,484,496,494
487,494,484,495,493
487,494,484,495,493
487,495,484,495,493
488,494,484,495,493
488,494,484,495,493
489,494,484,495,492
489,495,484,495,493
489,494,484,495,493
489,494,484,496,493
488,494,484,496,493
488,494,484,495,493
487,494,484,495,493
487,494,484,495,493
486,494,484,495,493
487,494,484,495,493
488,495,484,495,493
488,494,484,495,493
489,495,484,496,493
489,494,484,495,493
489,494,484,496,493
489,494,484,495,493
489,494,484,496,493
488,494,484,495,493
488,494,483,495,493
487,494,483,495,493
487,494,484,495,493
487,494,484,495,493
487,494,484,495,494
488,494,484,495,493
489,494,484,496,494
489,494,484,495,493
489,495,484,495,493
489,494,483,495,493
489,494,484,495,494
488,494,484,495,493
488,493,483,496,494
488,494,483,496,494
487,494,484,495,493
487,495,484,495,492
487,495,484,495,493
488,494,484,495,493
488,494,484,495,493
489,494,484,495,493
489,494,483,495,493
489,494,483,495,493
489,495,483,495,493
489,494,483,495,493
488,494,484,495,493
488,494,484,495,493
487,494,484,496,493
486,494,484,495,492
486,494,484,495,494
487,494,484,495,493
488,494,484,495,493
488,494,484,495,493
489,494,484,495,493
489,494,484,495,493
489,494,484,495,493
489,494,483,495,493
489,494,484,495,493
488,495,484,495,492
487,494,483,496,493
487,494,482,496,493
486,494,483,495,492
486,495,483,495,493
487,494,483,496,494
488,494,484,495,493
489,494,484,495,493
489,494,485,496,493
489,494,484,495,494
490,494,484,496,493
489,494,484,495,493
488,494,484,495,493
488,495,484,495,493
487,494,484,495,493
487,494,484,496,493
487,494,484,495,494
487,495,484,495,493
488,494,484,496,492
488,494,484,495,493
489,494,484,495,493
489,494,483,495,493
489,494,484,495,493
489,494,484,495,493
489,494,484,495,493
488,494,484,495,493
487,494,484,495,493
487,494,484,495,493
487,494,484,495,493
487,494,483,495,493
487,494,484,495,493
488,494,484,495,493
489,494,484,495,493
489,494,484,495,493
489,494,484,495,493
489,494,484,495,493
489,494,484,495,493
488,494,484,495,493
488,494,484,495,493
487,494,484,496,493
487,494,484,496,493
487,494,483,495,493
487,494,483,495,493
488,494,484,496,493
488,494,484,495,493
489,494,483,495,493
489,494,483,496,493
489,494,483,495,493
489,494,484,495,493
489,494,484,495,493
488,494,484,495,493
487,494,484,496,493
487,494,483,495,493
487,494,483,495,493
487,494,483,495,493
487,494,484,495,493
488,494,483,495,493
489,494,483,495,493
489,494,484,495,493
489,494,484,496,493
489,494,484,495,493
489,494,484,495,493
488,495,484,495,493
488,495,484,495,493
487,495,484,495,492
487,494,484,495,493
486,493,484,495,493
487,494,484,495,493
488,494,484,495,493
489,494,484,495,494
489,494,484,495,492
489,494,484,495,493
489,494,484,495,493
489,494,484,496,493
489,494,484,496,493
488,494,484,496,494
488,494,484,496,493
487,494,484,495,492
486,495,484,495,491
486,494,484,495,493
487,494,484,495,493
488,494,484,495,492
488,494,484,495,492
489,494,484,496,494
489,494,484,495,493
489,494,484,495,493
489,494,484,495,493
488,494,484,495,493
488,494,484,495,493
487,494,483,495,493
486,494,483,495,493
486,494,484,495,493
487,495,484,495,493
487,494,484,495,493
488,494,484,496,493
489,494,484,495,493
489,494,483,496,493
489,494,483,496,493
489,495,484,495,493
489,494,484,495,493
488,494,484,495,493
487,495,484,495,492
486,495,484,495,493
486,494,483,495,493
486,494,484,495,493
487,494,484,495,493
487,494,484,495,493
488,494,484,495,493
489,494,483,496,493
489,494,484,495,493
489,495,484,496,493
489,494,483,496,493
488,494,483,495,493
488,495,483,495,493
487,495,483,495,493
486,494,483,495,493
486,494,483,496,493
487,494,484,495,493
487,494,484,495,493
488,494,484,495,493
489,494,484,495,493
489,495,484,495,493
489,494,484,495,493
489,494,484,496,493
489,494,484,496,493
488,494,484,495,493
487,494,484,495,494
487,495,483,496,491
486,494,483,496,493
486,494,483,496,493
487,494,483,495,493
487,494,483,495,492
488,494,484,495,493
489,494,484,496,493
489,494,485,496,493
489,493,484,495,493
489,494,484,495,493
488,494,484,495,493
488,494,484,495,493
487,495,484,495,492
486,495,484,495,494
486,495,484,495,495
487,494,484,495,492
487,494,484,495,492
488,494,484,495,493
489,494,484,496,493
489,494,484,495,493
489,494,484,495,492
489,495,484,495,492
489,495,484,495,490
488,495,484,495,495
488,494,484,495,494
487,494,484,495,493
486,494,484,495,493
487,495,483,495,493
487,494,484,495,493
487,495,484,495,493
488,494,483,495,493
489,494,484,495,493
489,494,484,495,493
489,494,484,495,492
489,495,484,495,493
489,495,484,495,493
488,495,484,495,492
487,495,484,495,493
487,494,484,495,493
486,494,484,495,494
487,494,484,495,493
487,494,484,495,493
488,495,484,495,493
489,494,484,495,493
489,494,484,495,493
489,494,484,495,493
489,494,484,495,493
489,494,484,495,493
488,494,484,495,493
488,494,484,495,493
487,495,484,495,493
487,494,483,495,493
486,494,484,495,493
487,494,484,495,493
488,494,483,495,493
488,495,484,496,493
489,494,484,495,493
489,494,484,495,491
489,494,484,495,493
489,494,483,495,493
489,494,483,495,493
488,494,483,496,493
487,494,484,495,493
487,494,484,496,493
486,493,484,495,493
486,494,484,495,493
487,494,484,495,493
488,494,484,495,493
488,494,484,495,493
489,494,484,495,493
489,495,484,495,492
489,495,483,496,494
489,494,483,495,493
488,494,483,496,493
488,494,483,496,492
487,494,484,495,494
487,494,484,495,493
486,494,484,496,493
487,494,484,495,493
487,494,483,495,494
488,495,483,495,493
489,495,484,495,493
489,495,484,495,493
489,494,484,495,493
489,495,485,495,493
489,494,484,495,493
488,494,484,495,493
488,494,484,496,493
487,494,484,495,493
486,494,484,495,493
486,494,484,495,493
487,494,484,495,493
488,494,484,495,493
488,494,484,495,493
489,494,484,495,493
489,494,484,495,493
489,494,484,495,493
489,494,484,496,494
489,494,484,495,492
488,495,484,495,491
487,494,484,495,494
487,494,484,495,494
487,494,483,496,493
487,494,484,496,492
487,494,484,495,492
488,495,484,495,493
489,494,484,495,493
489,494,484,496,493
490,495,484,496,493
489,496,484,496,493
489,495,484,495,493
488,494,483,495,493
488,493,484,495,492
487,493,484,496,493
487,494,484,496,493
487,494,484,495,493
487,494,484,495,493
488,494,484,496,493
488,494,484,495,493
489,494,484,495,493
489,494,484,495,493
489,494,484,496,493
489,494,484,495,493
489,494,484,495,493
488,494,484,496,493
488,494,484,495,492
487,494,484,495,493
487,494,484,495,493
487,494,484,495,493
487,494,484,495,493
488,494,484,495,493
489,494,484,495,493
489,494,484,495,493
490,494,484,495,493
489,494,484,495,493
489,494,484,495,493
489,494,484,495,493
488,494,484,495,493
487,494,484,495,493
487,494,484,495,493
487,494,484,495,493
487,494,484,495,493
488,494,483,495,492
488,494,484,495,493
489,495,484,495,493
490,494,484,495,493
490,494,484,495,493
489,494,484,495,493
489,495,484,495,492
488,495,484,495,493
488,494,484,495,493
487,494,484,495,494
487,495,484,495,493
487,495,484,495,493
487,494,484,496,493
488,494,484,495,493
489,494,484,495,493
489,493,484,495,493
489,494,484,495,493
489,494,484,495,493
489,494,484,496,493
489,494,484,495,493
488,494,484,496,493
487,494,484,495,493
487,494,484,495,493
487,494,484,495,493
487,494,484,496,493
488,494,484,495,493
488,494,484,495,493
489,494,484,495,493
489,494,484,495,493
489,494,484,495,493
489,494,484,495,491
488,494,484,495,493
488,494,484,495,493
487,494,484,495,493
487,494,484,495,493
486,494,484,496,493
486,494,484,495,494
487,494,484,495,494
488,494,483,495,493
488,495,484,495,492
489,494,484,495,493
489,494,484,496,493
489,494,484,495,493
489,494,484,495,493
488,494,484,495,493
488,494,484,495,493
487,494,484,495,493
486,494,484,495,493
486,494,484,496,493
486,494,484,495,493
487,494,484,495,493
488,494,484,495,494
489,495,484,495,494
490,494,484,495,492
489,494,484,495,492
489,494,484,495,493
489,494,484,495,493
488,494,483,495,494
487,494,483,495,492
487,494,484,496,493
486,494,483,495,493
486,494,483,495,493
487,494,484,495,493
487,494,484,495,493
488,494,484,495,493
489,494,484,495,493
489,494,484,495,493
489,494,483,495,493
489,494,483,495,493
489,494,483,495,493
488,495,484,495,493
487,494,484,495,493
487,494,484,495,493
486,494,485,496,492
486,494,485,495,492
487,494,484,495,493
488,494,484,495,493
488,493,484,495,493
489,494,484,495,493
489,494,484,495,493
489,494,484,495,493
488,494,484,495,493
488,494,484,495,493
487,494,484,495,493
487,494,484,495,493
486,494,484,495,493
