Sensor0,Sensor1,Sensor2,Sensor3,Sensor4

490,859,497,496,497
493,781,500,496,496
496,576,502,496,497
494,358,500,496,495
494,242,495,495,497
495,184,496,495,496
494,186,495,495,495
493,222,495,495,495
493,320,496,496,494
493,442,494,496,495
491,603,494,496,494
491,798,494,496,495
490,878,496,496,495
492,847,497,496,495
494,706,498,495,496
494,484,498,495,497
494,295,497,495,496
494,215,497,495,496
495,176,495,495,495
493,202,498,495,495
497,264,494,495,495
494,381,495,496,494
493,542,494,496,494
491,696,495,496,493
491,843,497,496,495
491,865,497,495,494
491,793,497,495,494
493,605,499,496,496
495,413,498,495,498
493,259,499,495,498
493,187,498,495,496
492,175,495,495,494
492,212,497,495,494
493,303,494,495,497
494,419,494,495,496
491,582,497,495,496
490,777,493,496,495
491,876,495,495,494
491,855,497,495,495
494,737,497,495,497
495,519,497,495,496
494,343,497,495,496
493,218,498,495,495
494,174,497,495,494
494,192,498,495,497
493,246,497,495,493
491,362,498,495,495
491,510,498,495,496
491,667,498,495,495
490,833,494,495,496
491,871,496,495,495
491,822,497,495,497
492,641,496,495,498
493,441,498,495,497
494,275,498,495,498
496,195,498,495,494
495,177,495,495,495
494,208,496,495,494
495,288,495,495,493
495,411,496,495,494
492,560,495,495,493
492,752,495,495,494
492,870,498,495,494
493,855,498,495,494
491,763,496,495,499
496,545,499,495,498
494,351,498,495,496
494,231,499,495,497
492,184,498,495,496
493,191,498,495,498
494,239,495,495,494
494,341,495,495,496
494,472,494,495,496
491,638,493,495,496
491,819,495,495,494
492,873,498,495,495
493,839,498,495,496
494,676,497,495,495
494,461,499,495,498
493,295,499,495,496
493,206,499,495,494
495,175,496,495,497
491,205,494,495,494
493,274,494,495,496
491,392,495,495,494
492,544,495,495,495
490,723,497,495,496
491,863,495,495,496
493,862,497,495,497
494,785,497,495,499
492,578,496,495,497
495,386,498,495,499
493,242,499,495,498
492,183,499,495,494
492,183,499,495,497
494,226,498,495,496
493,321,495,495,496
492,454,497,495,494
492,607,492,495,492
493,797,494,495,493
491,875,495,495,494
490,843,497,495,496
495,703,496,495,499
495,481,498,495,496
494,310,499,495,498
496,209,496,495,494
492,178,497,495,497
494,202,495,495,494
491,258,498,495,497
494,376,494,495,494
493,515,497,495,493
489,696,498,495,496
492,848,497,495,494
490,868,497,495,495
492,800,497,495,497
496,613,498,495,497
495,406,498,495,498
493,249,498,495,494
494,191,499,495,497
492,180,495,494,498
492,218,496,495,494
493,310,498,495,495
491,435,494,495,494
493,588,497,495,493
491,773,496,495,494
492,875,496,495,494
490,851,497,495,498
492,734,500,495,495
495,515,499,495,495
493,338,499,495,498
494,222,498,494,497
496,180,497,494,496
492,193,496,494,495
495,249,497,494,497
492,358,496,495,493
493,496,496,495,493
490,669,494,495,494
491,837,498,495,493
492,871,499,495,495
493,824,498,495,498
492,642,498,495,496
495,428,499,495,498
496,265,499,494,497
493,199,498,494,498
496,178,497,494,495
493,213,497,494,497
492,292,498,495,495
493,414,496,495,494
494,565,497,495,496
493,754,494,495,493
490,873,498,495,497
491,861,495,495,497
491,763,500,495,495
492,546,496,494,496
495,358,497,494,498
496,229,496,494,497
492,182,498,494,495
494,190,498,494,495
495,238,496,494,495
494,340,496,494,494
493,475,498,494,496
490,640,497,495,496
489,822,498,495,497
490,877,498,495,495
494,837,496,495,497
491,672,501,494,498
494,453,497,495,497
495,287,500,494,497
494,207,499,494,497
495,180,496,495,497
494,205,499,494,496
492,280,497,494,494
494,393,495,494,496
494,543,495,494,494
492,730,495,495,496
490,863,498,495,494
493,863,496,495,497
493,786,497,494,495
492,578,500,494,496
494,381,500,494,496
495,242,500,494,496
493,188,497,494,498
494,188,499,494,494
495,225,497,494,494
494,323,498,494,494
491,455,496,494,496
492,615,496,495,494
489,803,497,495,495
491,877,498,495,496
492,848,497,494,495
493,705,499,494,498
492,482,500,494,498
493,313,501,494,498
493,213,498,494,495
495,180,497,494,494
493,203,499,494,496
491,265,497,494,495
494,380,498,494,494
490,521,496,494,496
492,702,498,495,494
493,852,495,494,497
492,866,495,495,496
490,800,498,494,495
496,611,498,495,496
494,401,496,494,497
496,251,498,494,495
495,190,498,494,497
494,181,499,494,495
492,217,496,494,494
495,308,496,494,496
494,433,497,494,493
491,591,498,494,496
492,780,497,494,493
489,874,498,494,494
491,850,498,494,495
491,729,497,494,496
492,511,500,494,496
493,334,498,494,496
494,218,498,494,497
495,177,500,494,498
492,193,496,494,497
494,248,498,494,496
492,359,496,494,495
492,498,496,494,494
491,671,496,494,494
491,841,496,494,496
493,872,497,494,494
490,820,496,494,496
492,637,499,494,496
494,422,499,494,497
495,263,498,494,496
494,194,498,494,496
494,179,498,494,494
495,212,498,494,495
493,294,497,494,496
491,413,497,494,496
491,567,496,494,495
491,754,495,494,494
489,872,496,494,495
491,858,498,494,496
492,758,499,495,498
494,544,499,494,497
494,366,498,494,497
495,226,500,494,497
494,178,499,494,497
493,186,498,494,496
492,236,496,494,495
493,343,495,494,495
492,494,496,494,495
491,646,496,494,494
490,819,496,494,496
493,871,498,494,496
492,834,498,494,496
494,667,499,494,497
493,466,498,494,497
494,296,499,494,497
494,196,497,494,496
494,173,497,494,495
493,200,497,494,494
492,275,496,494,494
492,399,496,494,494
492,554,497,494,495
492,728,497,494,495
491,862,498,494,495
492,860,498,494,495
492,777,498,494,496
493,571,498,494,497
494,381,499,494,497
495,236,498,494,496
494,180,497,494,496
494,182,499,494,496
492,225,498,494,495
492,324,497,494,494
492,460,496,494,495
492,615,496,494,495
491,800,496,494,496
492,875,496,494,494
492,842,497,494,496
493,697,499,494,497
494,480,498,494,497
494,315,499,494,497
493,207,497,494,497
494,174,498,494,496
494,198,497,494,495
492,260,496,494,496
492,380,496,494,495
491,529,497,494,494
492,700,496,494,495
490,850,498,494,495
492,865,497,494,496
493,797,499,494,496
494,603,498,494,497
494,413,499,494,497
494,250,501,494,496
493,184,500,494,496
493,180,500,494,495
493,215,499,494,496
493,305,496,494,494
493,444,493,494,495
492,602,495,494,495
491,781,496,494,495
492,874,497,494,495
493,850,498,494,496
493,724,499,494,496
493,511,499,494,496
494,338,500,494,496
493,212,498,494,496
494,172,497,494,495
493,192,497,494,496
491,247,497,494,495
492,357,496,494,494
492,506,496,494,494
492,672,496,494,495
491,839,497,494,494
492,869,497,494,495
492,818,498,494,496
494,633,499,494,497
494,429,498,494,498
494,266,498,494,496
494,192,498,493,495
494,177,497,494,496
494,206,496,494,495
492,292,497,494,495
492,421,497,494,494
492,573,497,494,494
491,753,496,494,495
491,870,497,494,495
491,855,497,494,496
492,754,498,494,496
495,540,499,494,496
494,361,499,494,497
494,223,498,494,497
494,177,498,494,495
493,187,498,494,494
495,237,496,494,494
493,341,497,494,495
492,489,497,494,494
492,644,497,494,494
492,822,496,494,494
491,873,498,494,494
493,833,498,494,497
494,665,499,494,497
494,459,499,494,497
494,291,499,494,496
494,197,498,494,497
493,171,498,494,496
493,203,496,494,495
493,274,497,494,495
492,397,496,494,495
491,555,497,494,495
492,730,496,494,494
490,862,498,494,496
492,859,498,494,496
493,777,500,494,496
493,569,499,494,497
494,382,499,494,497
494,234,499,494,497
494,178,497,494,496
494,183,497,494,496
493,225,497,494,495
491,325,496,494,495
492,465,496,494,495
492,620,495,494,495
490,803,497,494,494
492,873,496,494,496
492,843,498,494,496
493,693,499,494,497
493,480,499,494,497
495,312,498,494,496
494,203,497,494,498
494,172,498,494,496
493,199,498,494,495
492,262,496,494,495
492,381,497,494,494
492,532,496,494,495
492,701,496,494,494
490,850,498,494,494
491,863,499,494,495
491,795,499,494,496
494,601,500,494,497
494,409,499,494,496
495,247,499,494,497
494,183,498,494,497
494,180,498,494,495
494,213,497,494,496
493,308,496,494,495
492,446,497,494,495
492,602,497,494,494
491,782,497,494,495
492,874,498,494,495
492,847,497,494,496
493,723,499,494,497
494,510,499,494,497
494,338,499,494,497
494,213,497,494,496
494,170,498,494,496
494,191,497,494,495
494,249,496,494,495
493,360,497,494,495
492,510,497,494,495
492,674,496,494,495
491,841,497,494,495
492,867,497,494,495
492,816,499,494,496
493,632,499,494,497
494,428,499,494,496
494,267,498,494,496
494,190,498,494,496
494,177,497,494,495
494,208,496,494,495
491,293,498,494,494
493,424,497,494,495
493,577,496,494,495
491,757,497,494,494
492,867,498,494,494
492,852,497,494,494
493,750,498,494,497
494,536,499,494,496
494,359,500,494,497
494,223,498,494,496
493,175,498,494,496
493,189,497,494,495
493,237,496,494,496
493,343,497,494,495
492,491,497,494,495
492,645,496,494,495
490,823,497,494,494
492,870,497,494,495
492,830,497,494,496
493,660,500,494,497
495,455,499,494,496
494,288,498,494,496
494,196,499,494,495
493,175,497,494,495
493,203,497,494,496
493,279,496,494,494
493,402,498,494,495
492,556,497,494,494
491,729,497,494,495
490,862,496,494,495
491,859,497,494,496
492,774,499,494,495
493,566,499,494,496
493,381,498,494,496
493,235,497,494,496
494,180,496,494,497
492,185,495,494,495
493,228,495,494,496
492,324,499,494,495
490,458,498,494,493
491,613,494,494,492
490,804,496,494,495
493,873,496,494,495
493,839,497,494,495
492,694,499,494,497
492,467,500,494,497
495,301,499,494,497
495,207,498,494,496
493,176,498,493,496
494,202,496,494,496
491,263,497,494,494
492,381,496,494,495
492,525,496,494,495
492,709,497,494,493
491,852,497,494,494
491,864,499,494,495
494,795,498,494,498
493,600,498,494,497
493,403,499,494,498
495,246,497,494,496
495,187,498,494,497
492,182,498,494,497
493,216,498,494,495
494,313,496,494,496
493,453,497,494,495
492,608,495,494,496
492,779,496,494,495
491,871,498,494,497
491,846,498,494,495
492,715,500,494,497
494,509,498,494,498
495,337,498,494,498
494,210,500,494,497
493,170,498,494,495
494,190,498,494,497
492,248,499,494,496
493,357,496,494,494
491,505,496,495,496
491,673,497,494,495
490,838,498,494,494
491,866,497,494,494
491,812,497,494,496
492,629,498,494,497
494,421,499,494,497
494,258,500,494,497
494,192,500,494,495
494,178,499,494,496
492,212,497,494,494
492,294,499,494,496
493,419,495,494,494
491,573,494,494,494
492,760,495,494,494
492,870,496,494,495
491,853,497,494,496
492,748,498,494,497
494,535,499,494,496
494,356,499,494,497
494,222,498,494,496
493,178,497,494,495
493,190,497,494,496
494,237,497,494,495
492,346,496,494,495
492,496,497,494,495
491,651,497,494,495
491,824,497,494,494
492,870,497,494,495
492,830,498,494,496
493,658,498,494,496
494,460,499,494,496
495,292,499,494,497
495,195,498,493,496
494,173,498,494,495
493,202,498,494,495
494,277,497,494,494
492,407,497,494,495
492,560,497,494,495
491,730,497,494,495
493,862,496,494,495
492,853,498,494,495
493,771,498,494,496
493,561,499,494,497
494,378,499,494,496
495,231,498,494,495
494,178,498,494,495
493,184,497,494,495
492,227,496,494,494
492,327,497,494,495
493,464,497,494,494
491,618,496,494,494
491,803,496,494,496
491,870,496,494,496
492,839,498,494,495
493,688,499,494,496
494,474,500,494,496
495,308,499,494,496
494,206,499,494,497
493,174,497,494,495
495,199,496,494,495
493,264,497,494,494
491,383,497,494,495
492,535,497,494,495
491,704,496,494,495
492,850,497,494,494
491,861,498,494,495
492,791,498,494,496
493,594,500,494,497
494,407,499,494,497
495,244,499,494,496
494,181,498,494,495
492,180,496,494,496
493,217,496,494,496
493,310,496,494,495
492,453,497,494,495
492,607,497,494,495
491,782,498,494,495
490,868,498,494,495
493,846,499,494,496
493,715,500,494,496
494,504,498,494,496
494,332,498,494,497
493,209,496,494,496
494,172,496,494,496
493,194,496,494,496
494,249,497,494,495
493,363,496,494,494
492,512,497,494,496
491,677,497,494,495
490,838,496,494,495
492,864,497,494,495
492,810,499,494,496
493,624,500,494,497
493,422,499,494,496
494,261,498,494,497
493,192,499,494,496
493,180,497,493,495
492,210,497,494,496
492,298,497,494,495
493,424,496,494,495
491,578,496,494,495
490,760,497,494,495
492,867,496,494,495
492,850,497,494,496
493,744,499,494,496
494,530,500,494,497
494,356,499,494,497
495,223,498,494,497
494,175,498,494,495
493,190,497,494,496
492,241,498,494,495
492,347,497,494,495
492,492,497,494,495
491,648,496,494,495
491,826,497,494,496
491,870,498,494,494
492,828,498,494,496
493,657,499,494,496
494,453,499,494,497
494,287,499,494,496
494,197,497,494,496
493,174,497,494,496
494,206,496,494,495
493,282,496,494,495
493,409,496,494,495
492,562,496,494,494
491,737,496,494,495
490,862,498,494,495
493,855,498,494,495
494,771,499,494,497
493,561,500,494,496
494,381,500,494,497
495,231,498,494,496
493,180,498,494,497
493,185,497,494,495
492,231,494,494,495
493,329,496,494,495
493,473,497,494,494
492,626,496,494,494
491,803,496,494,494
491,871,498,494,495
492,839,498,494,495
493,686,498,494,496
494,475,499,494,496
493,308,498,494,496
493,206,499,494,495
494,175,496,494,495
493,200,497,494,495
494,268,496,494,495
492,384,497,494,495
492,535,496,494,494
492,706,496,494,495
492,852,497,494,495
492,860,498,494,495
493,790,498,494,496
493,590,499,494,496
494,401,499,494,497
493,242,498,494,495
493,184,497,494,495
494,182,497,494,495
493,217,497,494,494
494,314,497,494,495
492,450,496,494,494
491,604,497,494,495
491,787,496,494,496
491,871,497,494,495
493,845,498,494,496
493,716,499,494,497
494,501,500,494,496
495,330,499,494,496
495,211,499,493,496
494,174,499,493,495
492,196,495,494,495
492,250,494,494,495
493,365,496,494,494
491,514,496,494,494
491,681,496,494,494
490,839,496,494,496
491,864,497,494,495
492,809,497,494,496
493,623,498,494,496
493,423,498,494,496
494,262,498,493,495
493,191,498,494,496
493,180,496,494,495
494,211,498,494,495
492,297,496,494,495
493,430,496,494,494
492,584,496,494,494
490,761,496,494,494
492,867,497,494,496
493,852,497,494,496
492,742,499,494,497
494,528,498,494,496
493,354,498,494,496
493,223,497,494,496
493,176,498,494,496
494,190,497,494,496
492,242,496,494,495
492,348,497,494,495
492,496,496,494,494
491,651,496,494,493
490,825,496,494,494
490,868,497,494,494
492,828,497,494,496
493,653,498,494,496
494,451,499,494,496
494,286,498,494,496
493,197,498,494,496
494,177,497,494,496
492,206,497,494,495
492,284,496,494,495
491,408,496,494,495
491,562,497,494,494
491,738,496,494,493
492,862,497,494,494
493,854,498,494,495
493,767,499,494,495
494,559,498,494,496
494,377,499,494,496
493,230,499,494,496
494,179,497,494,495
492,186,497,494,494
493,230,498,494,494
492,331,497,494,494
492,473,496,494,494
491,628,497,494,493
490,807,495,494,493
491,871,497,494,496
491,836,497,494,495
492,684,498,494,496
494,471,499,494,496
495,303,498,494,496
494,202,498,494,495
494,173,498,494,495
493,201,496,494,495
493,267,497,494,494
493,387,496,494,494
492,541,497,494,494
492,710,497,494,494
491,851,497,494,494
492,860,498,494,496
493,789,499,494,495
493,588,500,494,496
495,399,499,494,496
495,241,499,494,496
494,183,497,494,495
494,182,496,494,495
494,218,498,494,494
493,316,495,494,496
493,454,495,494,495
491,608,496,494,494
490,787,495,494,495
492,872,497,494,495
492,845,498,494,496
493,712,499,494,496
494,500,499,494,497
494,332,499,494,495
494,211,497,494,496
493,175,497,494,496
494,197,497,494,496
491,256,497,494,494
492,368,496,494,495
492,515,496,494,494
492,680,496,494,494
491,839,496,494,493
492,866,499,494,495
492,807,498,494,496
493,623,499,494,496
494,423,499,494,496
493,261,498,494,496
493,190,497,493,495
493,180,497,494,495
492,213,497,494,496
492,300,496,494,494
492,429,496,494,495
492,585,496,494,494
491,765,495,494,495
492,869,496,494,495
492,850,498,494,496
492,739,498,494,496
494,525,499,494,496
494,350,498,494,497
493,220,497,494,495
494,176,498,494,494
493,191,497,494,494
492,240,497,494,496
492,350,496,494,495
492,495,496,494,495
492,654,496,494,494
492,826,496,494,495
491,868,498,494,495
492,826,497,494,496
493,652,498,494,496
494,447,498,494,496
493,284,498,494,496
493,197,497,494,494
492,177,497,494,495
492,206,497,494,494
493,285,498,494,495
492,411,497,494,494
492,563,496,494,494
491,739,496,494,493
492,862,496,494,495
492,855,497,494,495
492,765,498,494,497
493,554,499,494,496
494,376,498,494,495
494,230,498,494,495
494,179,497,494,495
493,187,497,493,495
492,229,497,494,494
493,332,496,494,495
491,476,496,494,495
491,631,495,494,494
491,807,496,494,493
492,869,496,494,496
493,838,497,494,495
494,679,499,494,496
493,471,498,494,496
494,304,498,493,495
494,202,497,494,495
493,174,496,494,495
493,201,496,493,496
492,266,496,494,494
493,386,496,494,494
492,540,496,494,494
491,714,496,494,493
492,855,496,494,493
491,860,497,494,495
492,786,498,494,496
493,585,497,494,495
494,394,499,494,496
494,241,497,494,497
495,183,497,494,495
493,182,497,494,495
493,220,497,494,496
492,317,496,494,494
493,454,496,494,494
493,609,496,494,494
491,790,495,494,495
492,871,497,494,492
493,842,499,494,494
493,710,499,494,496
494,495,498,494,496
495,326,498,494,495
495,211,497,493,496
494,175,497,493,495
492,197,498,494,495
494,255,497,494,495
493,368,497,494,495
492,515,497,494,493
491,686,495,494,494
492,842,495,494,494
492,865,497,494,494
492,804,499,494,496
493,617,500,494,496
494,415,499,493,496
494,256,497,494,495
494,190,496,494,495
493,177,495,494,495
493,215,496,494,494
492,302,496,494,495
493,431,495,494,494
492,587,496,494,494
490,768,496,494,495
491,869,497,494,495
491,852,497,494,495
493,738,498,494,496
494,524,497,494,496
494,350,498,494,497
494,218,497,494,496
492,175,497,494,496
493,192,497,494,494
492,242,496,494,494
492,350,496,494,494
492,499,496,494,494
492,657,496,494,494
491,830,496,494,495
493,870,497,494,494
491,826,498,494,495
493,649,499,494,496
494,446,498,494,496
494,282,499,494,496
494,194,497,494,495
493,175,496,494,495
493,205,496,494,495
492,284,496,494,495
492,412,496,494,494
492,564,496,494,493
490,742,495,494,493
492,863,496,494,495
491,854,497,494,495
492,763,498,494,496
494,551,499,494,496
494,371,499,494,496
494,229,498,494,496
494,178,496,494,495
492,188,496,494,495
493,231,495,494,496
491,333,496,494,494
492,477,496,494,495
491,631,497,494,495
491,810,497,494,495
491,872,498,494,495
491,835,498,494,496
493,678,499,494,496
494,467,495,494,496
494,303,497,494,495
493,201,495,494,495
494,174,496,494,495
494,200,496,494,494
492,271,496,494,496
492,391,496,494,494
492,543,496,494,494
492,713,495,494,493
490,854,495,494,494
492,858,497,494,496
493,784,498,494,496
493,584,498,494,495
494,395,498,494,496
494,238,496,493,496
493,181,497,494,495
492,181,496,494,495
493,219,497,494,496
492,316,495,494,494
491,455,496,494,494
492,610,496,494,494
492,791,495,494,493
492,873,497,494,495
492,843,497,494,495
493,708,497,494,496
493,494,498,494,496
494,325,497,493,496
494,210,497,494,496
494,172,496,494,495
492,197,497,494,494
492,255,496,494,495
492,370,496,494,495
492,522,496,494,494
492,688,496,494,494
492,839,497,494,494
491,863,496,494,496
493,801,497,494,496
493,614,497,494,496
493,416,497,494,496
493,256,496,493,496
493,188,497,494,496
494,179,496,493,494
492,214,496,494,494
493,302,496,494,495
492,436,496,494,494
491,588,496,494,494
491,767,496,494,494
491,869,498,494,496
491,848,497,494,495
493,733,498,494,496
494,521,497,494,496
494,347,497,493,496
495,218,496,494,495
494,175,497,493,494
494,191,497,493,495
493,242,495,494,495
493,352,495,494,494
492,501,495,494,494
491,658,495,494,493
491,832,496,494,494
493,869,496,494,495
491,823,497,494,496
493,647,498,494,496
494,444,498,493,497
494,279,497,493,496
493,193,496,493,496
493,175,496,493,495
493,207,496,493,494
493,288,495,494,495
493,415,496,494,494
491,566,495,494,494
492,746,496,494,493
491,866,495,494,495
492,852,497,494,495
493,760,498,494,495
493,550,498,493,496
494,370,498,493,497
494,227,497,493,496
492,178,496,493,495
493,185,497,493,495
492,234,495,494,496
493,335,496,494,495
493,478,496,494,496
490,637,494,494,493
492,813,495,494,495
492,869,496,494,495
492,835,497,494,496
493,675,498,494,496
493,463,498,493,497
493,298,497,493,496
493,200,498,493,495
493,174,496,493,496
492,202,496,493,495
494,272,495,494,495
492,392,496,494,494
492,545,495,494,495
491,716,495,494,494
492,857,496,494,495
491,859,497,494,495
491,782,498,493,495
492,579,497,493,496
493,392,498,493,496
494,240,498,493,496
492,180,496,493,495
493,184,496,493,496
493,222,496,493,496
493,319,497,494,494
492,459,496,494,495
492,613,495,494,494
490,794,496,494,495
491,874,497,494,494
492,843,498,494,496
493,705,498,493,496
494,493,498,493,496
493,324,498,493,497
494,209,497,493,495
493,174,497,493,495
492,197,496,493,495
494,257,496,494,495
493,373,496,494,494
492,524,496,494,494
490,691,495,494,495
492,841,495,494,496
492,863,497,494,495
492,798,499,494,494
494,610,498,493,497
494,415,497,493,496
494,251,497,493,497
493,186,496,493,495
493,180,496,493,495
493,213,495,493,494
493,303,497,494,494
492,434,496,494,494
491,586,495,494,494
491,773,495,494,493
490,870,496,494,496
493,848,497,494,496
493,732,498,493,496
494,515,498,493,496
493,340,497,493,496
494,219,498,493,496
493,176,497,493,495
493,193,496,493,496
494,246,496,493,495
493,355,497,493,494
492,501,497,494,494
491,662,495,494,494
492,831,497,494,495
491,867,496,494,494
492,823,498,494,496
493,643,498,493,496
494,441,498,493,496
495,278,498,493,495
492,194,495,493,495
493,177,496,493,494
492,206,497,493,495
492,289,496,493,495
491,419,496,494,495
491,571,495,494,495
490,745,495,494,494
492,863,497,494,495
492,854,497,494,495
493,755,499,493,495
493,547,498,493,497
494,369,498,493,496
494,226,497,493,495
493,176,497,493,494
493,186,494,493,496
492,234,496,493,495
493,337,496,494,494
492,480,496,494,493
492,636,496,494,494
491,813,497,494,494
492,869,497,494,494
493,835,498,493,496
493,671,498,493,496
494,461,497,493,497
493,296,497,493,496
494,201,497,493,495
494,174,496,493,495
492,203,496,493,494
492,274,496,493,494
492,394,496,493,495
492,548,495,494,494
491,721,495,494,494
490,860,496,494,495
491,858,496,494,495
493,780,497,493,496
494,577,497,493,496
494,390,498,493,496
495,238,497,493,496
494,180,497,493,494
493,185,496,493,495
493,222,497,493,494
491,320,495,493,494
491,463,495,493,494
491,617,497,494,494
490,795,497,494,493
491,873,498,494,495
492,841,498,494,495
494,701,499,493,497
494,488,498,493,496
494,322,497,493,496
493,207,496,493,495
493,173,496,493,495
494,197,495,493,493
494,258,495,493,494
494,374,494,494,495
492,524,494,494,494
491,693,494,494,493
489,841,496,494,495
492,861,497,494,494
492,798,498,493,495
494,607,497,493,496
494,411,497,493,496
494,251,497,493,495
493,185,497,493,495
493,180,496,493,496
494,215,495,493,495
492,305,495,493,494
492,436,495,494,494
491,591,495,494,494
491,775,496,494,494
491,870,497,494,496
492,848,496,493,495
493,730,498,493,496
493,515,498,493,496
494,342,497,493,496
494,216,497,493,496
493,174,496,493,496
493,192,496,493,495
493,247,496,493,495
491,357,495,493,494
492,506,496,494,493
491,666,495,494,494
491,833,496,494,495
491,865,496,493,495
492,819,498,493,495
493,640,498,493,496
493,438,498,493,495
494,275,498,493,496
494,192,498,493,496
493,177,497,493,495
492,207,496,493,494
491,290,495,494,495
492,420,496,493,494
491,573,496,494,493
490,747,495,494,495
490,865,497,494,495
492,853,497,493,495
493,754,497,493,496
493,543,498,493,496
493,366,498,493,496
494,226,496,493,496
494,177,498,493,495
493,187,497,493,495
493,236,496,493,495
492,338,495,493,495
492,482,496,494,495
491,637,496,494,494
491,814,497,494,495
491,868,497,494,495
492,833,497,494,496
492,667,498,493,496
494,460,498,493,496
494,294,498,493,496
494,199,497,493,496
494,173,496,493,495
493,203,496,493,494
491,276,496,493,494
492,395,496,494,494
491,549,496,494,494
491,723,496,494,495
491,860,496,494,495
491,858,497,493,495
492,780,497,493,496
493,573,498,493,496
494,386,497,493,496
495,235,496,493,495
493,178,497,493,495
493,183,496,493,495
493,225,497,493,494
493,323,496,493,494
491,463,496,493,494
491,618,496,494,493
491,797,496,494,494
491,872,497,494,495
491,841,496,493,495
492,699,498,493,496
493,485,498,493,496
494,318,498,493,496
494,206,497,493,495
493,172,498,493,495
493,198,497,493,495
493,261,495,494,495
492,378,495,493,494
492,529,496,493,495
491,695,496,494,495
490,842,497,494,494
492,863,498,494,495
492,795,498,493,496
492,603,499,493,495
493,410,497,493,496
494,251,498,493,495
493,186,498,493,495
493,179,496,493,495
493,215,497,493,495
492,307,496,493,494
492,441,496,493,495
491,594,496,494,495
490,775,497,494,494
490,872,498,494,495
491,847,497,493,495
493,724,498,493,496
494,514,498,493,496
494,340,499,493,496
493,215,499,493,496
494,174,497,493,496
494,193,497,493,495
491,247,495,493,494
493,357,494,493,494
492,505,494,494,494
490,666,496,494,493
490,835,496,494,494
491,866,497,494,495
491,817,497,493,496
493,637,497,493,496
493,433,498,493,496
494,271,497,493,495
493,193,496,493,494
492,178,496,493,494
492,209,496,493,494
492,291,496,493,495
491,419,495,494,495
490,572,496,494,493
489,752,495,493,494
490,866,496,494,496
491,851,497,493,495
493,751,499,493,496
495,539,497,493,496
493,359,498,493,496
494,226,498,493,495
492,176,497,493,494
491,190,496,493,494
493,235,496,493,494
493,340,495,493,494
492,484,495,494,494
492,640,495,494,493
491,820,497,494,494
491,868,498,494,495
491,833,497,493,495
492,665,498,493,496
494,456,498,493,496
495,290,498,493,495
495,201,497,493,496
494,175,496,493,494
492,205,496,493,495
493,277,496,493,494
492,422,496,494,493
492,584,496,494,494
491,729,495,494,494
489,854,496,494,494
491,852,498,493,496
493,778,498,493,496
494,609,499,493,495
494,437,499,493,496
493,274,498,493,496
494,158,496,493,495
493,164,497,493,494
493,209,495,493,494
491,339,495,494,495
491,504,495,493,494
491,657,495,493,494
491,779,495,494,493
491,848,495,494,495
492,818,496,493,495
492,697,498,493,496
494,522,498,493,495
493,354,497,493,495
494,207,496,493,495
493,144,496,493,495
492,174,496,493,494
493,249,497,493,495
492,408,495,493,494
491,566,495,493,494
491,712,494,493,493
490,815,496,493,495
492,836,496,494,495
492,776,497,493,496
493,619,498,493,496
493,444,498,493,496
494,281,497,493,496
493,159,497,493,494
493,152,495,493,495
492,190,494,493,494
492,314,496,493,494
491,478,496,493,494
491,632,496,494,494
491,763,497,494,493
492,841,496,494,495
492,823,497,493,495
492,715,498,493,496
493,540,497,493,496
494,373,498,493,495
495,222,498,493,495
495,142,496,493,495
493,167,497,493,495
492,230,497,493,493
493,383,495,493,494
491,543,494,494,494
492,692,494,493,494
492,804,494,494,493
491,839,497,494,494
492,793,497,493,495
493,644,498,493,496
494,467,498,493,497
494,305,498,493,496
494,172,497,493,496
494,147,497,493,495
492,185,497,493,494
493,292,496,493,494
492,455,496,493,493
492,609,496,493,493
492,746,496,493,494
492,837,496,493,494
491,827,498,493,495
493,739,499,493,495
492,566,497,493,495
494,399,498,493,496
493,238,498,493,495
494,143,494,493,495
492,162,495,493,496
492,219,495,493,494
492,360,495,493,493
492,524,496,493,495
491,675,496,494,494
490,790,495,494,495
491,842,496,493,493
491,808,497,493,495
491,668,497,493,495
494,492,497,493,495
495,326,497,493,497
494,186,496,493,494
494,146,496,493,495
493,179,497,493,495
493,268,496,493,494
492,433,497,493,493
491,590,496,493,494
491,729,495,494,495
493,829,496,494,494
492,830,497,493,495
492,759,498,493,495
494,592,499,493,495
494,420,498,493,495
493,261,497,493,495
494,148,497,493,494
493,155,495,493,495
493,202,497,493,494
492,336,494,493,493
492,498,496,493,494
492,649,495,494,495
492,771,494,493,495
492,842,497,494,494
491,816,497,493,495
492,692,498,493,495
493,514,497,493,496
494,348,498,493,496
494,202,496,493,496
495,144,495,493,494
493,171,496,493,494
493,251,496,493,495
492,406,496,493,493
492,564,496,494,493
491,710,494,494,495
490,820,495,494,494
491,835,495,494,494
493,773,496,493,495
493,616,498,493,496
493,441,497,493,495
495,278,497,493,495
495,153,497,493,495
493,153,496,493,495
492,192,495,493,494
492,313,496,493,494
492,478,495,494,493
491,631,496,494,493
491,761,494,494,494
491,843,497,494,495
491,824,498,494,495
492,715,497,493,496
494,540,497,493,495
494,370,498,493,496
493,215,496,493,495
494,145,495,493,495
494,169,495,493,493
493,233,495,494,493
492,384,495,493,494
492,543,496,494,493
492,693,496,494,494
492,807,497,494,495
492,837,499,494,495
492,794,498,493,495
493,642,496,493,495
493,464,497,493,494
494,299,498,493,496
495,171,496,493,495
494,150,495,493,496
493,184,496,493,495
492,294,496,493,494
492,458,497,493,494
491,608,497,493,493
492,746,498,494,493
490,838,494,494,495
492,827,497,494,495
492,736,498,493,495
493,562,497,493,496
493,395,497,493,496
494,234,497,493,496
494,145,497,493,495
493,160,495,493,495
493,220,495,493,494
492,362,493,493,493
491,523,494,494,493
491,674,495,493,494
490,790,496,494,493
492,839,497,493,494
492,804,497,493,496
493,664,497,493,495
493,490,498,493,496
493,321,496,493,496
494,181,497,493,496
492,146,495,493,495
493,181,496,493,496
494,272,496,493,495
491,432,495,493,493
491,590,495,494,493
491,730,495,493,495
490,834,496,494,494
493,831,496,493,495
491,759,496,493,496
493,589,498,493,495
494,418,498,493,497
494,255,496,493,496
494,148,496,493,495
493,157,496,493,495
493,205,497,493,494
493,338,495,494,494
491,503,495,494,494
492,653,496,494,494
490,773,496,494,494
491,842,496,493,495
492,814,498,493,495
493,691,498,493,495
494,512,499,493,496
493,345,498,493,495
494,199,498,493,495
494,145,497,493,494
493,176,497,493,496
493,254,495,493,494
491,411,495,493,494
492,565,495,493,494
491,710,496,494,493
491,822,495,494,494
491,835,495,493,494
492,773,496,493,495
493,614,498,493,495
493,440,496,493,495
494,277,497,493,495
494,154,497,493,494
493,154,495,493,495
493,194,494,493,495
493,318,495,493,493
492,481,496,493,494
491,630,498,494,494
490,761,495,493,494
491,844,496,494,494
491,821,496,493,495
492,714,497,493,496
494,540,497,493,495
494,368,497,493,496
493,215,498,493,495
493,145,494,493,494
492,167,495,493,494
491,233,495,493,494
492,386,494,493,494
491,544,494,493,494
492,695,495,494,495
489,808,497,494,494
492,837,497,494,494
491,792,498,493,496
493,639,498,493,495
494,463,497,493,496
493,296,497,493,495
495,168,497,493,496
492,150,495,493,494
492,185,496,493,495
493,295,496,493,494
491,458,496,493,494
490,610,494,494,494
491,748,496,493,495
491,839,497,494,496
491,826,497,494,495
493,734,496,493,495
493,560,498,493,495
494,391,497,493,496
494,235,496,493,497
494,146,496,493,495
492,164,495,493,496
491,220,495,493,494
492,364,495,493,494
491,525,495,493,493
491,673,496,493,493
490,789,496,494,494
492,841,497,494,494
491,806,498,493,495
493,662,498,493,495
493,486,497,493,496
494,321,497,494,496
494,181,496,493,495
493,148,495,493,495
492,179,495,493,495
493,275,496,493,494
491,434,495,494,494
492,591,496,494,493
491,731,495,494,495
490,835,495,493,493
492,830,495,493,495
492,755,496,493,496
493,586,497,493,495
494,415,498,493,496
494,255,496,493,496
494,146,495,493,494
493,158,496,493,496
492,205,496,493,494
493,338,495,493,493
491,502,495,493,494
491,655,495,494,494
492,776,495,494,494
491,843,496,494,495
491,814,496,494,495
492,687,498,493,496
494,510,498,493,495
494,344,497,493,496
493,197,498,493,496
494,146,496,493,495
493,174,495,493,495
492,253,496,493,493
491,411,495,493,494
491,568,495,494,493
491,713,496,494,493
492,822,496,494,494
491,832,496,494,495
492,771,497,493,496
493,610,497,493,496
493,436,496,493,495
494,274,497,493,495
493,155,497,493,494
494,153,496,493,495
492,193,494,493,494
492,319,494,493,494
492,483,494,493,495
492,635,494,494,494
491,762,496,494,495
492,845,496,494,494
492,822,495,494,495
494,710,496,493,495
493,533,498,493,495
494,367,498,493,496
495,214,498,493,496
494,145,497,493,494
493,170,494,493,494
493,235,495,493,494
492,387,495,493,494
491,547,495,494,493
490,696,494,494,494
489,808,495,494,494
491,836,496,494,494
492,789,497,493,495
493,636,497,493,495
493,462,498,493,496
494,294,498,493,496
493,166,497,493,495
493,151,496,493,494
493,187,496,493,495
493,297,496,493,494
492,460,495,494,494
492,614,495,494,494
491,749,497,494,494
492,842,496,494,495
491,826,496,493,495
493,734,495,493,496
493,561,496,493,496
494,390,497,493,496
494,234,498,493,495
494,146,495,493,495
494,164,496,493,495
494,221,495,493,494
492,365,495,493,493
491,527,494,493,494
491,678,495,494,494
492,793,496,494,493
493,841,497,493,495
491,804,496,493,496
492,660,499,493,496
493,483,498,493,496
493,317,497,493,496
495,180,496,493,495
493,148,495,493,494
493,182,495,493,494
492,277,495,493,494
493,438,494,494,493
492,593,495,494,494
492,733,497,494,494
491,834,496,494,494
492,831,498,493,495
493,755,497,493,495
494,584,497,493,496
494,415,496,493,496
494,253,496,493,496
495,150,497,493,495
493,160,495,493,493
492,208,495,493,495
493,343,495,493,493
492,506,496,494,494
491,658,495,494,493
490,775,497,494,494
492,843,496,494,494
493,814,495,493,495
493,686,496,493,495
494,508,497,493,496
493,344,497,493,496
494,195,496,493,496
493,146,496,493,494
493,177,496,493,494
492,258,496,493,495
492,415,495,494,494
492,571,495,494,493
491,716,495,494,493
491,825,494,494,495
492,835,495,494,495
491,771,497,493,495
493,609,496,493,495
494,436,497,493,496
495,270,497,493,497
494,151,495,493,495
492,156,496,493,495
494,197,494,493,495
493,319,495,494,494
492,486,495,493,495
491,638,495,494,494
492,766,495,494,493
491,844,494,494,494
493,820,496,494,494
493,709,495,493,496
493,532,497,493,495
493,362,499,493,496
494,211,498,493,495
494,145,497,493,494
492,170,497,493,494
492,240,494,494,494
493,392,494,493,494
492,550,495,494,494
492,697,495,494,495
491,809,494,494,495
491,836,495,494,495
493,787,496,494,495
492,633,496,493,495
493,456,497,493,495
493,295,497,493,495
494,164,495,493,494
493,151,495,493,495
492,185,496,493,494
493,301,494,493,494
492,463,495,494,495
492,613,495,494,495
492,751,493,494,494
491,840,494,494,495
492,826,496,493,494
492,731,496,493,495
493,555,498,493,495
493,388,496,493,497
494,232,496,493,496
494,145,497,493,495
492,163,495,493,496
493,223,495,493,494
492,368,495,494,494
492,528,495,494,494
492,680,496,494,494
491,798,495,494,495
491,838,496,494,495
493,803,495,494,494
492,659,496,493,495
493,482,497,493,496
494,315,497,493,495
493,178,497,493,495
493,149,497,493,495
493,182,495,493,496
492,276,496,494,494
492,440,496,494,494
492,595,496,494,494
490,734,496,494,493
491,836,495,494,494
493,831,495,494,495
493,753,496,493,495
493,582,496,493,496
493,413,497,493,496
494,250,497,493,496
494,149,496,493,496
493,160,496,493,494
492,210,494,493,495
493,346,494,494,494
491,510,494,493,494
491,659,494,494,494
491,775,493,494,494
491,842,494,494,494
492,813,497,493,495
493,682,497,493,496
494,504,497,493,496
494,339,497,493,496
495,196,496,493,495
493,147,496,493,495
492,177,495,493,496
493,258,494,493,495
492,417,495,493,494
491,572,494,494,494
491,717,494,494,493
492,825,495,494,494
491,832,496,494,495
493,769,497,493,496
493,607,497,493,496
494,433,497,493,496
494,271,497,493,496
495,150,496,493,494
493,155,495,493,495
493,198,496,493,495
493,323,494,493,494
492,487,494,493,495
491,639,495,494,494
493,764,496,494,494
492,843,495,494,494
491,819,496,493,495
493,708,497,493,496
493,531,497,493,496
494,363,497,493,496
493,211,498,493,495
494,143,496,493,495
494,171,493,493,495
494,240,495,493,494
492,394,494,493,494
492,552,494,494,494
491,699,495,494,493
490,811,495,494,495
492,837,495,494,495
492,785,495,493,495
493,631,495,493,496
493,455,496,493,495
494,290,496,493,496
493,164,496,493,494
494,151,496,493,496
493,191,495,493,494
492,304,494,493,494
493,466,495,494,494
492,619,494,494,493
491,751,496,494,494
491,841,494,494,496
492,824,495,494,495
493,728,497,493,496
493,554,497,493,496
494,385,497,493,496
495,230,496,493,496
493,145,497,493,495
494,165,493,493,495
492,226,494,493,494
492,372,494,493,493
492,532,495,493,494
491,680,495,494,495
491,798,495,494,495
493,842,495,494,496
492,802,496,493,495
492,657,496,493,496
494,479,497,493,496
494,314,496,493,496
495,177,496,493,496
494,148,496,493,493
495,183,496,493,495
493,282,494,493,494
492,443,495,494,494
491,597,494,494,494
492,735,495,494,494
492,837,495,494,495
492,829,495,494,495
492,750,496,493,495
492,581,497,493,495
494,408,498,493,495
494,246,498,493,497
494,148,496,493,494
493,160,496,493,495
492,212,495,493,495
493,347,494,494,494
491,510,494,494,494
491,661,496,494,493
490,780,494,493,493
491,841,496,494,496
491,813,497,493,495
493,679,497,493,496
494,501,497,493,497
494,336,497,493,497
494,191,497,493,495
494,144,496,493,495
492,176,494,493,494
492,261,496,493,494
492,419,497,494,494
492,577,495,494,494
491,719,495,494,493
491,827,494,494,494
491,832,494,494,495
493,768,496,493,495
493,602,496,493,495
494,431,497,493,496
494,268,497,493,496
494,151,495,493,494
493,155,494,493,494
494,196,494,493,494
491,324,496,493,495
492,490,494,494,495
492,641,494,494,494
492,768,495,494,494
491,845,495,494,495
493,821,495,494,496
493,703,497,493,496
493,528,496,493,496
494,361,496,493,496
493,209,497,493,496
493,145,495,493,495
492,171,494,493,495
493,243,495,494,495
492,395,495,494,494
493,553,495,494,494
490,702,495,494,494
491,811,494,494,494
492,837,495,494,495
492,782,496,493,496
493,628,496,493,495
493,454,497,493,495
493,289,496,493,495
494,163,495,493,496
493,152,494,493,495
492,187,496,493,494
493,306,495,493,495
491,468,494,494,494
491,619,496,494,494
492,754,497,494,494
490,841,497,494,495
492,825,496,494,494
493,728,496,493,496
493,551,497,493,496
493,380,497,493,497
494,228,497,493,496
493,144,496,493,495
494,165,496,493,494
492,226,495,493,495
493,372,495,494,495
491,533,494,493,493
491,682,495,494,493
490,798,494,494,494
491,840,496,494,494
493,800,496,494,496
493,652,497,493,496
493,475,496,493,495
495,312,497,493,496
494,177,497,493,495
493,150,495,493,495
493,185,494,493,495
493,283,494,494,494
492,446,493,494,495
491,599,494,494,494
491,739,496,494,494
491,837,494,493,494
492,830,495,494,496
493,747,496,493,496
493,577,498,493,497
493,408,496,493,496
495,248,497,493,495
494,148,497,493,496
494,162,495,493,494
492,214,494,493,494
492,349,495,493,494
491,513,494,494,494
491,664,494,494,494
492,779,494,494,494
492,843,495,494,495
492,811,495,493,496
493,677,497,493,496
493,499,497,493,495
494,334,496,493,497
494,191,497,493,496
494,146,496,493,495
494,178,496,493,494
492,259,493,494,495
492,422,494,494,494
491,579,495,494,494
491,721,494,494,494
492,830,495,494,495
491,834,496,494,494
493,767,496,493,495
493,602,497,493,496
493,428,496,493,497
494,265,496,493,496
494,150,495,493,496
493,157,495,493,494
492,198,495,493,495
492,327,495,494,494
492,493,495,494,494
493,643,494,494,495
491,769,496,494,494
491,845,497,494,495
492,819,495,494,495
493,700,497,493,496
494,524,496,493,495
494,358,497,493,496
494,209,496,493,496
494,146,495,493,495
492,173,497,493,496
493,245,494,493,495
492,399,495,494,494
491,555,494,494,494
491,703,495,494,493
492,812,497,494,495
491,837,498,494,495
493,782,497,493,495
493,626,496,493,495
493,450,497,493,495
494,287,496,493,496
495,161,494,493,496
492,152,495,493,495
492,192,493,493,494
493,306,494,493,494
491,469,494,494,494
492,623,495,494,494
491,754,495,493,494
490,844,495,494,494
493,824,496,494,495
493,723,497,493,496
493,550,496,493,496
494,379,496,493,495
495,224,497,493,495
494,143,495,493,495
494,168,496,493,495
493,229,495,494,494
492,373,494,493,494
492,537,495,493,493
492,686,495,494,494
493,800,494,494,494
491,842,495,494,494
492,800,496,493,495
492,651,497,493,495
494,475,496,493,495
494,307,497,493,496
495,171,496,493,495
495,149,494,493,494
494,184,496,493,496
492,284,496,493,494
491,449,495,493,493
492,600,495,494,494
492,738,496,494,492
491,839,496,494,495
492,829,496,494,495
493,744,497,493,495
493,574,497,493,495
493,402,497,493,496
494,244,495,493,496
494,149,496,493,496
493,160,495,493,495
494,217,495,493,494
492,354,495,493,494
492,514,495,493,494
491,664,495,494,494
491,782,495,494,495
491,842,497,494,495
491,810,496,494,495
493,674,496,493,496
494,496,496,493,495
493,330,497,493,496
495,190,495,493,495
494,144,495,493,495
492,178,494,493,493
492,266,495,493,495
492,423,495,494,494
492,580,495,494,493
491,723,494,494,493
491,828,496,494,494
492,833,495,494,495
493,764,497,493,495
492,599,497,493,496
494,425,496,493,495
494,264,497,493,496
493,148,495,493,494
493,155,495,493,494
492,201,495,493,495
492,327,495,493,494
491,493,495,494,494
492,646,495,494,494
492,770,494,494,494
492,844,494,494,494
493,819,495,493,495
493,699,496,493,495
493,521,497,493,495
493,356,497,493,496
494,206,496,493,495
493,146,496,493,495
493,172,495,493,496
492,246,495,493,495
492,402,494,494,494
491,560,495,494,494
491,706,495,494,493
489,815,494,494,494
492,834,495,494,494
492,779,495,493,495
492,623,496,493,496
494,447,496,493,496
493,284,498,493,496
493,161,496,493,495
494,154,496,493,494
493,191,496,493,494
493,307,494,493,494
491,473,495,493,493
492,625,495,493,494
491,757,494,494,495
491,844,495,494,495
491,824,496,493,495
493,721,497,493,496
494,548,498,493,496
494,378,497,493,496
494,225,495,493,496
494,146,494,493,495
492,167,494,493,495
493,230,494,494,494
493,377,494,494,494
491,538,494,494,494
491,686,494,494,494
492,805,494,494,495
492,839,495,494,495
492,799,496,494,495
493,650,496,493,495
494,473,497,493,496
494,306,497,493,496
494,174,496,493,495
493,149,495,493,496
493,186,494,494,494
493,288,494,493,494
491,449,494,494,494
492,603,495,494,493
492,743,495,494,493
491,837,496,494,494
493,827,496,494,496
493,742,497,493,495
494,572,497,493,496
493,401,496,493,496
495,241,496,493,496
494,147,496,493,495
492,161,495,493,496
495,218,495,493,494
493,355,494,493,494
493,519,495,494,494
491,670,494,494,493
491,786,495,494,494
492,838,495,494,495
493,810,495,494,495
493,672,496,493,495
493,494,496,493,495
494,327,497,493,496
494,187,496,493,496
493,145,495,493,493
494,180,495,493,494
494,269,495,493,495
492,429,495,493,493
491,584,495,494,494
490,726,495,494,493
490,829,496,494,494
491,833,495,494,495
493,763,496,493,495
494,596,497,493,496
493,424,496,493,495
494,262,497,493,496
493,147,496,493,494
493,157,493,493,494
493,200,495,493,495
492,332,495,493,494
492,495,495,493,493
492,647,495,494,494
491,772,495,493,494
492,844,495,494,494
492,817,496,494,495
493,696,496,493,496
493,519,497,493,496
494,353,497,493,496
494,203,496,493,496
492,145,494,493,494
494,172,495,493,494
492,248,494,493,494
492,403,495,493,494
491,560,494,494,493
492,707,495,494,493
492,818,494,494,494
492,836,495,494,494
493,778,496,493,495
493,621,496,493,496
494,444,497,493,496
494,281,496,493,495
494,156,497,493,495
493,152,495,493,496
493,190,496,493,495
492,311,495,493,493
491,475,494,494,494
491,628,495,494,494
492,757,494,494,494
490,842,496,494,494
492,823,497,494,495
493,719,497,493,495
493,543,496,493,496
493,373,496,493,496
495,222,495,493,496
493,146,496,493,494
492,165,494,493,495
493,232,495,494,494
493,381,495,493,495
491,539,495,493,494
491,689,494,494,494
491,803,494,494,495
491,838,496,494,494
491,796,496,494,494
493,646,496,493,495
494,468,496,493,495
495,304,497,493,495
494,172,496,493,496
493,150,495,493,496
492,186,495,493,495
492,289,495,493,493
492,452,494,494,494
492,605,495,494,494
491,742,495,494,493
491,840,497,494,495
492,826,498,494,494
492,740,498,493,495
493,568,496,493,496
494,398,496,493,496
494,240,495,493,496
494,146,494,493,495
495,163,493,493,494
493,216,494,493,494
491,356,493,494,494
492,520,494,494,493
490,669,495,494,493
492,788,494,494,495
492,840,494,494,494
492,808,497,494,495
493,670,495,493,495
494,492,495,493,496
493,326,497,493,496
495,184,496,493,495
493,147,494,493,495
493,179,496,493,495
492,268,494,494,493
492,430,494,494,493
492,587,494,494,494
492,729,494,494,493
492,834,496,494,493
490,832,496,494,495
492,761,495,493,495
493,594,497,493,495
494,422,497,493,495
493,260,496,493,496
494,148,495,493,493
494,159,495,493,494
494,202,494,493,495
492,336,494,493,493
491,499,494,494,494
492,651,494,494,494
492,772,494,494,494
491,843,495,494,494
493,816,495,494,495
493,693,497,493,496
493,516,496,493,496
494,351,496,493,496
494,203,496,493,496
494,145,494,493,495
493,175,496,493,494
493,251,495,493,494
492,407,495,493,494
491,563,495,494,494
491,708,494,494,493
491,817,495,494,495
491,835,496,494,495
492,776,496,493,495
492,619,497,493,496
494,443,497,493,496
494,279,497,493,495
495,155,496,493,495
494,152,495,493,495
494,194,496,493,495
493,312,494,494,493
492,475,494,494,493
492,630,494,494,494
491,761,494,494,494
491,844,496,494,494
492,824,497,493,494
493,718,496,493,496
493,542,497,493,495
493,371,497,493,496
494,218,494,493,495
493,145,495,493,494
493,169,494,493,494
491,232,493,493,494
492,382,494,494,493
492,543,494,494,494
491,692,494,494,494
490,807,494,494,493
491,839,496,494,494
492,793,496,494,496
493,643,497,493,496
493,466,496,493,496
494,301,496,493,496
495,170,495,493,495
493,151,493,493,493
493,185,494,493,494
492,294,494,493,494
491,456,493,494,493
491,609,495,494,493
492,744,494,494,493
491,838,495,494,494
492,825,495,494,495
493,737,495,493,495
492,564,496,493,495
493,395,496,493,495
494,238,496,493,496
493,147,495,493,494
492,163,494,493,494
492,221,495,493,494
492,360,494,494,494
492,522,494,494,494
492,671,494,494,495
491,789,495,494,494
492,840,495,494,494
493,807,495,494,495
492,665,496,493,496
494,490,495,493,495
495,323,497,493,495
494,184,496,493,495
493,147,494,493,495
493,177,496,493,494
493,272,494,494,494
492,432,494,494,494
492,589,494,494,494
491,731,495,494,494
492,834,495,494,493
491,830,494,494,494
493,758,496,493,495
492,591,496,493,496
493,420,495,493,496
494,255,496,493,496
494,149,496,493,494
494,158,496,493,495
493,203,496,493,494
492,338,494,493,493
493,502,494,494,493
492,652,494,494,493
492,774,495,494,494
492,841,496,494,494
491,816,495,494,494
492,691,496,493,495
494,512,495,493,495
494,346,496,493,496
494,201,495,493,495
493,146,494,493,495
493,176,496,493,494
492,253,494,493,494
492,412,494,493,493
492,567,495,494,494
492,710,494,494,494
491,820,495,494,495
491,835,496,494,494
492,773,497,493,495
493,615,497,493,496
494,441,497,493,496
494,277,496,493,495
494,155,496,493,495
493,152,494,493,495
493,194,495,493,493
494,315,495,493,493
490,478,492,494,495
492,627,494,494,494
492,759,494,494,492
491,840,495,494,495
490,824,496,494,494
492,713,496,493,495
493,535,497,494,496
494,365,496,493,496
494,212,495,493,495
493,147,495,493,495
492,170,494,493,494
492,228,494,493,495
492,346,494,494,495
491,472,494,494,494
490,666,493,494,494
492,828,492,494,493
494,846,496,494,492
490,813,498,494,494
494,622,496,493,496
495,399,497,493,496
494,257,496,493,494
494,189,496,493,495
493,172,494,493,496
494,205,496,493,494
492,294,495,493,494
490,413,493,493,493
491,550,494,494,493
492,760,495,494,493
492,867,494,494,494
490,855,494,494,495
492,747,495,493,497
495,529,494,493,497
493,330,495,493,494
495,228,495,493,494
493,181,496,493,496
493,194,496,493,496
495,242,494,493,495
490,346,495,494,493
491,466,496,494,494
493,652,496,494,495
491,827,496,494,496
493,875,496,494,496
490,833,493,493,496
492,692,496,493,495
495,432,497,493,497
496,273,496,493,495
493,204,498,493,494
492,178,497,493,496
495,206,493,493,496
492,284,492,494,496
493,400,494,494,494
492,560,493,494,495
493,733,493,494,493
493,867,495,494,496
493,861,496,494,496
494,770,496,493,495
492,564,494,493,496
492,391,497,493,497
495,233,494,493,496
493,181,494,493,493
494,182,496,493,494
494,224,495,494,495
493,327,495,494,496
493,458,493,494,495
490,617,494,494,493
491,807,493,494,496
490,873,496,494,495
491,837,494,493,494
493,687,496,493,495
494,487,496,493,495
494,321,497,493,496
494,204,495,493,496
492,171,495,493,494
492,198,494,493,495
494,268,494,493,494
491,410,495,494,494
492,562,493,494,494
492,708,493,494,493
490,842,496,494,494
491,855,495,494,494
492,785,496,493,496
492,607,496,493,496
494,422,496,493,496
494,256,496,493,495
493,171,496,493,495
493,171,495,493,496
492,211,493,493,496
492,308,494,494,495
492,454,494,493,494
492,605,495,494,495
492,776,494,494,495
492,864,495,494,495
492,840,496,493,495
493,710,496,493,496
494,493,496,493,496
495,323,496,493,495
494,212,496,493,495
493,171,495,493,495
493,195,496,493,495
493,252,495,493,494
492,363,494,494,494
492,503,494,494,494
492,680,493,494,495
492,839,494,494,495
491,866,495,493,495
493,809,496,493,495
493,624,497,493,496
494,420,497,493,496
494,261,495,493,495
493,191,495,493,495
493,180,494,493,495
494,210,495,493,494
493,298,495,494,494
492,432,494,494,495
492,585,494,494,495
489,760,495,494,495
491,868,495,494,494
492,849,495,494,495
492,739,497,493,496
493,541,497,493,496
494,366,497,493,496
495,218,495,493,495
494,172,495,493,494
493,186,493,493,496
493,238,495,493,495
493,351,494,493,494
492,504,495,494,494
491,654,493,494,493
493,821,494,494,494
492,866,496,494,495
491,824,495,494,496
493,653,496,493,496
494,451,495,493,496
494,284,496,493,496
494,195,494,493,495
494,175,495,493,494
491,202,496,493,495
493,282,494,493,494
492,404,494,493,494
492,558,494,494,494
492,736,493,494,493
491,862,494,494,494
492,855,496,494,496
493,768,497,493,496
493,557,496,493,496
493,373,497,493,496
495,234,495,493,495
493,181,495,493,495
493,189,495,493,495
494,230,494,493,494
492,332,495,493,494
493,470,494,493,494
493,627,494,494,494
492,807,494,494,494
491,871,494,494,495
491,838,495,493,495
493,684,495,493,496
494,474,495,493,497
495,310,496,493,497
494,203,496,493,495
493,175,495,493,495
492,202,493,493,494
492,268,495,493,494
493,389,495,494,495
492,543,494,494,494
492,708,494,494,494
491,853,494,494,494
492,859,495,494,495
493,787,496,493,496
493,590,496,493,496
495,402,495,493,496
494,241,494,493,495
493,182,495,494,495
493,182,495,493,496
493,219,494,493,495
492,311,494,493,495
492,452,494,494,494
492,607,494,494,494
490,788,495,494,494
492,871,495,494,496
492,843,495,493,495
493,711,496,493,497
494,497,495,493,497
494,327,496,493,497
494,212,495,493,496
493,175,494,493,495
492,197,493,493,494
492,255,494,493,495
492,367,493,493,495
491,516,495,494,494
492,683,496,494,493
490,839,494,494,495
491,863,495,493,494
492,805,495,493,496
493,618,496,493,496
494,419,496,493,495
494,259,495,493,495
494,191,495,493,496
493,181,494,493,495
494,214,494,493,495
493,299,495,493,495
492,431,493,494,494
492,585,494,494,495
493,764,493,494,494
491,869,496,494,494
491,848,495,493,494
493,737,496,493,496
494,526,497,493,497
494,352,497,493,496
494,219,497,493,495
494,174,496,493,495
494,192,494,493,495
492,243,493,494,495
493,349,493,494,494
492,498,493,494,495
492,654,494,494,494
490,827,494,494,495
492,865,495,494,495
492,824,495,493,495
494,651,497,493,496
495,448,496,493,496
494,283,496,493,495
494,194,495,493,495
493,175,493,493,495
494,206,492,493,495
492,285,494,493,494
493,410,494,494,495
492,563,494,494,494
492,742,494,494,494
492,864,494,494,495
492,854,495,493,495
493,764,496,493,497
494,553,497,493,496
494,372,497,493,497
494,229,497,493,495
494,180,495,493,496
492,189,494,493,495
493,232,494,493,495
492,333,493,493,494
493,477,493,494,493
491,632,494,494,494
490,810,495,494,494
492,871,495,494,494
492,836,495,493,496
492,680,495,493,496
494,469,496,493,496
494,302,496,493,496
494,203,495,493,495
493,175,495,493,495
493,201,494,493,495
492,269,494,493,496
493,391,494,493,494
492,543,493,493,494
491,712,495,494,493
490,854,495,494,495
491,858,494,494,494
493,784,496,493,496
493,583,496,493,496
494,398,496,493,496
495,240,496,493,495
494,182,494,493,494
493,183,494,493,496
494,223,494,493,495
492,317,495,493,494
492,456,495,493,494
492,609,494,494,495
490,790,494,494,494
490,871,495,494,495
491,843,495,493,495
492,709,496,493,496
494,495,496,493,495
494,325,496,493,497
496,210,494,493,496
493,172,495,493,495
494,197,495,493,496
493,255,493,493,495
492,370,494,494,495
491,519,494,494,494
493,687,494,494,493
491,841,496,494,494
492,863,496,494,495
492,803,497,493,496
494,616,497,493,495
494,416,495,493,496
494,257,495,493,496
494,189,496,493,496
493,179,494,493,496
493,213,494,493,495
493,301,494,493,495
493,434,493,494,494
492,588,492,494,494
491,765,494,494,494
492,868,495,494,495
491,848,495,494,494
492,734,496,493,496
493,521,497,493,496
494,347,496,493,497
492,219,494,493,496
493,176,494,493,496
493,190,495,493,495
492,243,493,493,495
492,354,494,494,494
491,501,494,494,494
491,657,495,494,492
490,827,494,494,495
491,868,496,493,494
492,824,496,493,496
493,646,497,493,496
493,443,497,493,496
493,280,496,493,495
494,194,494,493,495
493,176,494,493,495
494,207,495,493,494
493,287,494,493,494
493,414,494,493,494
492,565,493,494,494
491,740,494,494,493
493,863,494,494,494
491,851,496,494,496
491,761,497,493,496
492,551,495,493,497
494,367,496,493,497
495,228,496,493,495
493,178,496,493,495
494,187,496,493,494
492,231,494,493,495
494,333,496,493,495
493,473,494,494,495
490,629,492,494,494
490,812,494,494,494
491,870,493,494,496
493,834,494,494,495
493,676,496,493,496
494,460,496,493,496
494,296,496,493,496
495,204,494,493,494
493,176,495,493,495
492,203,494,493,494
492,272,494,493,494
492,393,494,493,494
492,548,494,494,494
493,720,494,494,494
490,858,494,494,494
491,859,494,494,494
493,784,496,493,496
493,581,496,493,496
494,396,495,493,496
493,239,496,493,495
493,182,495,493,495
494,185,494,493,494
494,223,494,493,495
493,319,494,494,495
492,464,494,493,493
492,616,494,494,495
490,790,493,494,493
492,871,495,494,494
492,842,497,493,495
492,702,496,493,496
494,493,496,493,495
494,325,495,493,497
494,207,494,493,496
494,173,494,493,494
492,197,494,493,495
493,256,493,493,494
492,372,494,494,494
494,521,494,494,494
490,688,495,494,493
490,843,495,494,495
492,861,494,494,495
492,799,496,493,495
494,611,496,493,496
494,413,495,493,495
494,252,494,493,495
495,186,492,493,494
493,180,495,493,494
493,215,495,493,494
492,304,494,493,494
492,431,494,493,494
492,587,495,494,492
490,772,495,494,493
491,870,495,494,495
492,849,494,494,495
492,734,496,493,496
494,518,496,493,495
494,338,496,493,495
493,218,495,493,496
493,176,496,493,494
492,191,495,493,495
493,246,495,493,494
492,355,494,494,493
491,501,495,493,494
492,662,493,494,495
490,832,494,494,493
491,867,495,494,495
491,820,494,493,496
494,643,496,493,495
494,441,496,493,496
493,277,497,493,495
493,194,495,493,496
491,178,493,493,496
493,208,492,493,495
494,288,493,493,494
491,419,494,494,494
491,571,494,494,495
490,742,494,494,494
490,863,495,494,494
492,852,495,494,495
492,757,496,493,496
494,545,495,493,495
494,369,495,493,496
493,228,495,493,495
494,179,495,493,494
494,186,495,493,495
492,236,495,493,494
493,338,493,493,494
492,478,494,494,493
492,633,495,494,494
490,812,494,494,494
492,870,495,494,495
492,833,495,494,495
492,669,496,493,496
493,461,496,493,496
494,296,494,493,495
493,201,496,493,494
493,174,496,493,495
494,202,496,493,495
492,274,495,493,493
493,392,494,493,494
492,547,495,493,493
490,721,495,494,494
489,859,495,494,494
492,859,496,493,494
493,781,496,493,495
492,577,496,493,495
494,389,493,493,496
494,237,493,493,495
495,182,494,493,495
493,184,494,493,495
494,223,494,493,495
493,320,494,494,494
493,461,493,493,494
491,615,494,494,494
492,796,494,494,494
491,872,494,494,495
491,842,495,493,495
493,701,495,493,495
493,488,495,493,496
494,321,495,493,496
494,208,494,493,495
494,174,495,493,493
495,196,496,493,493
494,261,495,493,494
492,377,493,493,493
493,526,493,493,493
492,694,492,494,493
491,844,494,494,494
491,862,496,494,495
493,796,496,493,496
493,607,496,493,496
494,408,496,493,496
494,248,494,493,496
493,188,495,493,494
494,181,495,493,496
494,216,496,493,494
492,308,494,493,495
492,434,494,493,494
492,589,494,494,493
491,775,493,494,494
491,869,495,493,495
492,849,494,493,496
491,728,496,493,495
494,515,496,493,495
494,339,496,493,495
493,217,495,493,495
493,175,495,493,495
494,195,495,493,495
492,249,493,493,494
493,357,494,493,495
492,504,495,493,494
491,668,495,494,493
491,835,494,494,495
493,868,495,494,495
491,821,495,493,495
493,641,496,493,496
495,439,496,493,496
494,276,494,493,495
494,193,495,493,495
493,177,495,493,494
493,209,495,493,496
492,291,493,493,494
491,420,493,494,494
492,573,494,494,493
490,747,492,494,493
491,865,494,493,494
492,852,495,494,494
492,754,495,493,495
494,543,496,493,496
494,364,496,493,497
494,225,495,493,495
493,179,494,493,495
492,189,495,493,494
492,237,495,493,494
493,341,493,493,494
491,484,494,494,494
491,638,493,494,495
491,816,493,494,493
491,869,495,493,495
493,832,496,493,495
492,669,497,493,495
494,458,497,493,495
494,291,495,493,495
494,200,495,493,495
493,175,494,493,494
492,203,493,493,494
493,277,493,493,494
493,397,493,493,494
492,548,494,494,493
490,723,494,494,493
491,862,494,494,493
491,858,495,494,495
492,776,495,493,495
495,574,496,493,496
494,388,496,493,495
494,237,494,493,495
493,182,494,493,495
494,186,493,493,495
494,223,494,493,495
493,323,493,493,495
492,464,494,494,494
492,618,494,494,492
491,798,493,494,493
490,873,494,494,494
492,841,495,493,496
493,698,496,493,496
493,486,496,493,496
494,317,496,493,495
495,205,495,493,496
493,174,495,493,494
493,198,495,493,494
493,261,493,493,494
492,376,493,493,494
492,528,494,494,494
492,698,495,494,494
491,844,494,494,495
492,861,494,493,495
491,797,495,493,495
493,603,495,493,496
493,407,495,493,496
494,248,495,493,495
493,185,494,493,494
493,182,496,493,494
494,217,495,493,494
492,308,495,493,494
493,440,495,493,493
491,597,495,493,493
490,776,495,494,494
491,870,494,494,494
492,847,495,494,496
492,724,496,493,496
493,511,496,493,496
494,337,495,493,496
493,216,495,493,495
493,174,494,493,494
493,194,494,493,494
492,247,495,494,495
492,357,493,493,494
492,506,494,494,494
491,668,493,494,493
491,835,494,494,494
492,865,496,493,495
491,815,495,493,495
492,635,495,493,495
493,434,496,493,495
494,272,496,493,495
494,191,494,493,494
494,177,494,493,494
493,210,493,493,494
493,293,494,493,494
492,422,494,493,494
491,574,494,494,494
491,750,493,494,494
492,867,495,494,494
491,851,495,493,496
492,751,496,493,496
493,540,496,493,496
494,362,496,493,495
494,225,494,493,495
493,178,495,493,494
494,189,494,493,493
492,238,494,493,494
492,342,494,493,493
491,487,494,493,494
492,643,494,494,492
490,818,494,494,494
491,868,495,494,494
491,830,495,494,494
493,666,497,493,496
495,456,495,493,495
493,290,496,493,495
493,198,495,493,496
492,175,494,493,494
492,205,495,493,495
492,277,495,493,493
493,400,495,493,495
492,554,496,494,493
491,727,494,494,494
491,860,495,494,495
492,857,496,494,494
492,775,494,493,495
493,567,494,493,496
494,386,495,493,496
494,236,495,493,495
494,180,495,493,495
493,183,494,493,495
492,226,495,493,495
493,324,494,493,494
493,467,493,494,495
491,621,494,494,493
489,798,494,494,494
491,872,494,494,494
492,839,494,493,494
492,693,495,493,496
494,484,495,493,496
494,316,495,493,495
493,207,495,493,495
492,173,494,493,495
494,198,493,493,495
493,263,493,493,495
493,381,494,494,493
491,532,495,494,494
491,698,494,494,494
492,845,495,494,495
492,860,496,494,494
492,792,496,493,495
492,600,496,493,495
493,406,496,493,495
494,246,496,493,495
493,185,495,493,494
493,181,494,493,493
492,217,495,493,494
492,308,495,494,495
492,444,494,494,494
491,599,494,494,494
490,777,493,494,493
491,872,495,494,495
492,844,494,494,495
492,723,496,493,496
493,508,496,493,495
494,334,496,493,496
493,214,494,493,495
494,175,494,493,494
493,195,495,493,495
493,250,493,493,495
492,362,494,493,493
492,511,493,494,494
492,673,492,494,495
490,836,493,494,494
491,865,495,494,495
491,814,495,493,495
493,629,497,493,496
493,429,497,493,495
494,268,498,493,496
493,194,497,493,495
494,178,495,493,495
494,212,496,493,495
493,294,492,494,494
492,425,491,494,494
491,577,492,494,493
491,752,492,494,493
491,866,493,494,494
493,852,493,494,495
491,747,495,493,496
494,536,496,493,495
493,361,495,493,495
494,224,494,493,495
494,175,495,493,494
493,189,495,493,494
492,239,495,493,495
492,344,494,494,493
491,490,494,494,494
491,645,494,494,494
490,822,494,494,494
491,871,495,493,494
492,830,495,493,495
493,660,496,493,497
495,455,496,493,496
494,288,496,493,495
493,198,495,493,495
493,177,494,493,494
493,204,493,493,495
493,278,493,493,494
492,402,493,493,493
492,557,493,494,493
492,730,494,494,493
491,861,494,494,495
492,855,494,493,495
493,773,495,493,495
493,565,496,493,495
494,383,496,493,496
493,231,494,493,495
493,180,495,493,495
493,184,494,493,495
492,228,495,493,496
491,327,494,493,494
492,469,493,494,494
491,623,494,494,494
489,801,494,494,495
490,871,495,493,493
491,837,494,494,494
493,690,496,493,495
494,479,496,493,495
494,312,497,493,495
494,206,496,493,494
493,175,495,493,494
493,200,493,493,494
492,265,494,493,494
493,383,493,494,493
492,533,493,494,494
491,700,492,494,493
491,849,493,494,495
491,860,495,494,495
492,789,495,493,495
493,594,495,493,496
493,405,495,493,495
494,245,496,493,495
494,183,494,493,494
493,181,493,493,494
492,217,494,493,494
493,312,494,494,494
492,447,494,494,494
491,601,493,494,493
490,780,494,494,494
491,870,494,494,494
491,846,495,493,494
493,719,496,493,496
493,504,496,493,495
493,332,495,493,495
492,212,494,493,495
492,173,494,493,494
492,193,493,493,494
493,251,495,493,495
491,362,495,493,495
492,511,494,493,493
492,677,494,494,493
490,838,493,494,495
491,865,495,494,494
492,811,495,493,495
492,627,495,493,495
493,427,496,493,495
494,265,495,493,495
492,191,496,493,495
492,178,495,493,494
493,212,494,493,494
492,294,493,493,494
492,428,495,493,494
492,581,493,493,493
492,755,493,494,494
490,865,494,494,495
492,850,495,494,494
492,744,495,493,495
493,533,495,493,496
494,357,495,493,496
493,221,494,493,495
493,176,495,493,494
492,190,495,493,496
493,238,494,493,494
492,347,494,493,495
492,492,494,494,494
492,647,494,494,492
491,822,492,494,494
491,868,494,494,495
491,828,495,493,495
493,657,495,493,495
494,452,495,493,495
494,288,496,493,494
493,198,496,493,495
493,175,495,493,494
492,206,494,493,495
492,282,494,493,494
492,405,494,494,493
492,557,492,494,493
491,732,493,494,495
491,861,494,494,495
492,853,493,494,495
492,768,496,494,495
493,561,496,493,495
494,379,496,493,495
495,233,495,493,495
494,179,494,493,495
493,186,496,493,494
492,229,493,493,495
492,331,492,494,494
492,471,493,494,494
491,626,494,494,493
490,806,494,494,494
492,871,495,494,495
491,838,494,493,495
493,687,496,493,495
493,475,496,493,496
494,308,495,493,496
494,203,495,493,495
493,173,493,493,494
492,201,495,493,494
492,267,494,494,494
492,385,493,494,494
492,538,493,494,494
491,706,492,494,494
490,849,494,494,495
491,860,493,494,495
492,788,495,493,495
492,591,496,493,496
493,402,495,493,495
493,243,495,493,496
493,181,494,493,495
493,181,494,493,494
492,219,494,493,494
492,313,494,493,495
493,451,494,494,494
492,604,492,494,494
490,783,495,494,494
492,870,495,494,494
491,845,496,493,495
492,714,496,493,496
494,499,496,493,496
493,330,495,493,495
494,212,493,493,494
495,171,495,493,494
493,196,493,493,494
492,251,493,493,494
492,365,494,494,494
492,510,493,494,493
491,679,494,494,494
491,841,494,494,495
490,864,495,494,494
492,807,495,493,495
493,623,495,493,495
493,419,496,493,496
494,258,494,493,495
493,191,495,493,495
493,179,495,493,496
492,210,496,493,496
492,296,492,494,494
492,427,493,494,494
491,580,494,494,495
491,762,493,494,494
491,869,494,494,494
491,848,494,494,495
493,742,495,493,496
494,529,495,493,496
493,352,495,493,496
494,220,495,493,495
493,176,495,493,494
492,191,495,493,496
494,241,496,493,494
491,349,494,494,494
492,497,493,494,494
492,652,492,494,493
491,825,494,494,494
491,867,494,494,496
493,826,495,493,496
492,652,496,493,496
493,449,496,493,496
493,287,495,493,495
494,197,494,493,495
493,176,493,493,495
494,207,493,493,494
492,283,494,493,495
492,408,494,493,494
492,561,494,494,493
492,735,493,494,494
491,863,494,494,494
492,856,495,494,494
492,766,495,493,496
493,556,496,493,496
494,376,495,493,495
495,232,495,493,495
494,179,494,493,494
493,186,494,493,494
493,229,494,493,494
493,333,494,493,494
491,472,493,494,494
491,627,493,494,495
489,805,494,494,494
492,871,495,494,494
492,837,494,494,495
493,683,495,493,495
494,472,495,493,496
493,304,495,493,495
493,203,494,493,496
492,175,495,493,495
492,199,494,493,495
492,280,494,494,494
492,436,493,493,495
492,592,495,493,495
490,734,494,493,493
490,836,494,493,495
492,844,495,494,494
492,777,496,493,495
492,615,495,493,495
493,443,495,493,495
494,277,496,493,495
494,159,496,493,495
493,159,493,493,495
493,200,493,493,494
493,327,493,494,494
492,490,493,494,494
491,644,494,494,495
492,770,493,494,494
491,845,493,494,495
492,821,494,493,495
492,708,496,493,495
493,533,495,493,496
494,365,496,493,496
494,215,496,493,496
493,144,494,493,496
493,171,493,493,494
493,239,494,493,494
491,395,494,494,494
491,553,494,494,495
492,701,495,494,495
492,807,493,494,495
491,837,494,494,496
492,786,495,493,494
493,631,496,493,496
494,458,495,493,496
493,296,494,493,495
493,169,494,493,494
492,151,494,493,495
492,190,494,493,494
492,301,493,493,494
492,465,494,494,493
491,617,494,493,494
490,754,495,494,494
492,840,494,494,494
492,824,494,494,494
493,727,495,493,496
493,556,496,493,495
493,387,495,493,496
494,230,495,493,495
493,142,494,493,494
493,165,492,493,495
492,223,494,493,494
492,369,493,494,494
491,531,494,494,495
492,685,494,494,494
492,795,493,494,495
491,838,495,494,495
491,802,494,493,496
493,655,495,493,496
493,480,495,493,496
494,316,496,493,496
494,180,495,493,496
492,146,494,493,495
492,182,494,493,494
492,280,494,494,494
492,442,493,493,494
491,596,494,494,494
491,738,494,494,495
490,833,493,494,496
491,828,495,493,495
493,748,495,493,495
493,579,496,493,495
494,410,496,493,496
494,252,498,493,496
494,147,495,493,495
494,160,493,493,495
492,209,493,494,495
490,347,493,494,494
492,512,493,494,494
490,662,494,494,494
490,782,493,494,495
490,842,496,494,495
492,809,494,494,495
493,677,493,493,495
493,501,494,493,496
494,339,495,493,496
494,195,495,493,496
494,143,495,493,494
493,174,495,493,494
492,260,495,493,494
492,417,493,494,495
492,573,493,494,495
492,717,494,494,493
491,825,494,494,495
493,832,494,494,496
493,767,495,493,495
492,603,495,493,496
493,431,495,493,496
495,268,495,493,496
494,150,495,493,495
494,156,494,493,496
494,196,493,493,494
492,323,495,494,494
492,488,493,494,494
491,642,494,494,493
492,766,494,494,494
491,845,495,494,494
493,821,495,493,495
493,705,495,493,495
493,528,496,493,495
493,361,495,493,496
494,210,496,493,496
493,143,494,493,494
492,169,494,493,494
492,241,494,494,493
491,395,493,493,494
492,554,494,494,494
491,701,494,494,495
492,813,494,494,495
493,837,494,494,496
492,782,495,493,495
493,628,495,493,496
493,451,495,493,496
494,287,495,493,496
493,162,495,493,494
493,150,494,493,496
493,187,495,493,495
493,304,495,493,494
491,468,493,494,494
492,620,493,494,494
492,753,495,494,494
492,843,495,494,494
493,825,494,493,495
492,726,496,493,495
493,551,494,493,496
493,381,495,493,495
494,225,496,493,495
494,145,494,493,495
492,165,495,493,496
492,227,495,493,495
493,372,494,493,493
491,533,495,494,493
491,682,494,494,494
490,802,492,494,495
491,839,495,494,495
491,799,494,493,495
492,654,494,493,495
493,477,494,493,495
494,312,496,493,495
494,176,494,493,495
492,147,495,493,494
493,182,493,493,495
492,284,494,493,493
493,445,494,494,494
491,598,493,494,494
491,739,492,494,494
491,835,492,494,494
491,828,493,494,495
492,747,495,493,495
493,576,495,493,496
493,404,495,493,495
494,246,495,493,496
494,146,495,493,494
493,160,495,493,494
492,214,494,493,495
492,349,493,493,494
492,515,494,493,494
491,666,493,494,493
492,780,493,494,495
492,840,495,493,494
492,811,496,493,495
493,676,496,493,495
493,498,495,493,496
494,333,494,493,495
495,189,495,493,495
492,147,494,493,494
494,177,494,493,494
492,263,494,493,495
492,422,493,494,494
491,579,494,494,494
490,722,494,494,495
492,826,496,494,495
492,833,495,494,495
492,764,495,493,495
492,598,494,493,495
493,427,495,493,495
494,266,496,493,496
494,151,495,493,495
494,157,492,493,494
494,199,492,493,495
491,328,493,494,493
492,491,494,494,493
491,641,493,494,493
492,769,492,494,493
491,843,494,494,495
491,816,495,493,494
492,700,496,493,495
494,525,495,493,495
493,356,495,493,496
494,206,495,493,496
494,143,493,493,496
494,171,493,493,495
492,247,493,493,494
492,399,493,494,494
491,557,494,494,494
491,705,494,494,494
490,814,493,494,494
491,836,494,494,495
492,781,495,493,495
492,626,495,493,495
493,447,496,493,496
493,284,495,493,496
495,160,495,493,495
493,151,493,493,496
494,191,494,493,494
492,308,493,494,494
491,469,493,494,494
491,624,494,494,493
491,756,495,494,495
491,841,495,494,494
491,824,495,494,495
493,723,495,493,495
494,548,495,493,496
493,378,494,493,495
494,225,494,493,496
494,146,495,493,494
493,166,493,493,494
492,230,493,493,494
492,376,493,493,493
492,538,494,494,494
491,686,494,494,493
492,801,493,494,494
491,838,494,494,494
492,798,495,494,494
493,647,495,493,496
493,473,495,493,495
495,308,495,493,496
494,174,494,493,495
494,150,494,493,494
492,183,493,493,494
492,286,493,494,494
492,447,494,494,494
492,603,493,494,493
492,740,495,494,493
492,839,495,494,494
491,830,494,493,495
492,744,495,493,496
493,573,495,493,496
493,404,496,493,496
494,245,496,493,496
493,148,495,493,494
494,163,492,493,495
492,217,495,493,494
493,354,494,493,494
492,516,494,493,493
491,666,494,494,494
492,785,495,494,494
492,842,495,494,493
492,809,497,493,495
493,673,497,493,494
493,496,494,493,495
493,329,494,493,496
494,187,493,493,495
493,147,494,493,493
494,176,493,493,495
492,265,493,494,493
492,425,493,494,494
492,582,493,494,493
491,727,493,494,494
491,830,494,494,495
490,833,494,494,496
492,763,495,493,496
493,596,495,493,496
494,422,495,493,495
494,261,494,493,495
494,150,493,493,494
493,156,492,493,493
493,199,493,493,495
492,331,493,494,494
492,496,494,494,494
491,647,493,494,493
492,770,492,494,494
491,842,495,494,495
491,818,494,494,495
493,696,495,493,495
493,520,495,493,495
494,354,495,493,496
494,207,496,493,495
494,145,493,493,494
493,172,493,493,495
493,247,493,493,495
492,404,494,494,494
491,559,493,494,493
492,707,493,494,493
492,814,492,494,494
492,835,495,494,495
493,778,495,493,495
493,621,494,493,495
493,447,495,493,495
494,283,496,493,495
494,158,495,493,496
494,153,493,493,494
493,191,494,493,494
492,310,493,494,494
491,471,492,494,494
492,627,493,494,493
491,758,495,494,493
491,843,494,494,495
492,822,495,494,495
493,719,496,493,495
493,545,496,493,496
493,375,496,493,495
494,220,495,493,496
494,145,494,493,494
492,168,493,493,494
493,229,494,493,494
492,380,494,494,494
492,540,494,494,494
491,687,493,494,493
490,803,495,494,494
493,837,495,494,495
492,796,496,493,495
492,647,496,493,495
493,468,496,493,495
494,303,496,493,495
494,171,493,493,495
494,151,492,493,494
493,183,495,493,495
492,289,494,493,493
493,454,493,494,493
492,605,493,494,494
491,743,493,494,495
492,839,493,494,494
492,828,494,494,495
493,740,495,493,495
493,569,495,493,495
493,398,495,493,496
494,242,495,493,496
495,149,494,493,494
494,163,493,493,494
493,220,493,493,494
493,359,493,494,494
492,520,493,494,494
491,670,493,494,494
491,783,495,494,494
491,841,495,494,495
491,808,494,493,495
492,668,495,493,497
493,493,495,493,495
493,326,496,493,496
493,188,496,493,495
494,145,494,493,493
494,178,493,493,494
494,270,493,493,495
491,428,493,494,493
492,585,493,494,493
492,727,494,494,495
491,831,495,494,494
491,832,495,494,495
492,760,494,493,495
492,595,494,493,495
494,422,495,493,495
494,260,496,493,496
494,150,495,493,495
494,156,494,493,494
492,202,494,493,495
492,334,494,494,495
492,499,494,494,493
491,651,494,494,494
492,773,495,494,494
491,844,493,494,494
492,815,494,493,494
493,693,496,493,495
494,515,495,493,495
494,349,495,493,495
495,203,494,493,496
493,145,494,493,496
492,174,493,493,495
493,249,493,494,494
492,408,493,493,494
492,565,495,494,493
491,710,495,494,494
491,817,495,494,494
491,835,494,494,494
493,776,495,493,495
493,618,496,493,496
494,441,495,493,495
494,280,496,493,496
494,157,495,493,495
494,153,493,493,494
492,193,493,493,494
492,314,493,493,494
492,476,493,494,494
492,628,493,494,494
492,760,495,494,493
490,845,495,494,495
491,823,495,494,495
493,716,495,494,496
495,542,495,493,495
493,371,495,493,496
493,219,494,493,496
494,143,494,493,494
492,168,494,493,494
494,235,493,493,494
493,384,493,494,493
493,542,494,494,494
492,692,494,494,493
491,805,493,494,494
492,837,495,494,495
492,793,495,493,495
493,643,497,493,496
493,464,495,493,496
494,301,493,493,496
494,169,494,493,495
494,150,494,493,494
495,183,494,493,494
492,291,494,494,494
492,455,493,494,494
491,608,493,494,494
490,746,492,494,493
491,838,493,494,494
492,827,495,494,495
492,739,495,493,495
493,564,494,493,495
494,395,495,493,495
494,237,495,493,496
495,145,494,493,494
494,164,493,493,494
492,219,494,493,495
493,360,493,494,494
492,522,493,494,494
491,673,493,494,494
492,791,493,494,494
491,839,495,494,495
491,807,494,493,495
494,663,495,493,495
494,489,494,493,496
493,323,495,493,496
494,183,496,493,496
493,147,494,493,494
492,179,494,493,494
492,271,494,494,494
492,434,494,494,494
491,588,493,494,494
491,729,493,494,494
491,833,495,494,494
492,830,494,494,494
492,759,495,493,496
493,589,495,493,496
493,419,496,493,496
495,258,495,493,496
494,147,495,493,495
493,155,492,493,495
492,205,494,493,494
492,337,494,493,495
491,501,494,493,493
491,651,493,494,494
491,775,494,494,494
491,844,492,494,494
491,814,495,494,496
493,691,495,493,496
493,513,496,493,495
494,346,495,493,496
495,200,496,493,495
493,145,493,493,495
492,174,495,493,494
493,253,494,493,494
491,409,492,494,494
492,568,493,494,493
491,713,493,494,494
490,820,494,494,494
492,834,494,494,495
493,773,495,493,494
493,614,494,493,495
493,440,495,493,496
494,276,495,493,496
496,154,493,493,494
493,154,494,493,495
493,194,493,493,493
493,316,494,494,494
492,479,494,494,494
493,630,493,494,494
492,760,495,494,493
492,842,494,494,495
493,821,495,493,495
493,713,495,493,496
494,538,496,493,495
494,369,496,493,495
495,215,496,493,495
493,146,493,493,497
495,172,493,493,496
492,235,493,494,494
491,388,494,494,495
490,544,494,494,493
491,694,493,494,493
492,810,495,494,495
491,840,494,494,493
493,789,494,493,494
492,638,496,493,496
493,461,495,493,495
493,297,495,493,496
493,165,495,493,496
493,150,494,493,494
493,189,493,493,495
493,295,493,494,495
492,456,492,494,493
492,609,493,494,494
491,746,495,494,494
490,840,494,494,495
492,828,495,494,495
493,734,495,493,496
492,562,495,493,496
494,393,494,493,496
494,236,493,493,495
493,147,495,493,495
492,164,496,493,496
493,223,495,493,496
492,364,494,493,495
491,526,494,493,494
491,677,493,494,494
491,793,495,494,494
491,840,493,494,496
491,806,495,493,495
492,663,495,493,496
493,484,496,493,496
493,318,496,493,495
494,182,495,493,496
493,148,495,493,495
492,179,493,493,495
493,275,493,494,494
491,435,492,494,494
492,593,493,494,493
492,731,494,494,495
491,833,495,494,494
491,831,494,493,496
492,754,496,493,495
494,586,496,493,496
493,414,494,493,496
494,254,495,493,496
494,149,493,493,494
492,159,493,493,495
492,208,494,493,494
491,340,493,494,494
492,506,492,494,494
492,656,493,494,494
492,776,494,494,494
491,843,494,494,495
491,815,496,493,495
492,685,496,493,495
493,510,496,493,496
494,343,495,493,496
495,198,494,493,495
494,144,494,493,496
492,173,493,493,495
493,255,493,494,495
492,414,494,494,494
492,569,493,494,494
491,714,493,494,494
491,823,493,494,496
490,834,494,494,495
492,771,494,493,495
492,610,495,494,495
494,437,495,493,496
493,271,495,493,496
494,150,493,493,496
493,154,494,493,494
492,194,494,493,494
492,319,493,494,494
492,483,493,494,494
491,635,494,494,493
490,764,493,494,494
491,843,495,494,495
491,820,495,493,495
492,710,494,493,495
493,534,495,493,496
493,364,495,493,496
493,212,494,493,496
494,146,494,493,494
492,170,493,493,495
492,237,494,494,495
493,390,494,494,494
491,550,494,494,495
491,697,492,494,493
490,811,494,494,494
492,837,495,494,494
493,788,495,493,495
492,635,496,493,495
494,457,494,493,496
493,294,495,493,496
494,168,495,493,494
494,150,494,493,494
493,187,494,493,495
492,298,493,494,495
492,463,493,494,493
491,614,493,494,493
490,749,495,494,495
492,840,494,494,496
491,827,495,493,495
492,731,495,493,496
493,557,496,493,494
495,388,496,493,495
494,232,494,493,496
493,145,494,493,494
493,163,496,493,496
493,222,494,494,495
492,366,494,494,495
492,526,493,494,493
491,676,492,494,494
490,795,492,494,494
492,841,495,494,494
491,804,495,493,494
493,658,493,493,495
493,480,495,493,495
493,314,494,493,496
494,173,495,493,495
494,149,495,493,494
494,182,495,493,495
493,276,492,494,495
491,439,494,494,494
492,595,494,494,494
491,734,493,494,494
490,836,495,494,495
491,833,496,494,496
492,753,494,493,495
492,583,495,493,495
494,413,496,493,496
495,249,495,493,496
496,152,494,493,494
494,161,494,493,494
493,210,494,493,495
492,344,493,494,493
491,508,494,494,495
491,660,494,494,495
492,774,494,494,492
493,840,494,494,494
492,812,496,493,496
494,682,495,493,496
493,503,496,493,496
494,336,495,493,496
494,193,495,493,495
494,147,495,493,494
493,177,494,493,496
491,260,493,493,495
492,418,493,494,494
492,574,494,494,494
491,715,495,494,495
489,826,495,494,495
491,833,495,494,496
492,768,494,493,496
493,607,494,493,496
494,433,495,493,496
494,272,495,493,496
493,151,494,493,495
493,154,495,493,495
493,197,493,493,495
492,323,493,493,494
491,486,493,493,494
491,637,492,494,494
493,766,493,494,495
492,842,496,494,495
492,817,497,493,495
492,706,497,493,494
492,527,496,493,496
493,361,493,493,495
493,209,494,493,496
495,146,495,493,496
494,169,492,493,496
493,240,492,494,495
492,393,491,494,495
492,550,492,494,494
491,699,493,494,494
490,810,494,494,495
491,837,494,494,494
492,787,495,493,495
493,632,494,493,496
493,454,495,493,496
495,292,496,493,495
493,163,494,493,495
494,153,495,493,494
494,189,494,493,494
492,300,493,494,495
493,465,493,494,494
491,620,493,494,494
490,749,492,494,494
490,841,493,494,494
493,825,495,494,495
492,728,494,493,496
493,554,496,493,496
493,384,495,493,497
494,229,494,493,496
493,145,493,493,497
494,164,492,493,494
492,226,492,493,495
492,371,492,494,494
491,532,494,494,494
491,681,494,494,495
492,799,494,494,495
491,841,494,494,495
492,803,494,493,494
493,656,496,493,495
493,480,495,493,496
494,313,495,493,496
495,179,495,493,496
493,149,494,493,496
493,183,493,493,495
492,282,493,493,494
493,445,493,494,493
491,597,495,494,494
491,738,494,494,493
491,838,495,494,495
491,829,495,494,496
493,747,495,493,496
493,579,495,493,496
494,409,496,493,496
495,248,496,493,495
494,149,495,493,496
492,158,493,493,495
493,213,492,494,494
492,349,493,494,494
491,512,492,494,494
491,663,494,494,494
493,781,495,494,494
492,841,495,494,495
492,812,495,493,495
492,680,495,493,495
493,502,495,493,496
493,334,495,493,496
495,192,495,493,496
493,147,494,493,496
494,176,492,493,495
493,262,493,493,495
492,419,493,494,494
491,578,493,494,494
492,721,493,494,495
492,828,495,493,495
492,832,495,494,496
493,766,495,493,495
494,602,496,493,496
493,430,494,493,496
494,266,493,493,497
495,149,494,493,496
492,155,493,493,495
492,199,493,493,495
492,327,493,494,494
492,492,492,494,494
492,642,493,494,494
490,765,493,494,494
491,842,494,494,494
492,820,494,493,496
493,702,494,493,496
493,527,495,493,496
494,359,495,493,496
494,210,494,493,497
494,144,494,493,496
494,172,492,493,494
492,242,494,493,495
492,397,493,494,494
491,556,493,494,495
491,702,493,494,495
492,812,494,494,494
491,835,494,494,494
491,782,495,493,496
492,627,496,493,495
493,453,495,493,496
495,288,495,493,496
494,161,494,493,494
493,152,494,493,495
493,191,492,493,494
493,305,492,493,494
492,468,493,493,494
491,621,494,494,494
492,755,493,494,494
492,843,494,494,495
492,825,494,494,495
493,724,494,493,495
493,550,495,493,496
495,379,495,493,496
495,226,495,493,496
493,145,495,493,495
493,165,494,493,495
492,228,493,494,494
492,374,492,494,494
492,536,492,494,494
492,686,492,494,495
492,798,493,494,494
491,837,494,494,495
492,801,494,493,495
493,652,493,493,496
493,473,495,493,496
495,309,494,493,496
495,177,494,493,496
493,148,492,493,494
494,184,493,493,495
492,285,493,494,494
492,448,493,494,494
492,601,493,494,494
492,739,493,494,494
492,836,495,494,495
491,828,494,494,495
492,746,495,493,496
492,573,495,493,496
494,405,496,493,497
494,244,496,493,496
495,149,493,493,495
492,159,493,493,495
493,216,493,493,495
493,353,493,494,494
493,515,493,494,494
492,665,494,494,494
491,779,494,494,494
492,841,495,494,495
492,810,495,494,496
493,675,495,493,496
493,498,495,493,497
493,333,495,493,496
494,189,495,493,494
494,146,493,493,495
494,179,494,493,494
492,264,493,493,495
492,424,494,494,494
492,581,493,494,494
491,723,493,494,493
491,830,495,494,495
491,833,494,494,496
492,765,495,493,496
494,601,495,493,496
494,428,495,493,496
494,265,495,493,495
494,150,493,493,495
493,157,495,493,493
493,201,493,493,495
493,329,494,494,494
492,494,494,494,494
492,645,493,494,493
492,770,494,494,495
491,845,493,494,495
491,819,494,493,495
493,699,496,493,495
494,522,497,493,495
495,355,496,493,496
494,208,495,493,495
494,145,493,493,496
493,171,493,493,495
493,247,493,494,494
492,402,493,493,494
492,558,494,493,493
492,704,493,494,495
490,814,494,494,495
492,835,495,494,494
493,780,495,493,495
493,623,495,493,495
494,447,495,493,496
494,285,496,493,496
494,162,495,493,496
492,152,494,493,496
492,192,494,493,495
493,309,494,494,494
492,471,493,494,494
492,623,494,494,493
491,755,495,494,493
492,843,495,493,496
492,825,495,493,495
493,720,495,493,495
493,547,494,493,496
494,376,495,493,496
494,223,494,493,496
494,144,493,493,494
492,168,493,493,494
492,230,493,494,495
492,377,493,494,494
493,537,493,494,494
492,686,492,494,494
492,802,493,494,495
491,838,493,494,494
492,797,494,493,495
492,648,495,493,496
494,472,496,493,496
495,306,496,493,496
494,173,495,493,496
493,150,494,493,494
492,186,492,493,495
493,285,494,494,494
493,450,493,494,493
491,603,494,494,494
491,741,494,494,494
491,839,495,494,494
491,829,495,493,495
493,742,496,493,496
493,569,495,493,496
493,399,494,493,496
494,240,493,493,495
493,147,495,493,496
495,160,494,493,494
493,217,494,493,495
492,354,493,494,494
491,518,493,494,494
491,668,492,494,494
490,786,492,494,495
492,840,493,494,495
493,810,494,493,494
493,671,495,493,495
493,493,495,493,496
493,328,495,493,496
494,190,495,493,496
493,147,493,493,495
495,179,493,493,495
493,267,494,493,494
492,428,494,494,495
492,583,494,494,494
491,726,495,494,493
491,833,495,494,494
491,832,495,494,495
492,762,494,493,496
493,595,496,493,496
494,424,495,493,496
494,263,495,493,495
495,150,494,493,497
492,155,493,493,494
494,202,494,493,494
493,332,494,494,495
493,496,493,494,494
492,648,494,494,494
491,770,495,494,495
491,844,495,494,494
492,816,494,493,495
493,695,494,493,497
492,517,495,493,497
494,352,495,493,496
494,202,495,493,496
494,144,492,493,495
493,174,494,493,494
492,248,494,493,494
492,404,494,494,494
492,562,494,494,494
491,709,494,494,494
492,815,494,494,494
491,833,495,494,496
492,776,495,493,496
492,618,495,493,496
493,445,495,493,495
495,279,495,493,496
493,157,495,493,497
495,155,494,493,494
494,192,496,493,496
492,311,494,493,494
493,475,494,494,494
492,628,494,494,494
492,757,492,494,495
491,842,492,494,495
491,823,495,494,496
492,719,494,493,496
493,543,494,493,496
494,374,495,493,496
493,219,494,493,496
495,143,494,493,495
492,167,494,493,494
492,230,492,493,494
492,383,492,494,494
491,540,493,494,494
491,690,494,494,495
492,805,493,494,495
491,838,494,494,495
493,795,494,493,495
492,645,495,493,496
493,469,496,493,496
494,304,495,493,496
494,171,494,493,494
493,148,494,493,496
494,184,493,493,494
493,291,493,494,494
492,453,494,494,495
492,605,493,494,494
492,745,495,494,495
493,840,495,494,495
492,828,494,493,494
492,740,496,493,496
493,569,495,493,496
494,396,495,493,496
494,239,495,493,495
494,146,493,493,496
494,163,493,493,495
492,219,493,493,495
493,359,493,494,495
491,521,493,494,494
491,673,493,494,493
490,788,494,494,495
491,841,493,494,495
491,807,495,493,496
492,669,496,493,495
493,492,497,493,496
493,325,496,493,495
494,184,496,493,495
494,148,496,493,495
492,181,494,493,494
493,270,493,493,494
492,432,492,493,493
492,587,492,494,495
491,727,494,494,495
491,833,495,494,494
493,832,494,493,495
492,759,496,493,495
493,591,496,493,497
493,417,495,493,496
494,255,495,493,496
494,148,492,493,495
494,158,493,493,496
494,202,493,494,494
492,337,493,494,494
492,500,493,494,494
491,650,493,494,494
493,771,492,494,494
491,843,495,494,495
491,816,494,493,495
492,691,495,493,495
494,514,495,493,496
494,350,495,493,496
495,201,493,493,495
495,147,493,493,496
494,173,495,493,496
493,253,493,494,495
493,409,494,494,494
492,565,493,494,494
492,710,494,494,494
493,820,493,494,494
492,835,495,494,494
491,774,495,493,495
492,617,495,493,496
494,443,495,493,496
494,276,495,493,497
494,155,495,493,496
494,152,494,493,495
493,194,493,493,495
492,314,494,493,495
492,478,494,494,495
491,631,493,494,495
492,760,493,494,495
491,843,495,494,495
491,822,494,494,495
493,714,496,493,496
492,537,496,493,496
493,368,495,493,496
495,218,495,493,497
493,144,494,493,496
493,169,492,493,496
492,234,493,493,494
492,386,494,494,494
491,546,494,494,494
491,694,494,494,493
491,808,494,494,494
491,836,494,494,495
493,793,494,493,495
493,640,494,493,496
494,463,495,493,496
495,300,497,493,497
495,171,496,493,495
493,150,496,493,495
493,188,495,493,495
492,294,492,494,495
492,458,492,494,494
492,609,493,494,495
492,743,494,494,494
490,841,495,494,495
492,827,495,493,495
493,736,496,493,496
493,564,495,493,497
494,395,495,493,496
494,238,494,493,496
493,144,492,493,496
494,161,494,493,494
492,220,493,493,495
492,362,493,494,494
493,524,493,494,494
492,674,493,494,494
491,792,494,494,495
491,841,493,494,495
493,806,494,493,495
493,664,494,493,496
493,489,495,493,497
494,322,495,493,496
494,182,495,493,496
493,147,495,493,495
493,179,494,493,494
492,274,493,493,495
492,435,493,494,496
491,590,493,494,494
491,731,495,494,494
491,834,494,494,494
491,829,495,494,495
492,756,495,493,496
492,587,495,493,495
493,416,495,493,497
495,253,495,493,496
494,149,494,493,496
492,156,495,493,494
493,205,495,493,495
492,341,493,494,495
493,504,493,494,494
492,656,493,494,495
493,776,493,494,494
491,840,495,494,494
493,815,494,493,494
493,687,494,493,496
494,509,495,493,495
494,345,494,493,497
494,199,495,493,496
492,148,496,493,494
493,175,494,493,495
493,256,494,493,495
492,413,494,493,494
491,569,495,493,494
490,713,496,494,495
492,819,496,494,495
492,834,495,494,494
492,773,495,493,496
492,611,495,493,497
494,438,496,493,496
494,275,494,493,497
493,154,494,493,495
493,152,493,493,494
493,194,492,494,495
493,317,492,494,495
492,478,492,494,495
493,591,493,494,493
491,758,492,494,495
491,847,492,494,494
492,825,496,494,494
493,699,494,493,496
495,483,494,493,497
494,287,495,493,495
493,207,494,493,495
494,170,495,493,496
492,190,492,493,495
493,247,494,493,496
491,360,493,493,495
492,477,494,494,495
491,682,492,494,494
491,839,493,494,494
491,867,495,494,494
490,810,494,493,496
493,626,495,493,496
495,400,496,493,496
495,257,495,493,496
493,196,493,493,496
493,183,494,493,495
493,215,493,493,494
493,298,494,493,495
492,419,494,494,494
492,559,492,494,494
491,764,492,494,494
492,871,494,494,494
493,863,495,494,495
489,761,494,493,495
494,549,494,493,496
493,375,495,493,496
493,224,496,493,495
494,174,494,493,493
493,186,495,493,494
492,238,493,493,494
492,347,493,493,494
492,498,493,494,495
491,659,492,494,494
490,821,494,494,494
491,867,495,494,495
493,826,495,493,495
493,654,496,493,496
493,459,495,493,496
494,301,496,493,496
494,189,495,493,495
493,168,495,493,496
494,202,494,493,495
492,277,494,493,495
492,403,494,493,494
491,559,494,494,494
490,733,493,494,495
490,860,493,494,495
493,853,494,494,495
494,764,495,493,495
493,576,496,493,496
493,402,496,493,496
494,241,494,493,496
493,170,494,493,495
492,179,492,493,495
493,227,494,494,495
492,355,493,493,495
492,514,492,494,494
491,659,492,494,493
490,786,494,494,494
491,854,494,494,494
493,823,495,494,495
492,681,494,493,496
492,493,494,493,496
493,323,495,493,497
494,186,493,493,494
493,160,493,493,495
493,188,494,493,495
492,258,494,494,495
492,388,493,494,494
492,539,493,494,495
490,702,492,494,493
492,845,494,494,494
492,851,494,494,495
493,778,494,493,496
493,580,495,493,496
493,386,495,493,496
493,235,495,493,497
493,179,494,493,494
493,181,494,493,494
494,217,493,494,495
492,314,494,493,495
492,442,493,493,494
492,599,492,494,493
491,786,492,494,493
491,873,494,494,495
492,845,494,494,494
493,711,495,493,496
493,496,495,493,495
494,324,495,493,494
495,213,494,493,496
493,174,495,493,495
492,195,495,493,495
492,257,493,493,492
494,369,494,494,493
491,522,492,494,493
492,684,492,494,494
491,841,494,494,493
491,864,493,494,494
493,805,495,493,495
493,620,496,493,495
494,429,495,493,496
494,265,494,493,494
495,188,493,493,496
493,176,494,493,494
492,212,494,493,495
493,298,493,494,494
492,437,494,494,494
491,591,495,493,493
489,764,493,494,494
491,866,495,494,495
493,847,494,493,494
493,736,494,493,496
494,524,494,493,496
495,349,494,493,495
493,218,495,493,496
494,173,495,493,496
493,191,493,493,495
493,243,493,493,494
493,348,494,493,494
492,495,493,494,494
492,656,492,494,493
492,827,493,494,495
490,868,493,494,495
492,824,494,494,496
493,647,495,493,497
494,441,495,493,495
495,276,496,493,496
494,196,493,493,495
493,178,492,493,495
493,210,492,493,495
492,286,493,493,495
492,412,494,494,494
492,563,493,494,494
490,742,494,494,495
491,867,493,494,494
492,856,493,494,495
492,765,494,493,496
493,554,496,493,497
494,374,495,493,496
493,232,494,493,495
495,181,494,493,496
492,188,493,493,495
493,233,493,493,493
493,336,493,494,494
492,478,492,494,494
491,631,493,494,493
490,809,494,494,495
492,871,493,493,496
492,835,494,493,496
493,677,495,493,496
494,470,496,493,496
494,304,496,493,495
494,201,494,493,495
493,175,493,493,496
493,202,493,493,495
493,271,493,494,495
492,392,494,494,494
492,544,492,494,494
490,717,492,494,494
492,858,493,494,494
492,859,494,493,495
492,784,496,493,496
494,582,497,493,497
494,392,496,493,496
494,239,494,493,496
493,181,495,493,494
494,184,493,493,495
493,223,493,493,494
492,319,492,493,494
492,455,494,494,494
492,611,493,494,494
492,790,495,494,493
491,872,494,494,496
492,843,495,493,495
493,706,496,493,495
493,491,494,493,496
494,323,494,493,494
495,210,494,493,494
493,173,493,493,495
494,199,494,493,494
493,258,494,493,495
494,372,494,493,494
492,521,493,494,494
492,688,494,494,493
490,841,494,494,494
492,864,494,494,494
492,801,496,493,495
494,611,496,493,496
495,416,496,493,496
493,257,496,493,496
494,187,494,493,494
493,180,494,493,493
493,213,494,493,494
492,302,494,493,494
492,435,493,494,494
492,590,493,494,494
492,769,493,494,494
491,871,494,494,494
493,849,494,493,494
492,734,497,493,496
493,521,495,493,495
495,348,495,493,496
494,218,494,493,494
493,176,494,493,494
493,191,493,493,495
493,244,492,493,495
493,354,492,494,494
492,502,493,494,494
491,661,494,494,493
491,834,493,494,494
491,868,494,494,495
491,821,495,493,496
493,644,494,493,496
494,440,495,493,497
494,275,494,493,495
495,195,494,493,494
493,177,493,493,495
494,209,493,493,496
492,288,493,494,494
492,414,493,494,495
492,566,493,494,493
490,747,492,494,494
491,865,495,494,495
492,853,494,493,495
492,759,496,493,495
493,548,496,493,496
494,366,496,493,496
493,229,495,493,496
494,179,493,493,494
495,186,493,493,494
493,236,493,493,494
492,338,493,494,494
492,482,493,494,494
491,634,492,494,494
490,812,492,494,493
490,870,494,494,495
492,835,494,493,494
493,672,496,493,496
493,463,495,493,496
493,299,495,493,495
493,202,495,493,496
494,177,492,493,495
493,202,495,493,495
492,273,494,493,495
493,394,494,493,494
492,546,492,494,495
490,718,494,494,495
491,857,492,494,496
491,860,494,494,494
493,782,493,493,496
493,578,495,493,496
494,392,495,493,496
494,238,495,493,497
493,180,494,493,494
494,186,494,493,496
492,224,494,493,495
492,322,494,494,494
492,456,494,494,495
492,613,493,494,493
490,795,494,494,493
491,874,493,494,494
492,841,495,493,495
493,703,496,493,497
494,488,496,493,496
494,317,495,493,496
494,208,494,493,494
494,174,496,493,495
493,197,494,493,495
493,260,494,493,495
493,375,494,493,494
491,526,495,493,494
491,693,493,494,494
490,845,493,494,493
493,863,492,494,495
492,797,495,493,496
493,609,495,493,496
493,414,495,493,496
493,252,494,493,495
493,186,495,493,495
493,178,494,493,495
492,214,494,493,494
493,305,494,493,495
492,440,494,494,495
492,594,493,494,493
490,773,493,494,494
491,869,495,494,494
492,846,494,493,495
493,729,495,493,497
493,514,495,493,495
494,342,495,493,495
494,217,494,493,496
494,174,495,493,496
492,193,493,493,496
492,247,493,493,494
493,356,494,494,494
492,502,494,494,494
491,663,493,494,492
489,832,492,494,493
493,866,495,494,494
492,816,494,493,495
493,636,495,493,495
493,429,495,493,496
494,269,496,493,495
495,196,495,493,496
494,176,496,493,494
494,208,494,493,496
492,290,493,494,494
492,410,492,494,494
492,562,493,494,494
492,749,494,494,495
491,868,496,493,494
492,855,495,493,495
492,758,496,493,495
493,542,494,493,495
493,361,494,493,495
493,227,493,493,496
493,180,492,493,494
492,190,493,493,494
494,238,493,493,495
493,341,493,493,495
492,488,493,494,494
491,643,491,494,495
492,818,493,494,494
491,870,495,493,495
492,833,495,493,495
493,668,495,493,495
493,469,495,493,495
494,301,495,493,495
494,197,494,493,495
493,172,493,493,495
493,201,494,493,494
492,273,493,493,494
493,405,493,493,494
492,556,494,494,494
490,721,492,494,495
492,857,493,494,494
491,856,494,494,495
492,777,494,493,496
492,572,494,493,496
494,387,495,493,496
495,235,494,493,496
494,180,494,493,494
492,184,495,493,495
492,223,493,493,494
492,324,494,493,494
493,460,493,494,494
493,614,494,494,493
489,798,495,494,494
491,874,495,493,494
491,840,494,494,494
493,696,495,493,495
493,482,494,493,496
495,315,495,493,496
494,209,494,493,495
492,174,493,494,495
493,199,493,493,495
492,264,493,494,495
492,378,492,493,494
491,527,492,494,495
491,698,491,494,495
492,846,494,494,494
491,863,494,494,494
492,795,495,493,496
493,604,495,493,495
494,410,495,493,496
493,248,496,493,496
495,184,494,493,495
493,180,494,493,495
492,216,493,493,495
493,306,493,493,495
492,444,492,494,494
492,599,493,494,495
492,774,492,494,494
492,871,494,494,495
493,847,495,493,495
493,723,496,493,496
494,513,496,493,496
494,339,495,493,495
492,212,495,493,495
493,173,493,493,496
493,194,494,493,494
492,246,495,493,494
492,359,493,493,494
492,508,493,493,494
491,669,493,494,494
489,833,493,494,494
491,867,495,493,495
491,815,494,494,496
494,633,496,493,497
494,429,495,493,496
494,269,494,493,495
492,192,493,493,495
494,177,493,493,494
494,210,494,493,495
492,293,494,493,494
492,420,493,494,493
492,572,493,494,493
490,753,492,494,494
491,866,493,494,495
492,853,493,494,494
492,748,493,493,495
493,538,495,493,496
494,358,495,493,496
495,226,494,493,495
493,178,494,493,494
494,189,494,493,494
494,240,495,493,494
493,344,494,493,494
492,487,494,494,494
491,644,493,494,494
492,824,494,494,495
491,870,494,494,495
493,831,493,494,495
493,663,494,493,495
494,457,495,493,495
494,292,495,493,495
493,199,493,493,495
495,176,492,493,494
494,206,494,493,493
493,280,493,493,494
492,403,494,494,494
491,557,493,494,494
490,728,493,494,494
491,862,494,494,495
493,857,495,493,494
492,774,495,493,496
494,567,496,493,496
494,384,496,493,496
493,234,496,493,495
494,180,496,493,496
494,186,494,493,495
492,226,492,493,495
493,327,492,494,495
493,469,493,493,494
490,623,494,493,495
489,801,494,494,494
492,871,493,494,494
491,839,494,494,495
493,692,493,493,496
493,477,495,493,496
494,313,496,493,496
493,204,494,493,496
493,174,493,493,494
493,200,493,493,495
493,263,493,493,495
493,381,493,493,494
492,531,494,494,494
491,702,493,494,493
489,849,493,494,494
492,863,495,493,494
492,791,495,493,495
493,598,496,493,496
494,404,495,493,496
494,246,494,493,495
493,184,495,493,495
494,180,494,493,494
493,217,493,493,495
492,311,493,494,494
492,446,493,494,494
492,599,493,494,495
491,782,494,494,494
492,874,494,494,494
492,846,494,493,495
492,718,495,493,497
494,508,495,493,496
493,333,495,493,496
494,214,494,493,495
494,173,493,493,495
494,194,493,493,495
493,251,493,493,495
492,362,493,493,495
492,513,493,494,495
491,674,493,494,493
490,839,494,494,494
491,863,495,493,495
491,813,495,493,495
492,628,496,493,497
495,428,496,493,496
493,265,493,493,494
492,193,494,493,493
494,181,495,493,495
493,213,492,493,496
492,295,493,494,496
492,418,491,494,496
493,575,493,494,494
489,760,492,494,494
492,869,495,494,496
493,851,496,494,496
494,745,495,493,496
493,532,497,493,497
493,345,495,493,496
493,226,494,493,495
495,181,492,493,496
493,193,491,493,496
494,240,491,493,493
495,346,494,494,494
492,481,494,494,493
491,651,494,494,495
491,825,492,494,494
492,872,495,494,494
492,832,494,493,496
492,660,496,493,498
494,449,495,493,495
495,286,495,493,494
496,201,493,493,496
495,177,494,493,496
492,209,494,493,494
493,284,492,493,495
493,408,494,493,495
492,561,494,494,494
490,732,493,494,493
492,864,494,494,494
492,856,494,494,495
492,771,494,493,496
493,565,495,493,495
494,385,494,493,496
494,232,494,493,495
493,180,492,493,495
494,187,493,493,494
493,229,494,493,495
492,329,493,493,494
492,475,492,494,494
491,628,492,494,493
492,804,492,494,495
491,871,494,494,495
491,837,495,493,495
492,687,495,493,496
494,477,495,493,495
494,307,495,493,495
493,202,494,493,496
493,175,492,493,494
492,200,493,493,495
492,265,494,494,495
492,384,493,494,495
492,535,493,494,494
491,706,492,494,494
490,853,493,494,494
491,859,494,493,494
492,788,494,493,496
494,591,495,493,496
494,397,494,493,496
494,242,493,493,495
493,183,493,493,494
493,183,494,493,496
494,219,494,493,494
492,313,493,493,494
492,448,494,494,494
492,603,494,494,494
491,783,495,494,493
491,873,495,493,494
491,844,495,493,495
491,715,494,493,496
494,500,494,493,496
494,331,494,493,495
494,215,493,493,495
493,174,493,493,496
492,196,493,493,494
492,254,494,493,495
493,367,493,493,495
493,516,493,494,494
491,680,492,494,495
491,841,493,494,494
492,865,493,494,495
493,809,494,493,494
494,621,496,493,496
494,426,494,493,496
494,264,494,493,494
493,190,493,493,496
494,180,493,493,494
492,214,495,493,496
493,298,493,493,495
493,428,492,493,494
492,583,492,494,494
491,763,492,494,494
491,868,495,494,495
492,851,495,494,495
493,742,494,493,496
493,527,495,493,496
494,351,495,493,495
494,220,495,493,496
493,175,494,493,494
494,190,493,493,495
494,241,494,493,495
493,350,493,493,495
493,494,492,494,494
491,654,494,494,494
489,827,494,494,494
492,869,495,493,495
492,827,496,493,495
493,652,494,493,496
494,446,494,493,495
494,282,494,493,495
495,197,494,493,495
493,177,494,493,494
494,207,494,493,495
493,284,493,494,494
492,411,493,493,494
491,564,492,494,494
491,737,493,494,494
491,863,493,494,495
491,855,494,494,496
493,766,493,493,495
493,557,495,493,496
493,377,495,493,496
494,229,494,493,496
494,180,493,493,495
494,186,494,493,494
493,232,493,493,494
492,333,494,493,494
492,475,494,494,494
492,630,493,494,495
490,807,494,494,494
491,871,494,493,494
492,837,494,493,496
492,680,495,493,496
493,471,495,493,497
494,304,495,493,495
494,203,494,493,495
493,175,495,493,496
493,201,492,493,493
493,269,494,493,495
493,387,493,494,495
491,539,493,494,494
492,714,493,494,494
491,856,493,494,494
492,859,492,494,495
493,786,494,493,496
493,588,495,493,496
493,397,495,493,496
494,241,494,493,496
493,181,494,493,496
494,184,493,493,495
492,219,493,493,494
492,317,493,493,495
492,454,493,494,494
492,609,494,494,493
493,789,494,494,495
492,873,493,493,494
493,845,494,493,495
493,711,495,493,496
494,496,496,493,496
494,328,496,493,496
494,212,495,493,496
494,173,493,493,496
494,196,494,493,495
493,255,494,494,495
493,371,493,494,494
492,521,493,494,494
491,684,491,494,493
490,841,493,494,496
492,862,494,494,495
493,802,494,493,495
493,615,494,493,496
494,419,495,493,496
495,259,493,493,495
493,189,493,493,494
492,178,494,493,495
493,212,493,493,495
493,303,493,493,495
492,434,493,493,494
492,586,493,493,493
491,765,492,494,494
491,871,494,494,494
492,850,493,494,495
493,736,494,493,495
494,523,495,493,496
494,350,495,493,496
495,217,493,493,494
494,175,493,493,495
494,192,493,493,495
494,245,493,493,494
492,350,494,493,494
492,497,493,494,494
491,657,493,494,494
492,831,493,494,493
492,868,495,494,495
493,824,494,493,495
493,647,496,493,496
494,439,495,493,496
494,276,494,493,495
494,194,493,493,496
493,176,492,493,494
492,209,494,493,494
493,288,493,493,494
493,411,493,493,494
491,563,493,494,494
490,742,494,494,493
491,863,495,494,494
492,854,497,494,495
492,764,496,493,496
493,552,495,493,495
493,371,495,493,496
494,229,493,493,496
493,177,494,493,494
492,187,493,493,495
493,233,494,493,495
493,337,493,493,494
492,483,493,494,494
491,636,493,494,494
491,810,494,494,494
491,871,494,494,495
492,835,494,493,495
493,697,494,493,496
493,520,494,493,496
493,353,494,493,496
494,209,495,493,496
493,156,495,493,495
493,187,493,493,494
492,272,493,493,494
493,429,492,494,494
492,587,493,494,493
491,729,494,494,495
491,831,493,494,494
492,837,494,493,495
493,768,494,493,496
494,606,495,493,496
494,434,495,493,496
495,272,495,493,496
494,154,493,493,496
492,157,494,493,495
493,200,493,493,494
493,328,493,493,494
492,494,494,494,494
491,645,493,494,494
492,772,493,494,495
492,845,494,494,495
493,817,494,493,495
493,702,495,493,496
494,527,495,493,495
494,359,495,493,496
495,210,495,493,495
493,144,494,493,495
493,172,493,493,495
493,243,494,494,494
492,400,493,493,494
492,558,493,493,494
491,707,493,494,493
493,809,494,494,494
492,836,494,494,494
492,781,493,493,495
492,625,495,493,496
495,450,495,493,496
495,288,495,493,495
493,164,495,493,495
493,152,493,493,495
492,190,495,493,494
492,308,494,493,494
492,472,494,493,494
491,624,494,494,494
491,757,491,494,493
492,840,493,494,495
492,822,494,493,495
492,721,494,493,495
493,549,493,493,496
494,380,493,493,496
495,228,494,493,496
494,141,493,493,494
494,166,494,493,495
493,226,493,493,494
492,374,493,493,494
492,536,493,494,494
491,687,493,494,493
491,799,493,494,494
491,840,494,494,495
493,797,494,493,495
492,650,494,493,496
494,474,494,493,496
494,311,495,493,496
493,178,494,493,495
493,149,493,493,495
493,183,494,493,494
492,285,493,493,495
492,448,493,493,495
492,601,493,494,494
492,743,494,494,494
490,837,495,494,495
492,829,494,493,495
492,743,495,493,496
494,573,494,493,496
493,403,495,493,496
494,245,495,493,496
494,145,494,493,496
491,163,494,493,495
492,215,494,493,495
493,353,494,493,494
491,518,494,493,494
492,669,494,494,494
492,787,494,494,494
491,843,494,494,496
493,809,494,494,495
493,673,495,493,495
493,496,497,493,496
493,331,494,493,496
495,190,494,493,495
494,145,493,493,496
493,175,493,493,495
492,265,493,494,494
492,426,492,494,495
493,584,492,494,495
491,725,491,494,494
492,829,494,493,494
491,831,496,494,495
492,762,496,493,494
493,596,496,493,496
493,423,493,493,496
493,261,493,493,495
495,148,493,493,496
493,155,495,493,495
493,199,492,493,494
493,332,493,493,495
492,495,492,494,495
492,645,492,494,494
492,770,494,494,494
491,844,493,494,496
492,817,494,493,495
493,697,494,493,495
492,520,495,493,496
494,354,496,493,496
495,205,494,493,495
493,143,494,493,496
494,170,494,493,494
492,247,493,493,495
493,403,493,494,494
492,559,493,494,494
492,706,492,494,494
490,813,493,494,495
492,835,494,493,496
492,777,495,493,495
492,622,496,493,495
494,447,496,493,496
494,281,494,493,496
493,157,494,493,495
495,151,493,493,495
494,192,494,493,494
491,310,494,493,494
492,474,492,493,494
491,627,493,494,494
493,757,493,494,494
490,843,494,493,495
491,825,494,494,495
492,720,494,493,496
493,545,496,493,496
493,374,495,493,496
494,221,495,493,495
495,144,492,493,495
492,168,494,493,495
492,230,492,494,495
492,381,493,494,495
491,541,492,494,495
491,689,494,494,495
491,803,493,494,494
491,839,494,493,495
492,796,494,493,495
493,645,495,493,496
493,468,494,493,496
494,303,494,493,496
494,172,494,493,495
494,147,494,493,495
492,185,494,493,495
493,291,492,493,495
492,453,493,494,494
491,603,494,494,494
491,741,492,494,493
490,839,492,494,494
491,828,493,493,494
491,740,494,493,495
493,569,495,493,495
493,399,495,493,496
495,240,496,493,495
495,146,495,493,495
494,161,495,493,494
493,221,494,493,494
492,358,494,493,494
491,519,493,494,493
490,670,493,494,495
491,786,494,494,494
492,841,493,494,495
491,808,494,493,495
492,669,495,493,495
492,490,494,493,496
493,325,493,493,496
494,184,494,493,494
492,144,492,493,495
493,179,493,493,494
492,269,494,493,494
491,429,493,494,495
491,585,491,494,494
491,728,494,494,494
492,832,493,494,494
492,832,494,494,495
492,761,494,493,496
492,591,495,493,495
492,419,495,493,496
494,258,495,493,496
493,149,494,493,496
492,156,494,493,495
493,203,494,493,495
491,333,493,494,494
492,501,493,494,494
491,651,494,494,493
490,773,493,494,495
492,843,495,494,495
492,815,495,493,496
492,691,495,493,496
492,514,494,493,496
493,350,495,493,496
494,202,494,493,496
493,146,494,493,494
492,173,494,493,495
492,248,494,493,495
492,407,492,494,495
491,564,493,494,495
491,709,493,494,494
490,818,493,494,495
491,835,495,494,494
491,774,494,493,496
493,616,494,493,497
493,441,495,493,496
493,276,494,493,495
493,154,492,493,495
492,151,494,493,495
493,190,494,493,495
492,314,494,493,494
491,476,494,493,494
491,629,494,493,492
489,761,495,494,493
491,844,494,494,495
491,822,494,494,495
492,715,494,493,495
493,540,493,493,495
492,370,494,493,496
492,219,494,493,495
493,142,494,493,496
493,167,495,493,494
493,232,494,493,494
491,384,494,494,494
491,543,493,494,493
490,693,493,494,493
491,806,492,494,495
491,836,493,494,494
492,792,494,493,495
493,641,494,493,496
493,461,494,493,496
493,297,495,493,496
493,169,495,493,495
492,148,493,493,495
492,187,493,493,494
492,293,492,494,493
492,457,494,494,494
491,610,493,494,494
491,746,493,494,494
491,840,493,494,494
492,827,493,494,495
491,736,495,493,496
493,562,494,493,495
493,392,495,493,495
493,236,494,493,495
494,146,493,493,495
493,164,494,493,495
492,220,493,493,494
492,362,493,494,494
491,525,494,494,495
491,674,494,494,493
490,790,494,494,495
491,841,494,494,495
492,806,494,493,496
493,664,495,493,496
492,488,495,493,496
493,320,496,493,495
494,181,494,493,495
492,147,494,493,494
492,179,493,493,494
492,274,492,493,495
491,434,493,494,494
492,590,493,494,494
491,730,492,494,494
491,836,494,494,495
491,832,493,494,495
491,758,494,493,496
493,589,495,493,496
493,416,495,493,497
494,254,495,493,496
493,146,494,493,496
491,157,493,493,494
493,205,493,493,495
492,338,493,494,494
492,503,494,494,494
491,652,494,494,493
491,775,493,494,494
491,842,494,494,495
492,812,494,493,494
493,688,494,493,496
493,510,495,493,497
493,343,496,493,496
494,198,496,493,496
492,146,494,493,494
491,174,494,493,495
493,252,493,493,495
492,412,493,494,494
491,568,493,494,494
491,714,494,494,493
492,820,494,494,495
491,832,493,494,494
491,773,495,493,495
493,611,495,493,497
493,437,494,493,496
493,274,496,493,496
493,153,495,493,495
493,152,495,493,496
492,195,493,493,495
492,317,494,493,495
491,481,492,494,494
491,633,493,494,494
491,761,492,494,494
491,845,494,494,495
492,821,494,494,496
492,709,495,493,496
492,535,495,493,496
494,367,495,493,496
494,215,494,493,496
492,142,493,493,495
493,168,494,493,494
492,236,494,493,495
492,389,493,493,494
492,547,494,494,494
491,696,494,494,494
492,809,492,494,494
492,836,495,494,496
492,788,495,494,495
492,634,494,493,496
493,459,494,493,496
494,293,495,493,495
493,165,494,493,495
493,151,494,493,495
493,188,495,493,494
492,295,493,493,494
492,461,493,494,494
491,613,493,494,494
490,750,493,494,494
490,842,493,494,495
491,825,494,494,495
492,732,495,493,496
493,558,495,493,496
494,388,495,493,496
495,230,495,493,496
495,143,493,493,495
492,163,494,493,495
492,222,493,494,495
492,366,493,494,494
491,527,494,494,495
491,678,493,494,494
490,795,493,494,494
491,840,494,494,495
492,804,493,493,495
492,660,494,493,495
493,481,495,493,496
494,317,495,493,496
494,180,495,493,494
493,144,493,493,494
492,180,494,493,495
492,277,494,493,494
491,439,493,494,495
491,593,493,494,494
491,731,494,494,495
490,835,495,494,495
491,830,495,493,495
491,752,495,493,495
492,582,494,493,496
493,412,494,493,496
493,252,495,493,496
495,148,494,493,496
491,158,493,493,494
493,208,494,494,494
492,341,493,494,494
491,507,494,494,494
491,657,494,494,495
490,776,493,494,494
491,842,495,494,495
492,812,495,493,495
492,681,495,493,496
493,505,494,493,496
494,338,493,493,496
492,193,495,493,495
493,146,494,493,494
492,176,495,493,495
493,257,493,493,495
492,416,494,494,494
492,572,493,494,494
492,715,492,494,494
491,825,492,494,494
491,833,495,494,495
492,768,496,493,495
493,606,495,493,496
494,433,495,493,496
494,270,496,493,496
495,151,494,493,495
494,155,494,493,496
492,196,493,494,494
492,323,493,494,494
491,487,493,494,495
491,639,494,494,494
489,763,494,494,494
490,843,495,494,494
491,820,495,493,495
492,706,494,493,496
493,528,495,493,496
494,360,495,493,496
494,211,494,493,495
492,144,495,493,495
493,171,494,493,495
492,238,493,493,495
491,391,493,493,494
491,550,493,494,494
491,697,492,494,494
492,809,494,494,494
492,836,493,494,496
491,783,494,493,495
494,631,494,493,495
493,455,495,493,496
495,293,495,493,497
494,166,495,493,495
494,150,494,493,495
492,188,494,493,494
493,302,493,494,494
491,463,493,494,495
492,618,493,494,496
492,751,494,494,495
490,842,493,494,494
492,825,495,493,496
492,728,496,493,495
492,553,495,493,496
493,385,495,493,497
495,229,495,493,495
493,144,494,493,494
492,165,494,493,495
492,223,494,493,495
493,369,493,494,494
492,532,494,494,494
491,682,493,494,493
491,799,493,494,495
491,841,494,493,495
492,802,495,493,495
492,656,496,493,496
493,477,496,493,496
494,312,495,493,497
493,175,494,493,495
494,148,494,493,496
494,182,494,493,495
493,281,494,494,495
492,443,493,494,495
490,597,492,494,495
491,734,493,494,494
491,836,492,494,495
492,829,494,494,495
492,749,495,493,496
492,577,494,493,495
493,405,496,493,495
493,246,495,493,497
494,146,493,493,494
493,158,494,493,496
493,212,493,493,495
492,349,493,494,494
491,512,494,494,494
492,662,494,494,493
492,779,494,494,494
490,841,495,494,496
491,811,494,493,495
493,678,494,493,496
493,500,495,493,496
493,335,495,493,496
493,192,494,493,496
493,147,493,493,495
493,176,493,493,495
492,262,494,494,494
493,420,493,494,494
492,576,493,494,495
492,720,492,494,495
490,826,495,494,496
492,833,494,494,495
492,768,495,493,496
492,602,495,493,497
494,429,495,493,496
494,267,495,493,496
495,150,496,493,495
492,153,495,493,495
494,199,494,493,494
493,327,493,493,494
492,490,493,494,495
492,641,492,494,494
491,767,492,494,495
491,844,492,494,495
491,818,493,494,495
492,703,494,493,495
493,524,494,493,496
494,358,495,493,497
494,207,495,493,497
494,143,494,493,495
491,172,493,493,496
492,244,492,493,495
492,395,492,494,494
491,555,492,494,495
492,702,494,494,495
491,810,493,494,496
493,836,494,494,495
491,782,495,493,496
494,624,495,493,496
494,448,495,493,497
494,287,495,493,497
494,160,495,493,495
493,152,493,493,496
493,192,493,493,494
493,307,493,494,495
492,470,493,494,495
491,622,494,494,494
492,753,493,494,495
492,843,494,494,494
492,825,494,494,495
492,722,494,493,497
492,550,495,493,496
494,380,495,493,496
494,226,496,493,497
494,144,493,493,496
493,166,494,493,495
493,227,493,493,494
493,376,492,494,495
491,534,493,494,494
492,683,493,494,495
492,802,494,494,495
492,839,494,494,494
491,797,494,493,496
493,651,495,493,496
494,475,495,493,496
494,310,496,493,496
494,175,496,493,495
494,148,493,493,495
493,183,493,493,494
492,284,494,494,495
492,447,494,493,494
492,601,493,494,493
491,737,495,494,495
490,839,495,494,495
492,828,493,494,495
492,745,494,493,496
493,574,494,493,496
493,403,493,493,497
495,244,493,493,496
493,147,494,493,496
492,161,494,493,494
492,213,493,493,494
492,351,493,494,494
492,516,494,494,495
491,668,492,494,495
492,784,494,494,494
492,840,495,494,495
492,810,494,494,495
494,675,494,493,495
493,497,494,493,496
493,328,494,493,497
494,188,494,493,495
493,146,495,493,495
492,176,493,493,495
492,265,494,494,494
492,425,493,494,495
491,582,493,494,494
492,722,492,494,494
491,829,493,494,495
491,832,494,493,496
493,763,494,493,496
493,598,495,493,496
495,426,495,493,496
494,264,495,493,497
493,147,494,493,495
493,158,494,493,495
493,201,493,493,495
492,329,492,494,495
492,495,493,494,495
492,646,494,494,494
491,770,493,494,495
492,845,493,494,494
492,817,494,493,495
494,697,495,493,495
493,522,495,493,496
495,355,495,493,496
493,205,495,493,496
494,145,493,493,495
493,173,494,493,495
494,247,493,493,495
493,401,493,494,495
493,559,493,494,494
492,705,492,494,494
491,816,493,494,494
492,835,493,494,494
492,777,495,493,496
493,624,496,493,496
493,448,496,493,496
495,283,496,493,496
494,158,494,493,495
495,152,495,494,495
494,190,492,493,495
492,309,492,494,495
492,473,493,494,495
492,624,492,494,494
492,758,493,494,495
490,840,494,494,494
492,824,494,494,495
493,721,495,493,496
494,543,494,493,495
494,374,495,493,496
494,222,494,493,496
493,146,494,493,494
493,167,493,493,496
493,230,493,493,495
493,379,492,494,494
492,540,493,494,494
491,689,493,494,494
492,803,493,494,495
492,838,493,494,496
492,799,495,493,495
492,647,495,493,496
494,469,495,493,496
494,305,494,493,495
494,173,494,493,496
494,148,494,493,496
493,186,493,493,496
492,288,493,494,494
492,451,493,494,494
492,603,493,494,495
492,743,494,494,494
491,840,493,494,495
492,828,495,494,495
493,741,494,493,495
493,570,495,493,495
493,401,496,493,496
495,240,494,493,497
494,147,495,493,496
493,162,494,493,495
493,217,493,493,493
492,356,494,494,495
492,519,493,494,494
493,671,495,494,493
491,788,493,494,495
492,843,494,494,494
492,807,494,494,495
493,671,494,493,497
493,492,495,493,496
495,327,495,493,496
495,185,494,493,495
494,148,493,493,494
493,181,494,493,494
493,269,493,494,495
492,432,493,494,493
491,585,493,494,494
491,726,494,494,493
491,833,493,494,494
492,831,494,494,495
493,761,495,493,496
493,594,494,493,496
493,419,495,493,495
494,257,495,493,496
495,151,495,493,494
495,156,495,493,494
493,203,495,493,494
493,336,493,494,495
491,499,493,494,495
492,651,493,494,494
490,772,494,494,495
492,842,495,494,495
492,816,494,493,496
492,693,495,493,496
494,515,496,493,496
495,350,496,493,496
494,203,494,493,495
493,145,493,493,496
494,173,494,493,494
492,251,493,494,495
493,407,493,494,495
492,564,493,494,495
493,707,494,494,494
492,817,494,494,494
492,836,495,494,495
492,776,494,493,495
493,618,496,494,495
494,442,495,493,496
494,278,494,493,496
494,156,494,493,497
494,154,493,493,495
494,193,492,493,494
493,313,492,493,494
492,477,493,494,494
492,631,492,494,495
493,759,493,494,495
492,846,495,494,495
492,823,494,493,494
493,717,495,493,495
493,542,496,493,496
494,371,495,493,497
494,219,493,493,496
494,145,493,493,496
493,170,494,493,494
493,234,493,493,494
492,383,492,493,494
492,545,493,494,494
491,694,495,494,495
492,807,492,494,495
492,839,495,494,496
491,795,495,493,496
494,641,495,493,496
494,465,495,493,496
494,299,494,493,497
495,169,494,493,495
