Sensor0,Sensor1,Sensor2,Sensor3,Sensor4

495,493,495,493,493
495,493,495,493,345
495,493,495,493,242
494,493,495,493,212
496,493,494,493,232
496,494,494,493,287
495,494,493,491,392
494,494,494,492,525
494,494,493,491,665
494,494,492,492,796
493,494,495,493,814
492,494,495,493,757
494,493,496,493,591
495,493,496,494,427
493,493,495,493,285
492,493,495,493,222
492,493,495,493,216
492,494,495,492,247
489,494,494,494,326
491,494,494,492,450
493,494,493,493,585
494,494,494,492,736
493,494,494,492,822
494,494,494,493,802
492,494,495,493,695
494,494,496,493,516
493,493,495,494,365
494,494,494,492,248
493,493,495,493,211
493,493,494,492,228
492,494,495,492,273
491,494,493,492,375
492,494,495,492,506
493,494,493,492,642
493,494,495,492,790
493,494,494,492,817
494,494,495,493,776
494,493,495,493,617
495,493,495,494,445
494,494,495,494,301
494,493,494,494,229
493,493,494,492,215
494,494,495,493,242
492,494,494,493,314
493,494,493,492,433
494,494,494,492,566
493,494,494,492,716
493,494,494,492,818
494,494,494,493,805
494,494,495,493,718
493,494,495,494,538
493,493,495,494,383
495,493,495,494,257
495,493,495,493,215
494,493,495,493,223
492,494,495,493,267
494,494,495,492,360
492,494,494,492,491
493,494,494,493,624
492,494,495,492,776
493,494,494,491,819
493,494,494,493,788
493,494,494,494,641
493,494,496,494,468
494,494,496,493,321
494,493,495,493,234
493,493,494,494,213
495,493,494,494,238
495,494,495,492,302
495,494,494,492,416
494,494,493,491,548
492,494,494,491,693
491,494,494,492,813
492,494,494,492,811
492,494,494,493,739
494,493,495,493,561
495,493,495,495,404
495,493,496,494,265
494,493,494,493,217
494,493,494,493,221
495,494,494,492,256
494,494,495,490,342
492,494,494,492,472
493,494,493,492,607
493,494,495,491,760
492,494,494,493,823
494,494,494,493,795
494,493,494,494,667
494,493,495,494,487
495,493,495,494,340
496,493,494,493,239
494,493,495,493,213
495,493,494,493,234
492,494,496,493,290
491,494,494,492,398
492,494,494,492,531
493,494,494,493,673
491,494,493,491,803
492,494,493,492,815
494,494,495,492,753
493,493,496,495,586
494,493,495,493,422
494,493,496,493,280
495,493,495,493,221
492,493,495,493,218
493,493,494,492,249
493,494,494,492,331
493,494,494,492,456
494,494,494,492,589
494,494,493,492,741
493,494,494,492,823
494,494,494,493,801
495,493,495,493,689
494,493,496,493,508
494,493,496,494,359
495,493,495,493,247
494,493,494,493,212
493,493,495,493,230
493,493,495,492,276
495,494,494,492,380
495,494,494,493,511
496,494,493,492,647
494,494,493,492,793
495,494,494,492,817
495,494,495,492,771
494,493,495,494,611
496,493,496,494,442
496,493,495,495,298
493,493,495,494,226
493,493,494,493,214
494,494,494,492,243
493,494,493,495,316
492,494,494,493,438
492,494,495,492,572
493,494,493,493,722
496,494,494,493,821
495,493,494,494,806
498,493,494,494,712
496,493,495,494,534
493,494,496,493,379
490,494,495,494,253
488,494,495,492,213
491,494,495,492,224
492,494,494,493,271
493,494,494,491,395
494,494,494,492,535
493,494,494,492,668
492,494,493,492,766
493,494,494,492,808
494,494,495,493,774
494,494,495,493,649
494,493,495,493,493
494,494,495,494,348
493,493,495,493,228
494,493,495,493,192
493,493,495,493,222
494,494,493,492,305
493,494,494,492,447
493,494,494,491,583
494,494,493,493,706
494,494,494,492,793
494,494,494,493,790
496,494,494,492,724
494,494,495,493,576
494,493,496,494,427
494,493,495,494,287
493,493,495,493,190
494,493,495,493,199
493,494,494,495,242
494,494,494,491,360
493,494,494,492,503
493,494,494,492,638
494,494,494,492,742
494,494,494,492,801
494,494,495,492,775
495,493,495,492,662
494,493,495,494,508
496,493,495,493,363
496,493,495,493,235
492,493,494,493,187
495,493,493,493,212
496,493,493,493,284
492,494,495,491,423
493,494,495,493,562
494,494,493,492,688
494,494,495,492,781
493,494,494,493,791
493,494,494,493,736
495,494,496,493,596
494,493,495,494,444
494,493,496,493,301
493,493,495,495,194
493,494,495,494,193
493,494,496,492,230
492,494,493,493,339
492,494,493,491,485
494,494,492,493,620
495,494,492,492,735
494,494,494,495,802
494,494,493,492,780
496,494,495,493,681
497,493,496,494,528
494,493,495,494,382
493,493,497,495,251
493,494,495,495,187
490,494,495,494,207
494,494,493,493,268
493,494,495,493,404
494,494,493,493,544
495,494,495,492,675
496,494,494,493,768
494,494,495,493,794
495,494,494,492,749
494,493,495,492,617
494,494,494,494,462
494,494,496,494,321
496,493,496,493,209
496,493,494,494,190
494,493,494,494,224
494,494,495,491,323
494,494,494,493,467
492,494,494,491,600
493,494,495,490,719
493,494,493,493,796
491,494,494,492,785
493,493,495,493,699
494,493,495,493,549
494,494,496,493,401
495,493,496,493,264
494,493,496,491,185
494,494,494,493,204
493,494,495,492,254
495,494,493,492,383
493,494,493,493,525
494,494,493,493,659
495,494,494,492,760
494,494,494,492,797
496,494,493,493,763
494,493,494,492,637
494,493,494,493,484
496,493,495,493,339
497,493,495,494,219
494,493,495,492,189
493,494,494,490,218
492,494,494,492,305
492,494,493,493,447
493,494,493,491,584
495,493,494,491,707
495,494,494,491,793
494,494,494,492,786
495,494,495,493,716
494,494,496,493,569
493,494,495,494,419
493,493,495,494,280
495,493,495,494,189
498,493,493,492,200
498,493,495,493,245
497,494,494,492,364
496,494,493,492,510
493,494,494,491,641
492,494,495,493,745
493,494,493,492,799
493,494,495,492,772
492,494,495,493,655
493,494,495,493,501
494,494,495,493,357
494,494,495,493,233
493,493,494,493,186
493,494,494,492,213
493,494,495,492,287
493,494,494,492,427
493,494,494,493,565
494,494,493,492,690
494,494,494,492,784
495,494,494,492,790
494,494,493,493,734
496,493,496,494,589
496,493,496,494,439
497,493,495,494,296
496,493,494,494,192
494,493,494,492,197
493,493,494,492,232
492,494,494,492,344
492,494,494,493,489
494,494,494,492,623
493,494,494,492,734
495,494,494,492,801
495,493,494,492,778
497,494,494,492,676
498,493,495,493,522
497,493,495,494,375
495,493,494,494,244
493,493,495,493,187
493,493,494,493,209
492,494,493,493,272
494,494,494,492,408
494,494,493,491,546
493,494,493,492,676
491,494,494,492,773
494,494,493,492,792
495,494,495,492,745
495,493,495,493,610
495,493,495,493,456
494,493,494,493,311
494,493,495,494,203
495,493,494,493,195
494,493,494,494,225
493,494,493,493,328
493,494,493,492,471
494,494,493,492,606
494,494,493,494,721
494,494,494,492,798
495,494,495,492,783
494,493,494,492,695
495,493,496,494,540
494,493,495,494,393
494,493,495,493,258
494,493,495,493,187
494,493,493,493,204
493,494,495,492,258
493,494,494,492,388
493,494,494,492,530
494,494,493,491,660
494,494,494,492,763
494,494,494,493,796
496,494,494,494,761
496,493,494,494,633
497,494,496,494,476
495,494,496,493,332
494,493,495,493,214
496,493,494,493,191
495,494,494,492,220
496,494,494,491,309
494,494,494,492,451
491,494,493,492,587
493,494,494,492,709
495,494,495,492,795
495,494,494,492,786
495,494,495,492,713
495,493,495,493,564
494,493,495,494,413
495,493,495,493,275
494,493,495,493,190
493,494,494,494,200
495,494,494,492,248
494,494,494,492,369
494,494,493,491,514
494,494,494,491,646
493,494,493,492,748
490,494,494,493,799
494,494,495,492,771
496,494,495,492,650
495,493,496,493,496
494,493,495,494,348
493,493,495,493,227
494,493,494,492,188
493,493,493,493,215
494,494,493,492,294
492,494,494,492,434
494,494,494,492,571
494,494,494,492,696
495,494,492,492,789
496,494,493,492,789
498,494,494,493,728
497,493,494,494,584
496,493,496,494,433
494,493,495,495,291
493,493,495,494,193
493,493,494,492,197
494,494,494,492,235
494,494,495,493,351
493,494,494,491,494
493,494,493,492,628
494,494,493,492,737
495,494,494,492,799
495,494,494,494,776
495,493,495,492,670
497,493,494,493,516
497,493,495,494,372
495,493,495,494,241
494,493,495,493,186
493,493,494,493,210
492,494,494,493,276
494,494,493,492,413
494,494,493,492,551
494,494,493,492,679
495,494,494,493,774
496,494,494,492,792
495,494,494,492,741
497,494,496,495,605
497,494,494,493,452
495,494,494,495,308
495,493,494,493,199
494,493,493,493,195
493,494,494,492,227
492,494,493,492,331
494,494,494,494,476
493,494,494,491,611
494,494,492,493,725
494,494,494,493,798
494,494,494,493,781
495,494,494,493,690
494,493,495,493,536
493,493,495,494,388
494,494,496,494,255
494,494,495,494,187
493,493,494,492,207
494,493,495,493,263
494,494,494,492,395
492,494,493,493,535
494,494,494,491,666
494,494,493,491,765
496,494,494,492,794
496,494,493,492,757
495,494,493,494,624
494,493,495,493,469
495,493,495,493,326
495,494,494,494,211
496,494,493,494,193
496,494,495,493,221
496,494,493,492,315
494,494,493,492,458
492,494,493,492,592
490,494,493,492,711
492,494,494,492,796
493,494,494,493,784
494,494,495,493,706
495,493,494,493,555
496,493,494,494,409
494,493,495,494,271
495,493,494,494,189
493,493,493,493,201
495,494,494,492,252
495,494,493,492,375
494,494,493,491,516
493,494,493,491,649
494,494,494,491,752
494,494,494,492,798
494,494,493,494,768
495,493,494,493,644
496,493,496,494,491
495,493,494,493,345
495,493,495,494,222
494,493,494,492,190
494,494,494,493,217
494,494,494,493,296
494,494,493,492,439
493,494,492,492,577
493,494,492,491,699
494,494,494,492,790
495,494,493,492,788
496,494,494,493,725
496,493,495,494,577
495,493,495,494,429
494,493,496,493,287
494,493,494,493,191
495,493,494,492,199
496,494,493,493,239
495,494,493,493,357
494,494,493,492,501
492,494,494,493,632
493,494,494,492,738
494,494,493,491,799
495,494,494,492,773
495,494,494,494,665
496,493,495,494,509
494,494,495,495,364
495,493,495,495,237
495,493,494,493,188
494,493,495,492,212
495,494,494,492,283
495,494,493,493,421
495,494,493,492,557
494,494,493,492,684
494,494,493,493,778
494,494,494,492,791
496,494,494,494,736
496,493,494,493,596
496,494,494,494,446
495,493,495,493,302
492,494,494,493,197
493,494,494,493,195
493,494,494,494,231
495,494,494,493,337
495,494,493,491,482
494,494,494,492,615
495,494,491,491,727
495,494,493,492,800
495,494,493,491,780
495,494,494,492,683
496,494,495,493,532
495,493,494,493,384
494,493,494,493,249
494,493,494,494,187
493,494,493,492,208
493,494,493,492,266
493,494,493,492,400
493,494,494,492,540
494,494,492,493,670
494,494,493,491,769
495,494,493,492,794
494,494,494,492,752
495,493,495,493,619
495,493,495,493,465
495,493,495,494,320
494,493,495,493,209
494,494,495,493,195
494,494,494,494,224
494,494,494,491,319
494,494,493,492,464
494,494,494,492,599
493,494,493,491,716
495,494,493,492,796
494,494,493,492,782
495,494,494,493,701
495,493,494,493,551
495,493,495,493,401
496,493,494,493,265
495,493,494,493,189
494,494,494,493,203
493,494,494,492,253
493,494,494,492,380
494,494,493,492,522
494,494,493,491,653
493,494,494,491,755
494,494,493,491,796
494,494,494,491,764
495,493,494,493,639
495,493,495,494,485
495,493,494,493,340
494,493,494,494,220
496,493,494,493,191
496,494,495,493,220
496,494,493,492,304
495,494,493,491,445
494,494,493,492,577
493,494,493,492,702
494,494,492,492,792
493,494,494,493,784
493,494,495,493,719
494,493,495,493,572
495,494,495,494,423
494,493,496,495,281
494,494,494,493,190
494,494,494,491,200
493,494,494,492,244
494,494,493,491,360
493,494,493,492,503
493,494,494,491,637
494,494,493,491,740
496,494,493,492,799
497,494,494,492,772
497,494,494,492,659
494,493,495,493,504
491,494,495,493,358
492,494,495,494,232
493,493,494,493,188
493,494,494,492,214
494,494,494,493,287
494,494,493,492,426
493,494,493,492,563
494,494,493,492,688
494,494,494,492,782
494,494,493,493,789
494,494,494,493,733
494,493,494,493,592
496,494,494,494,441
495,494,494,494,297
494,493,495,493,194
495,494,494,491,197
494,494,493,494,231
493,494,494,493,343
493,494,493,492,485
493,494,493,491,619
494,494,494,491,730
493,494,494,491,799
495,494,494,493,779
495,494,494,494,678
496,494,495,493,524
496,493,495,494,379
494,493,495,493,246
493,493,496,493,188
493,494,493,492,211
496,494,493,492,271
494,494,493,492,406
493,494,493,491,543
494,494,493,491,673
495,494,494,491,769
495,494,494,492,791
494,494,493,494,747
494,494,495,493,613
495,493,495,493,460
495,494,494,494,317
495,493,495,492,206
496,493,495,492,194
496,494,494,492,226
494,494,494,491,324
492,494,493,492,468
492,494,493,492,603
493,494,493,491,718
494,494,493,492,798
495,494,494,493,783
495,494,494,492,697
495,494,495,493,545
494,493,495,492,395
494,493,495,493,259
494,494,495,492,188
493,494,495,492,205
493,494,495,491,258
493,494,493,492,384
494,494,493,492,527
493,494,493,492,659
494,494,492,492,760
494,494,494,493,796
495,494,493,492,762
495,494,495,494,634
495,493,494,492,478
495,493,495,494,334
494,493,495,493,217
495,493,495,492,191
495,494,494,495,221
494,494,493,492,309
493,494,493,492,451
494,494,493,492,584
493,494,493,491,707
496,494,493,492,792
496,494,494,493,785
495,494,495,493,714
494,494,494,493,565
494,494,494,492,417
495,493,494,492,279
495,493,494,496,192
498,494,494,492,201
497,494,493,492,248
495,494,493,492,367
491,494,493,491,509
492,494,493,491,641
493,494,495,491,744
494,494,494,493,798
495,494,493,492,770
495,494,494,493,653
495,494,494,493,499
494,493,495,493,353
493,493,495,493,229
494,493,494,493,188
494,494,495,494,215
494,494,494,494,289
493,494,492,492,429
493,494,494,492,569
494,494,493,492,692
494,494,493,492,787
494,494,493,492,789
495,494,495,494,730
495,494,495,493,587
495,493,495,494,435
495,493,494,494,293
495,493,494,493,192
494,493,495,494,197
494,494,494,492,236
494,494,493,491,347
494,494,493,492,492
494,494,494,491,625
495,494,493,490,734
494,494,494,492,800
495,494,494,492,776
495,494,495,494,673
495,494,495,494,519
496,493,494,493,372
495,493,496,494,243
494,493,494,492,188
494,494,494,493,211
494,494,493,493,273
494,494,493,493,412
494,494,493,492,549
494,494,494,492,676
494,494,493,492,772
494,494,494,493,790
494,494,495,493,744
495,493,494,493,608
495,493,495,493,454
496,494,494,494,310
494,494,495,493,202
493,494,495,494,195
494,494,494,492,228
493,494,494,492,331
493,494,493,491,474
494,494,494,492,607
494,494,494,491,723
494,494,494,492,799
494,494,494,492,782
496,494,494,492,692
496,493,495,493,540
495,493,495,494,391
494,493,495,492,258
494,493,495,493,186
494,494,494,493,207
493,494,493,494,261
494,494,493,492,391
494,494,494,492,530
493,494,493,492,662
495,494,493,492,765
494,494,494,493,795
495,494,495,492,759
494,493,495,493,628
495,493,495,493,474
495,493,495,493,330
494,493,495,493,212
495,494,495,493,193
495,494,495,494,220
493,494,493,492,313
494,494,494,491,456
494,494,494,491,589
494,494,493,491,711
494,494,493,492,793
494,494,494,494,785
494,494,494,492,709
495,493,495,494,558
496,493,495,492,409
495,493,497,495,273
495,493,495,494,191
494,494,495,492,203
495,493,494,491,249
495,494,494,492,372
494,494,493,492,515
495,494,493,492,647
495,494,494,492,749
494,494,494,494,798
494,494,493,492,770
493,494,494,494,648
493,494,495,493,493
495,493,495,492,348
497,493,495,494,226
496,493,495,494,189
495,493,493,493,215
495,494,494,492,296
494,494,494,491,437
493,494,493,491,571
493,494,494,491,696
494,494,493,492,788
494,494,494,493,788
494,494,495,492,726
495,493,495,494,581
495,493,496,492,431
495,493,495,495,290
496,493,495,493,193
494,494,493,492,198
492,494,494,493,238
492,494,493,492,353
494,494,493,492,496
494,494,493,492,630
495,494,492,491,738
494,494,494,491,799
493,494,494,493,776
494,494,494,493,667
495,493,495,492,513
498,493,495,494,369
497,493,495,493,239
496,493,494,493,188
495,494,494,492,213
495,494,494,492,278
493,494,493,492,418
493,494,493,491,555
493,494,493,492,683
493,494,493,493,777
494,494,494,492,791
496,494,494,493,740
496,494,495,493,601
495,493,494,493,449
494,493,495,494,305
493,494,495,493,198
493,493,494,493,196
494,494,494,492,228
493,494,493,491,335
492,494,493,492,479
494,494,494,492,612
493,494,493,492,725
494,494,493,492,798
495,494,494,492,780
494,494,493,492,686
495,493,494,493,534
494,493,495,493,386
495,493,494,495,254
494,493,494,493,187
494,494,495,493,208
493,494,494,492,265
494,494,494,493,398
494,494,494,492,536
494,494,493,492,666
495,494,493,493,766
498,494,494,494,794
498,494,495,493,754
497,494,494,493,622
496,493,496,494,469
494,494,495,494,326
494,493,494,494,210
493,493,494,492,193
493,494,495,493,224
493,494,493,492,317
491,494,493,492,460
493,494,493,492,594
493,494,494,492,714
496,494,494,492,796
496,494,494,492,783
495,494,494,492,704
496,493,495,493,553
495,493,495,492,405
494,493,496,492,268
494,493,495,493,189
494,494,494,493,203
492,494,495,492,255
494,494,493,492,377
493,494,492,491,520
494,494,494,491,651
493,494,493,492,753
494,494,494,493,797
494,494,495,492,767
495,493,495,493,642
495,493,495,493,488
494,493,496,493,342
494,493,494,494,222
494,493,495,493,191
494,494,494,492,217
494,494,494,492,301
494,494,493,492,443
494,494,494,491,578
493,494,494,491,700
493,494,493,492,790
494,494,494,492,787
495,494,494,493,722
495,493,495,493,574
495,493,496,494,426
494,493,495,494,285
494,493,495,493,192
495,493,495,493,200
494,494,495,492,242
494,494,493,492,360
493,494,494,492,502
494,494,493,492,634
494,494,492,494,740
494,494,494,492,799
495,494,496,492,773
495,493,494,494,661
495,494,495,494,507
495,493,495,494,363
494,493,495,495,214
495,493,495,492,186
493,494,493,492,218
493,494,495,493,273
493,494,494,493,378
494,494,494,493,486
494,494,492,491,672
494,494,494,491,801
494,494,496,491,801
497,494,497,492,744
496,493,494,495,573
496,494,495,495,382
495,494,495,493,275
494,493,495,493,222
494,493,493,492,220
495,494,495,493,251
493,494,494,492,334
492,494,494,492,438
493,494,493,493,579
494,494,491,491,751
493,494,493,493,824
493,494,495,491,801
494,494,494,493,685
494,493,495,494,493
494,493,495,494,325
494,494,496,494,252
495,494,495,493,218
494,494,495,493,237
492,494,495,490,285
493,494,494,493,391
494,494,494,492,535
493,494,494,492,668
493,494,493,492,791
494,494,494,493,814
494,494,493,493,763
496,494,496,493,608
495,493,496,494,450
494,493,495,495,309
494,493,494,493,218
494,494,494,492,208
493,494,495,494,237
494,494,494,493,317
493,494,493,491,442
493,494,493,492,583
493,494,494,491,719
494,494,494,492,814
495,494,494,491,797
495,494,494,493,701
495,493,495,494,518
495,493,495,493,375
494,493,494,492,251
493,493,494,493,211
494,494,495,493,226
493,494,495,493,269
494,494,494,492,383
494,494,493,492,517
494,494,493,492,649
493,494,492,492,776
495,494,495,492,811
496,494,495,492,777
495,493,495,494,649
495,494,495,493,494
494,493,495,494,348
495,493,495,494,228
494,493,494,492,197
494,494,496,494,226
493,494,494,493,311
493,494,494,492,452
494,494,494,493,587
494,494,493,492,709
493,494,494,491,794
495,494,494,493,787
494,494,494,494,713
495,493,494,494,553
495,493,496,493,399
495,493,496,493,256
495,493,494,493,202
494,494,495,493,211
494,494,495,494,252
496,494,495,492,344
494,494,494,492,476
494,494,493,492,609
494,494,494,492,760
494,494,493,492,815
495,494,494,492,786
496,493,494,494,649
496,494,496,494,465
496,493,495,494,320
496,494,496,493,236
496,493,495,493,212
497,493,495,493,235
496,494,495,492,295
493,494,494,491,401
491,494,493,492,534
492,494,493,492,684
492,494,494,492,809
494,494,493,493,812
494,494,494,492,745
496,494,495,493,571
495,493,496,493,413
495,493,495,495,276
494,493,494,492,221
493,494,494,492,221
493,494,495,492,254
493,494,496,493,343
495,494,494,491,476
495,494,493,491,608
493,494,495,490,748
496,494,493,493,817
496,494,496,493,793
494,494,494,493,677
496,493,496,495,509
494,493,495,493,359
493,493,495,493,238
494,494,495,494,207
493,494,495,493,228
496,494,496,494,280
497,494,495,493,389
497,494,494,491,520
495,494,493,491,658
494,494,491,491,792
493,494,493,494,812
494,494,494,494,759
495,493,495,493,594
495,494,495,494,423
494,493,494,494,282
494,493,495,493,224
493,493,495,494,218
495,494,495,493,246
495,494,495,492,324
496,494,492,492,440
495,494,493,492,575
494,494,494,490,734
493,494,493,490,821
495,494,493,491,803
494,494,494,493,701
494,493,497,493,512
496,493,495,494,360
495,493,496,492,253
496,494,494,492,214
493,494,495,492,230
494,494,494,492,276
496,494,494,492,372
493,494,493,492,502
494,494,494,492,638
494,494,492,493,788
494,494,496,490,817
497,494,493,494,777
494,494,495,495,623
497,494,494,492,452
495,494,495,493,307
495,493,496,492,230
495,493,494,494,216
494,494,494,493,243
494,494,493,491,312
493,494,494,492,426
494,494,494,492,558
494,494,493,493,715
493,494,494,490,818
496,494,495,491,806
494,494,494,493,722
497,494,495,492,540
496,493,498,491,379
497,493,496,492,262
496,494,497,493,217
496,494,496,494,224
495,494,496,492,268
494,494,494,491,357
496,494,494,491,470
493,494,492,492,619
492,494,494,491,776
493,494,494,492,823
494,494,495,491,791
497,494,495,492,648
495,493,495,494,455
497,493,495,492,309
497,493,493,491,242
495,493,493,494,219
493,494,494,493,243
494,494,495,492,303
493,494,494,493,404
494,494,493,492,535
493,494,493,490,696
494,494,494,492,815
496,494,495,493,816
496,494,496,494,746
494,494,496,496,566
493,493,495,493,404
496,494,495,495,270
493,494,495,494,221
493,493,493,491,225
493,494,496,492,258
495,494,494,491,346
494,494,493,492,479
494,494,494,491,610
495,494,493,493,753
495,494,494,493,821
496,494,494,494,795
495,494,495,493,670
497,493,495,493,499
497,493,495,493,348
496,493,495,493,239
495,493,494,493,210
495,493,495,492,229
493,494,495,494,285
496,494,493,491,392
495,494,493,492,522
494,494,494,491,668
495,494,494,493,799
494,494,493,493,813
494,494,496,492,756
496,494,495,494,588
495,494,495,494,416
496,493,497,494,278
495,493,495,493,225
494,493,495,492,218
492,494,495,494,247
492,494,495,493,328
493,494,494,492,440
494,494,493,493,578
493,494,494,492,742
494,494,493,491,821
496,494,496,491,804
495,493,495,493,697
495,493,496,493,507
495,494,495,494,354
494,493,496,493,253
495,493,494,494,214
495,494,495,491,230
493,494,493,492,279
493,494,495,493,374
493,494,494,491,505
495,494,494,491,649
494,494,494,491,792
495,494,495,492,819
495,494,496,493,777
495,493,494,494,617
496,493,495,493,444
496,493,495,493,302
494,493,495,493,230
493,493,494,494,217
493,494,496,494,245
495,493,495,492,317
495,494,494,492,439
496,494,494,492,569
495,494,494,493,717
493,494,494,491,818
495,494,494,491,804
496,494,494,493,716
496,493,495,494,536
497,493,495,492,383
496,493,495,494,257
497,493,495,494,215
496,493,496,494,224
495,494,495,492,268
491,494,496,492,359
489,494,494,492,486
492,494,493,490,622
494,494,492,490,776
493,494,493,492,819
494,494,494,492,787
495,493,495,493,639
496,494,495,494,460
496,493,496,494,315
496,493,494,492,237
496,493,494,493,213
494,494,493,492,239
493,494,495,492,302
494,494,494,491,409
493,494,493,493,544
493,494,495,490,701
494,494,493,492,814
495,494,493,494,809
496,494,494,493,737
495,493,495,492,556
494,493,495,493,394
495,493,494,493,266
495,493,495,493,221
493,494,496,492,224
493,494,495,493,261
493,494,493,492,346
494,494,493,492,468
493,494,493,493,602
495,494,493,490,762
494,494,495,494,823
495,494,495,493,795
495,493,494,494,665
495,493,496,493,478
495,493,496,493,334
495,493,495,493,244
494,493,494,493,213
495,493,493,493,237
494,494,493,493,292
494,494,494,493,397
493,494,494,492,532
495,494,493,492,674
495,494,495,492,804
494,494,494,492,814
494,494,495,494,751
497,493,496,494,585
495,493,495,494,422
495,493,495,494,281
493,493,494,494,222
493,494,494,494,219
493,494,494,492,250
495,494,497,491,332
493,494,494,492,459
495,494,494,491,590
494,494,494,493,741
494,494,493,492,821
495,494,495,492,799
495,494,495,493,688
496,493,494,494,506
495,493,495,494,356
495,493,496,493,248
495,493,495,493,212
495,493,495,492,231
496,493,495,493,280
497,494,494,492,378
495,494,493,491,509
494,494,493,491,654
494,494,494,493,793
494,494,495,492,816
494,494,494,493,771
495,493,494,492,608
494,493,495,493,433
494,494,495,494,293
493,493,495,493,228
493,493,493,492,217
493,494,496,493,246
494,494,493,492,319
494,494,494,491,435
495,494,494,491,570
494,494,494,490,727
493,494,494,492,820
495,494,494,493,805
494,494,495,493,711
496,493,496,494,526
495,493,495,495,375
494,493,495,492,256
495,493,495,493,216
495,493,494,493,228
495,493,494,492,270
494,494,494,493,367
495,494,494,493,497
494,494,494,491,632
495,494,495,493,781
494,494,494,491,820
494,494,494,493,784
495,493,495,494,634
495,493,495,494,459
496,493,496,495,316
495,493,496,494,233
494,493,494,493,215
495,493,495,493,239
494,494,495,493,305
493,494,495,492,419
493,494,493,491,551
494,494,494,491,702
495,494,494,492,815
496,494,494,493,809
495,494,496,493,732
496,493,496,493,552
495,494,495,494,396
494,494,494,493,264
492,493,494,493,219
493,493,495,494,223
494,494,495,494,262
492,494,493,492,350
494,494,493,493,476
494,494,494,493,611
493,494,493,491,765
496,494,493,493,822
496,494,495,492,793
497,494,494,493,660
496,493,496,494,479
494,493,496,494,333
494,493,496,493,240
493,493,495,493,214
493,493,494,493,235
493,494,494,492,295
494,494,493,492,402
493,494,495,492,537
494,494,492,491,682
494,494,493,491,806
495,494,494,492,812
496,494,494,493,749
496,493,495,494,576
495,493,495,493,413
495,493,496,493,273
494,493,495,493,221
495,493,495,493,220
495,493,494,493,252
494,493,494,492,336
494,494,495,492,461
495,494,493,491,595
493,494,493,491,747
493,494,494,492,821
495,494,494,492,799
496,494,496,493,681
496,494,495,494,500
496,493,495,493,351
495,493,495,494,246
494,493,495,494,212
494,494,494,494,232
495,494,493,492,283
494,494,494,492,385
494,494,495,492,516
494,494,493,491,657
494,494,492,492,794
494,494,494,492,815
496,494,495,492,763
496,493,496,495,600
497,493,496,493,431
495,493,495,493,292
495,493,495,493,226
495,493,495,493,217
495,494,495,493,245
495,493,493,492,324
494,494,494,492,443
494,494,495,491,575
494,494,495,491,730
494,494,494,492,822
494,494,495,494,803
495,493,495,493,706
495,493,494,494,521
495,493,496,492,368
494,493,496,494,253
493,493,494,493,214
494,493,494,493,228
493,494,494,492,272
493,494,495,493,368
495,494,494,493,498
494,494,494,492,637
495,494,493,493,787
495,494,493,492,818
497,494,494,492,781
496,493,495,493,628
497,494,497,494,450
496,493,495,494,307
495,493,495,493,232
493,494,495,492,216
493,494,494,492,241
494,494,494,492,310
492,494,494,492,424
493,494,495,493,559
494,494,493,490,709
494,494,494,491,816
494,494,493,492,808
495,494,494,492,725
495,494,495,494,545
496,493,496,492,391
495,493,495,493,261
494,493,495,494,217
494,493,495,493,225
494,493,495,493,265
494,494,494,493,356
493,494,494,492,484
494,494,494,492,617
494,494,494,493,770
494,494,493,492,820
495,494,494,492,790
495,493,495,493,649
495,494,496,494,471
494,493,495,493,328
494,493,494,493,237
494,493,494,492,213
494,493,495,495,237
493,494,494,492,298
493,494,494,492,406
494,494,494,492,540
494,494,494,492,689
496,494,492,491,811
495,494,495,491,811
495,494,495,492,743
496,493,496,493,568
495,493,495,493,406
495,493,495,494,270
494,493,495,493,219
495,493,495,491,221
494,493,494,493,255
493,494,494,493,340
495,494,493,492,464
494,494,494,492,600
494,494,494,491,755
496,494,495,492,822
494,494,493,489,797
496,494,498,494,672
494,494,495,493,489
494,493,494,492,343
494,493,495,493,244
493,494,496,494,211
495,494,494,493,234
493,494,495,493,287
493,494,494,492,384
494,494,493,492,514
494,494,494,491,667
494,494,492,492,797
495,494,495,493,815
494,493,494,493,759
495,493,495,493,591
495,493,495,493,418
495,493,495,493,281
495,493,495,493,226
493,493,495,493,219
494,494,495,492,249
494,494,495,494,328
493,494,494,492,444
494,494,494,492,579
495,494,494,492,736
495,494,495,492,820
494,494,495,492,802
495,493,495,493,696
496,493,495,493,518
494,493,496,494,366
494,493,497,495,249
493,493,495,492,211
493,494,494,493,228
493,493,495,493,274
494,494,492,493,375
494,494,493,493,504
495,494,493,492,642
495,494,494,492,788
495,494,495,492,816
495,494,494,492,775
495,494,495,493,620
496,493,495,494,444
495,493,494,493,300
494,493,496,492,231
494,493,495,492,216
494,493,495,492,244
493,494,496,492,314
493,494,494,493,423
493,494,494,493,556
493,494,494,493,719
494,494,493,492,817
494,494,495,492,808
495,493,495,492,722
496,494,496,494,535
496,493,495,494,377
496,493,496,493,259
496,493,495,493,218
494,493,495,492,227
493,493,495,494,269
492,494,494,491,358
494,494,494,492,487
495,493,495,492,621
495,494,495,492,776
496,494,494,492,820
494,494,494,493,789
494,494,498,493,644
495,493,495,494,467
496,494,496,493,323
496,493,495,494,236
497,493,496,495,214
494,494,493,492,239
491,494,493,495,301
492,494,494,492,417
493,494,494,492,550
493,494,494,493,693
492,494,493,491,811
494,494,496,493,809
494,494,495,491,740
496,493,496,494,565
498,493,495,494,405
495,494,495,493,265
493,493,495,493,218
495,493,495,492,222
491,494,493,492,256
493,494,494,491,344
493,494,494,493,468
494,494,495,491,602
494,494,495,493,760
495,494,494,492,824
495,494,495,491,796
493,494,494,492,669
494,493,496,493,485
495,493,495,494,337
495,493,494,493,243
495,493,495,492,213
493,494,495,492,234
493,494,495,492,289
492,494,495,492,393
495,494,493,492,524
497,494,492,491,674
497,494,493,492,803
497,494,495,492,813
499,494,495,493,756
495,493,495,494,586
495,493,497,495,419
495,494,497,493,279
494,493,495,493,224
493,494,495,493,220
491,494,496,494,251
494,494,495,493,331
493,494,494,493,453
493,494,494,492,589
494,494,493,492,742
494,494,494,492,821
495,494,495,493,802
494,493,495,493,693
496,493,496,495,510
495,494,496,494,360
495,493,495,493,250
495,493,495,494,214
496,493,495,493,231
495,494,493,491,279
494,494,495,492,379
494,494,494,492,510
493,494,493,492,649
496,494,493,491,791
496,494,494,493,817
499,494,495,492,772
494,494,495,493,611
492,494,496,494,439
494,493,495,494,298
495,493,495,493,231
495,493,495,493,217
496,493,495,494,246
498,493,494,491,318
492,494,493,492,431
489,494,494,492,564
490,494,494,492,721
492,494,494,492,820
494,494,494,493,805
496,494,494,493,714
496,493,495,494,529
496,493,494,492,375
494,493,494,494,257
494,493,495,493,217
494,493,494,492,225
494,494,494,493,269
494,494,494,493,362
494,494,493,492,491
494,494,493,492,626
495,494,493,492,782
495,494,495,492,822
495,494,494,493,785
496,494,496,493,638
494,493,496,493,458
492,493,496,494,316
494,493,495,493,235
495,493,494,493,215
494,494,493,493,240
495,494,495,493,306
496,494,494,493,416
496,494,493,492,553
495,494,494,492,702
493,494,493,491,814
493,494,495,491,809
493,494,495,493,734
494,494,494,493,554
496,493,497,494,396
496,493,496,495,267
495,493,495,493,218
496,493,494,493,223
495,493,493,493,260
494,494,494,493,348
495,494,494,492,476
493,494,494,491,608
492,494,493,493,762
494,494,493,491,823
495,494,494,493,794
494,494,494,494,660
493,493,495,495,478
494,493,495,493,334
497,493,495,494,242
496,493,494,496,213
496,493,494,494,237
496,494,495,492,293
495,494,493,493,398
495,493,494,491,531
494,494,494,490,679
490,494,493,492,806
491,494,494,494,814
493,494,495,492,752
495,493,496,495,579
494,493,495,493,415
495,493,496,493,274
497,493,495,495,223
497,493,494,493,220
498,494,494,493,251
499,494,493,493,335
494,494,494,491,455
489,494,494,491,591
492,494,493,491,748
494,494,493,492,824
493,494,494,492,801
494,493,496,494,686
495,493,496,495,503
498,493,495,495,353
499,493,494,495,249
499,493,495,493,214
494,494,494,492,232
493,494,495,493,282
493,494,494,492,382
494,494,495,492,514
492,494,494,491,656
493,494,494,491,795
493,494,494,493,816
494,494,495,493,765
493,493,495,494,603
496,493,495,493,432
495,493,496,494,291
495,493,494,496,227
494,493,495,493,217
492,494,494,494,244
491,493,494,494,322
493,494,494,493,438
494,493,494,494,574
495,494,493,492,726
496,494,494,492,819
494,494,495,494,805
495,493,495,493,706
496,494,497,494,523
495,493,495,493,371
495,493,495,493,254
497,493,494,493,214
497,493,494,493,228
497,493,494,493,272
494,494,494,493,366
496,494,494,492,496
494,494,495,491,632
494,494,496,492,785
496,494,495,493,820
498,493,495,492,784
495,493,496,495,630
492,494,495,494,456
492,494,496,494,311
493,493,496,493,232
493,494,495,494,216
494,493,494,493,241
496,493,496,493,308
498,494,495,492,421
496,494,494,493,556
495,494,493,491,709
495,494,495,493,818
495,493,495,494,810
497,494,494,496,730
497,494,494,494,548
494,493,495,493,391
493,494,496,495,263
489,494,495,492,217
489,494,494,494,224
495,493,495,494,262
498,494,494,493,350
498,494,494,492,477
494,494,494,493,614
493,494,494,491,769
495,494,495,493,822
495,494,494,493,792
494,494,495,495,657
495,494,496,495,474
494,494,496,495,328
495,494,495,493,240
495,493,495,493,214
496,494,494,493,237
495,494,494,491,296
493,494,494,493,403
490,494,494,493,537
493,494,493,490,685
497,494,493,490,810
497,494,495,493,814
499,494,497,492,749
496,494,495,495,572
492,494,496,495,411
495,493,496,493,273
496,494,495,493,220
494,494,495,493,219
493,493,492,493,252
495,494,493,491,336
492,494,494,493,461
493,494,494,491,596
493,494,493,491,752
492,494,494,492,825
493,494,493,493,799
496,493,495,494,681
498,493,496,494,498
500,494,496,493,351
498,493,496,493,244
495,493,495,493,212
494,494,495,494,229
495,494,494,492,283
492,494,495,492,385
493,494,494,492,517
495,494,493,492,664
493,494,494,492,798
495,494,495,493,817
495,494,496,493,764
497,493,496,494,598
498,494,495,494,427
497,493,495,494,286
494,494,495,494,226
493,494,494,494,216
492,494,495,495,247
493,494,495,494,325
496,493,494,493,443
498,494,494,493,577
498,494,492,493,736
493,494,494,491,822
497,494,493,493,804
500,494,495,493,704
499,494,495,495,517
499,494,497,495,362
494,494,496,495,253
491,494,495,495,212
492,493,495,492,228
495,494,494,493,274
498,494,494,492,368
497,494,494,492,500
495,494,493,494,639
496,494,493,492,789
497,494,494,493,821
496,494,495,491,782
492,494,495,493,623
492,493,495,494,449
495,494,495,495,306
497,493,495,494,232
494,494,496,493,214
493,494,493,493,240
490,494,494,491,311
491,494,494,492,425
496,494,494,492,559
496,494,493,490,714
494,494,494,492,820
494,494,493,492,810
493,494,494,494,725
496,494,496,496,543
499,494,496,495,388
501,493,495,493,260
495,494,494,491,216
492,494,493,493,224
491,494,496,491,262
491,494,494,493,354
491,494,492,493,482
492,494,494,492,618
494,494,493,491,777
494,494,494,492,823
498,494,494,493,792
497,494,494,495,651
499,493,497,493,469
496,493,495,493,320
495,493,495,495,237
496,493,495,493,211
497,493,494,492,236
497,494,495,491,298
491,494,495,491,404
490,494,493,492,540
493,494,492,491,694
494,494,493,492,813
496,494,495,493,813
494,493,495,493,745
495,494,497,494,568
493,493,494,493,402
491,494,494,494,270
495,493,495,496,219
495,494,495,492,219
492,494,493,491,253
493,494,492,495,341
494,494,493,492,465
494,494,493,491,600
495,494,493,491,756
494,494,493,493,826
494,494,494,494,800
494,494,495,494,676
494,493,495,495,491
493,494,495,494,344
494,493,494,495,246
495,494,496,491,213
498,494,495,493,232
499,494,495,494,287
498,493,494,494,389
491,494,494,493,521
489,494,492,491,670
490,494,492,493,801
490,494,494,493,818
495,494,493,494,760
498,494,494,494,592
495,494,495,492,423
496,493,494,494,281
493,494,496,495,223
493,494,494,494,218
494,494,494,494,247
493,494,495,494,328
495,494,493,491,445
493,494,492,491,581
493,494,492,494,739
491,494,493,493,826
492,494,494,493,806
493,494,494,493,700
492,494,495,494,513
491,494,495,495,360
492,494,495,490,250
490,494,492,493,213
491,494,494,493,228
492,494,496,492,277
495,494,493,492,374
499,494,493,493,504
498,494,494,493,649
495,494,493,490,793
492,494,493,492,820
491,494,493,492,779
494,494,495,494,618
493,493,495,495,442
495,493,494,494,300
497,494,493,493,231
495,493,493,492,216
493,494,494,493,242
493,494,494,493,314
494,494,493,492,430
491,494,493,492,564
491,494,493,492,718
492,494,492,491,820
494,494,492,493,809
493,494,494,491,721
493,494,495,493,535
494,494,495,494,382
494,493,494,495,259
492,494,493,494,216
495,494,493,493,225
492,494,493,494,267
492,493,493,493,358
490,494,493,492,488
492,494,492,491,624
493,494,493,491,780
495,494,493,492,824
497,494,493,492,791
498,494,495,492,643
494,494,495,495,464
494,494,494,493,320
496,493,494,491,234
494,494,494,492,211
490,494,495,492,237
492,494,493,492,300
492,494,493,493,411
491,494,492,493,547
494,494,490,492,696
492,494,492,491,817
496,494,492,493,812
493,494,497,494,740
492,494,495,494,562
491,494,495,493,401
489,494,495,491,266
492,494,494,492,217
494,493,493,494,221
494,494,494,495,256
493,494,493,493,344
493,494,493,492,471
493,494,492,491,608
491,494,492,493,762
492,494,493,493,824
491,494,494,493,798
493,494,494,494,668
498,494,494,493,485
495,493,494,493,335
493,494,495,492,240
491,493,494,493,211
492,494,492,492,232
495,494,492,492,288
491,494,493,492,395
493,494,493,492,528
496,494,493,492,676
495,494,493,491,804
492,494,494,492,816
494,494,493,494,756
495,493,494,493,583
497,494,494,492,417
495,493,494,493,278
493,494,494,493,221
489,494,494,494,217
491,494,495,494,249
490,494,493,493,330
492,494,492,493,453
493,494,493,491,587
492,494,492,492,744
493,494,492,491,825
493,494,494,491,802
494,494,493,492,691
494,494,494,493,505
493,494,494,492,355
494,493,494,492,245
495,494,494,492,210
494,493,493,494,229
493,494,492,492,276
490,494,494,493,375
491,494,492,493,508
492,494,493,492,650
491,494,492,492,794
494,494,492,492,820
496,494,493,492,772
495,494,494,493,611
494,493,494,494,439
491,494,493,493,294
492,494,493,494,226
491,494,493,494,216
494,494,494,494,241
493,494,492,492,316
491,494,492,492,433
491,494,493,491,568
489,494,491,492,725
493,494,492,491,820
495,494,493,492,807
495,494,493,493,713
497,494,495,494,528
502,494,494,495,374
498,493,495,495,256
492,494,495,494,215
485,493,494,493,225
488,494,493,493,267
488,494,492,492,360
489,494,493,491,492
498,494,492,492,630
502,493,493,495,785
503,494,495,494,823
501,494,493,492,788
489,494,494,491,635
486,494,495,493,455
487,493,494,493,312
491,494,493,492,233
491,494,494,493,211
490,494,493,498,239
490,494,494,499,308
491,494,492,501,419
494,494,493,499,556
499,494,494,500,708
498,493,494,496,821
497,494,494,491,814
494,494,494,489,736
495,494,495,493,554
487,494,494,493,396
487,494,494,492,264
494,494,492,487,216
493,494,492,492,221
493,494,492,492,259
490,494,493,492,348
488,494,493,491,474
489,494,493,489,611
494,494,492,488,763
497,494,492,489,824
496,494,494,489,795
493,494,494,492,660
491,494,496,493,477
494,493,494,493,332
499,493,495,495,238
499,494,493,494,212
491,494,494,499,235
490,494,492,504,293
487,494,493,499,400
496,493,492,494,535
494,494,493,488,682
490,494,492,490,811
489,494,495,495,816
490,494,494,496,752
492,494,494,496,580
495,493,495,494,414
495,493,495,492,273
494,494,495,493,222
493,493,494,496,221
492,494,494,496,252
492,493,494,495,335
495,494,493,487,456
492,494,492,491,592
494,494,492,496,750
493,494,492,493,826
491,494,493,492,801
491,494,494,496,687
492,494,495,499,502
493,493,494,499,352
491,493,494,497,250
492,493,496,500,215
492,494,494,490,232
493,494,493,486,280
489,494,491,486,380
493,494,493,490,514
494,494,493,494,658
492,494,492,493,797
496,494,493,493,817
494,494,495,491,767
500,494,493,485,599
498,494,494,491,432
499,494,495,496,290
500,493,495,497,225
498,493,497,497,216
494,494,496,491,243
484,494,494,488,317
482,494,494,492,440
489,494,495,500,575
488,494,492,497,733
490,494,492,500,825
493,494,493,492,807
492,494,494,494,709
493,494,494,497,526
492,494,495,491,370
490,494,494,481,248
488,494,495,487,210
497,493,495,496,227
503,493,496,497,272
503,493,495,495,368
496,493,495,494,499
499,493,494,492,637
493,494,495,487,788
498,494,499,487,820
488,494,500,488,783
480,494,502,499,629
490,494,501,507,455
490,494,498,517,315
490,494,495,510,238
487,493,496,504,222
495,493,496,491,244
499,494,493,484,310
499,494,492,490,425
497,494,494,500,561
504,493,494,500,716
506,493,494,493,822
504,494,492,485,810
488,494,492,490,728
475,494,497,496,547
489,494,498,501,391
495,493,501,501,267
499,494,501,500,222
498,493,498,497,226
506,493,495,486,265
503,494,492,484,352
493,494,490,494,482
479,494,491,498,619
484,494,491,497,773
485,494,490,495,824
488,494,492,502,798
494,494,500,505,658
498,493,503,498,477
494,494,503,488,328
492,494,502,484,236
486,494,497,480,209
500,494,496,477,230
496,493,497,478,289
480,494,499,487,400
481,494,502,498,538
492,494,503,501,689
496,494,501,504,816
508,494,503,510,820
502,493,499,505,751
503,493,494,489,573
502,494,496,488,409
496,494,491,483,267
495,494,487,488,217
506,494,491,491,217
494,494,490,494,251
490,494,490,500,337
487,494,490,501,466
500,494,496,510,604
498,494,507,523,767
488,494,511,514,839
524,494,514,526,816
523,493,507,515,692
480,494,503,492,500
463,494,502,497,352
484,494,498,503,253
515,493,494,479,214
503,494,489,475,228
480,494,484,491,285
496,494,487,502,390
497,494,495,490,520
500,494,501,492,669
507,494,503,505,805
493,494,504,497,821
493,494,507,499,767
480,494,514,491,598
507,494,504,478,422
491,494,502,477,280
467,494,506,491,220
452,494,488,496,214
466,494,487,505,249
481,493,500,516,333
479,494,508,514,453
475,494,509,504,590
500,493,506,492,744
518,494,508,490,830
524,494,505,484,808
504,494,493,495,706
491,494,495,521,524
486,494,500,515,376
493,494,501,522,266
489,494,501,524,229
514,494,490,505,242
531,493,508,492,284
515,494,536,494,379
479,494,522,509,511
451,494,512,495,647
453,494,495,479,792
461,494,476,484,824
495,494,482,489,784
501,493,516,497,627
487,494,516,500,450
503,494,495,495,305
512,494,494,490,232
503,494,496,495,218
478,494,492,510,248
498,494,491,499,316
493,494,483,489,425
483,494,485,481,558
477,494,492,496,719
488,494,487,506,825
502,494,479,511,818
499,494,481,511,735
523,494,490,501,548
546,494,496,510,396
506,494,494,524,270
451,494,493,501,223
454,494,491,475,229
492,494,492,481,266
502,494,489,486,359
494,494,488,504,491
496,494,500,501,628
488,494,509,494,783
505,494,506,482,823
494,494,498,488,792
482,494,490,497,649
492,494,491,509,473
493,494,494,510,328
498,494,492,486,239
502,494,485,478,213
492,494,487,495,238
483,494,489,487,297
478,494,493,487,409
497,494,495,495,546
487,494,484,501,698
496,494,483,510,821
484,494,491,519,823
486,494,496,508,752
488,494,497,491,568
497,494,498,491,408
500,494,491,495,273
491,493,501,506,225
485,494,504,518,232
487,494,503,503,264
496,493,497,492,349
496,493,494,485,473
507,494,488,487,605
495,494,486,492,762
487,494,490,490,827
482,494,489,495,802
501,494,489,502,675
501,494,487,503,493
494,494,489,498,343
482,494,484,464,236
484,494,477,480,208
488,494,486,503,234
484,494,492,505,290
494,494,492,498,392
472,494,493,496,527
484,494,495,497,678
502,493,499,504,811
492,494,495,528,831
476,494,493,526,772
479,494,485,502,597
499,494,487,500,432
512,493,500,504,288
508,494,487,491,231
510,494,489,464,214
474,494,488,472,244
482,494,492,475,326
489,494,498,483,445
484,494,495,491,580
462,494,494,497,743
487,494,497,500,826
494,493,496,486,803
507,494,491,496,696
509,494,489,492,506
488,494,490,511,359
468,494,489,519,255
488,493,485,512,222
488,494,485,509,237
495,494,485,492,281
488,494,489,477,378
498,494,508,476,507
500,494,506,493,652
503,493,489,496,797
492,494,480,493,819
476,494,480,495,774
475,494,484,491,614
477,493,500,503,442
496,494,510,503,300
506,493,500,496,233
497,493,503,508,223
499,494,490,517,255
532,494,482,510,327
501,493,499,484,429
468,494,502,492,567
475,494,495,490,724
480,494,490,481,822
483,494,489,488,809
488,494,488,490,717
488,494,492,494,533
494,494,493,501,379
480,494,496,494,259
482,493,509,488,215
492,494,507,490,226
498,494,486,493,268
482,494,477,508,364
483,494,469,515,497
488,494,483,505,635
481,494,496,493,788
497,493,507,483,827
521,494,502,492,794
501,493,500,504,645
477,493,503,515,474
490,494,503,505,325
479,493,495,483,233
467,494,492,483,213
498,494,482,480,236
514,494,477,489,302
489,494,485,490,416
483,494,492,498,554
496,493,496,511,709
495,493,498,514,823
488,493,493,505,817
480,494,480,485,738
476,494,481,496,560
484,494,492,488,398
491,494,486,477,263
497,494,489,491,217
493,493,497,499,223
508,493,504,504,261
507,493,511,511,353
496,493,503,513,479
482,493,493,484,609
488,494,491,482,764
488,494,492,483,823
480,494,493,488,796
471,494,491,496,664
484,494,490,500,483
497,493,490,521,343
478,494,494,514,248
485,493,496,497,220
508,493,494,481,236
500,494,487,489,294
488,494,490,495,399
487,493,499,493,532
489,494,497,490,681
493,494,493,493,810
497,493,493,498,817
488,494,493,492,754
499,493,500,492,582
491,494,501,494,417
481,493,495,497,275
484,494,491,494,221
487,493,490,504,220
487,493,483,501,253
487,493,485,503,336
487,494,480,492,459
484,494,480,503,598
491,494,483,509,757
496,494,492,495,828
486,494,497,482,803
477,493,500,500,692
480,493,502,494,509
504,493,500,510,364
496,493,501,510,255
490,494,499,494,217
504,493,509,481,232
495,494,513,482,277
472,494,496,490,379
490,493,493,494,514
490,493,485,496,658
497,493,491,493,796
496,493,496,487,818
493,493,497,485,769
492,493,494,491,605
488,494,491,493,434
487,493,494,495,291
486,493,494,494,225
487,493,485,490,213
486,494,489,493,242
482,494,491,490,319
485,494,494,492,437
489,493,500,496,573
506,493,492,498,729
501,494,488,496,821
480,494,493,492,806
481,494,497,497,712
480,493,491,498,526
483,493,491,498,374
512,493,483,491,257
513,493,484,490,212
501,493,501,492,223
477,493,500,496,271
482,493,509,500,366
489,493,504,498,496
492,494,489,497,634
494,494,488,497,789
492,494,491,498,825
486,494,495,497,789
485,494,499,495,635
486,493,503,492,459
491,493,499,497,315
498,493,496,496,235
505,493,499,498,217
494,493,502,500,244
483,494,496,504,311
471,493,496,505,425
482,493,496,503,561
494,493,496,492,711
487,494,479,491,820
490,494,472,486,812
491,494,489,491,733
493,493,495,496,554
489,494,482,497,393
483,494,488,491,263
485,493,527,492,219
485,493,535,494,224
487,493,513,497,262
499,493,505,497,352
494,493,497,500,480
490,493,493,499,618
490,494,489,496,773
487,493,494,497,826
493,493,498,498,799
493,493,493,496,659
493,494,492,499,478
504,493,492,502,332
486,494,490,503,242
474,494,493,492,214
481,494,495,490,238
500,493,492,496,299
499,493,492,498,404
496,493,491,494,538
491,493,498,491,689
488,494,499,492,814
490,493,500,494,818
493,493,494,495,752
493,493,483,494,575
492,494,493,495,413
492,493,493,496,273
491,494,488,495,221
489,493,492,494,221
490,493,492,494,254
494,493,492,494,338
493,493,494,494,464
490,493,495,495,598
492,493,494,494,752
491,494,492,493,826
488,494,491,492,802
481,494,491,497,683
489,493,495,496,499
484,493,494,499,353
488,493,492,495,247
498,493,493,495,214
496,493,493,495,232
484,493,493,494,284
487,493,494,493,387
492,493,494,493,519
490,494,494,494,664
488,494,493,493,799
489,493,494,495,819
491,494,495,494,764
489,494,492,495,601
491,494,493,495,431
490,493,494,495,287
490,493,495,495,225
491,493,495,497,217
491,493,490,496,246
491,493,489,494,325
492,494,489,493,444
492,494,495,491,579
491,494,494,491,736
490,494,488,491,822
489,494,487,491,806
490,494,489,492,703
491,494,494,496,520
490,493,498,499,367
489,493,497,497,251
490,493,499,496,214
490,493,498,495,228
491,493,496,495,273
491,493,494,491,370
491,493,494,494,501
492,494,494,492,640
492,494,493,493,790
491,493,494,493,822
491,494,494,494,782
490,493,494,494,626
491,493,495,495,450
491,493,495,495,306
493,493,495,495,232
493,493,494,496,214
491,493,495,495,241
492,493,494,495,311
491,493,493,492,423
489,493,493,491,556
487,494,495,493,713
490,494,494,492,820
491,494,496,492,810
494,493,496,494,726
495,493,497,497,542
496,493,499,495,379
494,493,498,497,265
493,493,495,497,219
494,493,495,495,224
493,493,494,492,265
488,493,493,492,355
488,493,495,493,471
490,494,494,493,619
489,494,494,492,778
489,494,494,492,826
494,493,493,491,793
495,493,495,494,652
491,493,496,495,461
489,493,496,494,316
493,493,496,495,238
492,493,495,494,215
491,493,497,493,237
491,493,496,492,300
491,493,495,492,408
495,493,495,495,546
496,493,495,492,694
497,493,494,493,816
491,494,494,492,814
489,494,495,493,747
495,493,496,494,575
495,493,498,496,417
494,493,496,494,272
494,493,497,494,217
494,493,496,493,217
493,493,497,493,252
493,493,495,493,342
493,493,495,492,477
494,494,494,493,608
494,494,494,491,755
494,493,494,492,823
495,494,494,492,797
494,493,496,493,671
493,494,496,495,491
494,493,496,494,343
493,494,497,495,240
493,494,495,495,210
494,493,496,496,232
492,494,495,493,285
492,494,493,492,387
491,494,496,492,518
491,494,495,492,670
492,494,494,491,802
493,493,494,493,817
494,493,496,492,760
494,493,496,495,592
496,493,494,496,418
496,493,496,494,279
494,493,495,493,224
494,493,494,492,217
494,493,496,493,248
493,493,495,493,328
494,493,494,494,443
494,493,495,493,581
496,493,495,492,744
496,494,496,493,827
497,494,497,495,807
497,493,496,494,700
498,493,495,493,513
497,494,494,494,360
493,493,495,494,250
492,493,495,492,211
493,493,495,492,228
495,493,496,492,276
497,493,495,492,375
495,494,496,492,507
496,494,495,491,646
491,494,495,493,792
492,494,494,492,818
492,494,495,493,777
494,493,496,494,617
494,493,497,494,443
494,493,496,494,298
496,493,493,493,226
496,493,495,494,214
493,493,494,493,240
494,493,494,492,312
495,493,493,494,426
494,493,494,493,562
495,494,494,492,719
495,494,494,493,821
498,493,495,493,809
499,493,496,494,719
499,493,495,494,532
495,493,495,493,376
493,493,497,494,258
494,493,494,493,214
493,494,494,493,223
493,493,495,492,265
492,494,495,492,358
493,494,494,493,484
496,494,494,493,621
496,494,495,493,780
494,494,495,493,824
497,494,496,493,791
495,493,495,494,641
493,493,496,494,460
495,494,496,492,316
494,493,497,491,237
496,493,496,494,214
494,493,494,491,239
497,494,494,492,301
496,494,494,492,408
495,494,494,490,543
495,494,495,490,698
495,494,492,493,817
497,493,494,494,815
493,494,496,496,742
493,494,496,493,559
498,493,497,494,392
495,493,494,492,268
492,494,494,491,218
492,494,494,492,220
491,494,493,494,256
492,494,493,490,341
491,494,497,489,455
492,494,496,493,598
492,494,496,492,764
494,494,493,493,827
497,494,495,492,799
496,493,495,495,668
498,493,498,493,473
499,493,496,496,326
499,493,495,496,244
499,493,496,494,216
495,493,495,492,237
494,493,494,493,292
492,494,495,491,391
492,494,495,490,527
493,494,495,491,679
496,494,492,488,806
496,494,496,493,819
496,494,493,491,757
496,493,496,495,588
495,493,496,493,425
497,493,497,492,280
496,493,494,491,220
492,494,495,493,217
493,494,494,494,247
495,494,493,492,332
493,494,494,492,462
496,494,494,493,592
496,494,495,492,743
495,494,495,491,822
493,494,494,491,801
493,494,494,492,686
495,494,495,493,505
499,493,496,495,355
497,493,496,493,246
498,493,495,494,210
498,493,493,493,225
495,493,496,493,275
494,493,495,492,374
492,493,495,493,502
489,494,493,493,653
493,494,492,492,794
494,494,493,491,819
496,494,495,494,771
499,494,497,494,609
500,493,496,492,429
499,493,494,494,287
496,493,494,493,228
494,493,495,492,216
492,494,494,493,243
492,494,494,492,318
491,494,494,491,430
490,494,494,490,568
493,494,493,490,727
494,494,494,491,822
493,494,493,492,808
495,494,494,493,713
496,493,495,494,529
497,493,495,493,373
494,493,495,493,254
496,493,495,492,213
495,493,494,492,225
496,493,494,493,267
493,494,495,492,364
493,494,494,491,495
494,494,495,491,631
491,494,493,491,782
494,494,494,492,820
495,494,496,492,783
494,493,494,493,633
498,493,495,494,459
498,493,495,493,313
498,494,495,494,231
497,493,494,492,213
498,493,493,491,237
495,493,494,492,304
494,494,495,492,416
492,494,494,490,550
494,494,495,490,703
494,494,494,491,816
493,494,495,492,808
495,494,493,492,732
494,494,495,493,549
493,493,496,494,391
496,493,497,494,264
496,493,496,493,218
495,493,495,491,223
494,494,494,490,259
494,494,494,491,348
494,494,494,491,471
493,494,494,490,609
496,494,493,491,769
496,494,494,493,825
497,494,495,492,794
498,494,495,493,660
498,494,496,493,476
497,493,496,493,328
494,493,494,491,239
494,493,494,492,212
495,494,495,493,233
496,494,493,491,292
492,494,495,492,397
494,494,493,491,533
494,494,494,491,683
492,494,493,492,809
493,494,496,492,815
497,494,494,493,753
495,493,495,494,577
497,494,496,494,414
498,493,496,494,273
498,493,495,493,219
497,493,494,491,219
496,493,495,493,250
495,494,495,492,333
494,494,492,492,457
495,494,493,489,594
493,494,493,489,750
492,494,493,492,824
493,494,493,492,800
496,493,494,492,682
497,493,495,492,496
498,493,496,494,347
495,493,496,492,244
494,493,495,492,211
496,493,497,493,229
495,493,493,492,280
494,494,491,490,380
494,494,492,490,513
493,494,493,490,657
492,494,494,490,796
492,494,493,491,819
497,494,494,493,767
500,494,496,494,602
499,494,495,494,428
498,493,495,491,286
494,494,495,492,226
493,494,496,493,216
494,494,493,492,245
493,494,494,492,321
496,494,493,490,437
494,494,493,491,573
494,494,494,489,730
494,494,492,492,825
495,494,494,491,806
496,494,495,493,706
496,494,495,493,520
498,493,495,492,367
495,493,495,492,253
494,494,495,493,213
492,494,496,492,224
493,494,494,492,271
495,494,493,491,365
494,494,494,492,496
494,494,492,491,636
495,494,495,492,789
495,494,494,492,821
494,494,495,492,783
497,493,494,491,627
498,493,494,494,452
499,493,495,493,307
498,493,495,494,228
495,494,496,490,212
490,494,496,491,239
491,494,495,491,308
493,494,494,491,423
493,494,493,491,557
493,494,493,491,708
492,494,493,491,817
493,494,494,491,809
495,494,494,492,726
496,494,496,492,544
496,493,495,492,386
496,493,495,492,257
495,493,495,492,215
494,494,494,492,221
493,494,494,491,260
492,494,493,492,351
494,494,493,492,481
498,494,494,492,615
499,494,495,490,771
498,494,495,492,822
494,494,495,491,792
492,494,496,492,649
496,493,496,493,470
496,493,496,492,324
495,493,495,491,235
494,493,494,493,212
494,493,495,492,234
493,494,493,494,295
493,494,494,491,404
494,494,492,491,540
496,494,493,491,689
497,494,494,491,812
494,494,494,491,813
494,494,494,492,746
492,494,495,492,569
495,493,495,492,408
496,493,494,492,267
495,493,495,492,217
494,494,494,493,217
494,494,494,493,251
496,494,495,493,337
496,494,493,492,463
497,494,494,491,599
498,494,494,492,756
495,494,492,493,824
496,494,495,493,798
493,494,494,492,676
494,493,496,492,491
494,494,495,492,343
494,494,493,492,242
494,493,494,492,210
494,494,495,492,230
494,494,494,492,283
495,494,495,492,386
494,494,494,491,520
495,494,495,490,667
495,494,494,491,799
496,494,495,491,817
497,494,495,492,761
496,494,495,492,592
494,494,496,492,424
494,493,495,494,281
495,493,495,493,222
496,494,495,493,216
496,493,495,492,243
492,494,494,493,325
491,494,494,491,446
493,494,494,491,581
493,494,494,491,736
494,494,495,492,823
496,494,494,492,804
496,494,495,491,697
496,493,495,493,515
498,494,495,493,364
501,493,495,493,250
494,494,495,492,211
492,494,494,491,227
493,494,493,492,272
494,494,493,491,371
494,494,493,491,503
494,494,494,491,641
494,494,493,491,791
493,494,494,492,819
494,494,492,492,777
495,494,494,493,619
495,494,496,493,445
496,493,494,495,302
497,494,495,493,229
496,493,495,494,214
495,493,496,491,240
494,494,495,492,312
496,494,494,492,426
495,494,493,491,560
495,494,493,490,717
494,494,493,492,818
497,494,493,491,806
497,494,495,493,720
496,494,496,494,537
497,493,495,494,381
496,493,496,493,257
495,493,495,492,214
494,494,494,492,224
494,494,494,492,263
495,494,493,491,355
496,494,494,491,484
493,494,493,490,622
492,494,493,491,775
494,494,494,492,821
494,494,496,491,789
493,494,495,491,643
495,494,495,494,464
497,493,494,493,319
502,493,494,493,235
500,493,494,492,212
502,494,496,494,238
501,494,493,492,300
489,494,495,492,410
489,494,494,493,545
492,494,493,491,695
494,494,493,492,812
495,494,493,493,811
494,494,494,492,740
495,494,495,492,560
495,493,494,492,400
494,494,496,492,267
494,494,496,494,217
493,494,496,494,221
495,494,496,492,254
494,494,493,493,342
496,494,495,492,465
495,494,492,491,600
496,494,492,490,761
496,494,496,492,826
495,494,496,490,798
496,494,496,495,669
499,493,494,494,478
497,493,495,491,330
496,494,497,490,244
490,494,494,494,212
492,494,495,491,233
493,494,494,491,290
493,494,495,494,388
490,494,492,490,513
493,494,494,489,674
492,494,493,489,804
496,494,493,493,818
499,494,494,493,757
498,494,494,490,588
499,494,497,494,407
496,493,494,493,279
496,494,496,490,222
495,494,493,491,218
492,494,493,493,249
491,494,495,491,329
494,494,492,490,444
495,494,494,491,578
497,494,494,488,747
496,494,491,492,827
499,494,494,491,805
495,494,495,493,695
496,493,496,493,504
494,494,496,493,352
493,493,494,492,252
497,493,495,493,215
497,494,493,493,231
497,494,495,492,279
495,494,493,489,375
495,494,493,491,509
498,494,494,491,653
504,494,494,493,795
503,494,494,491,821
500,494,494,492,775
491,494,494,495,613
491,494,495,494,442
494,494,495,494,297
492,494,494,494,228
492,494,496,493,216
493,494,494,492,243
494,494,494,493,316
493,494,495,493,433
492,494,494,491,565
492,494,493,489,721
493,494,493,492,821
496,494,494,492,808
496,494,495,492,715
496,494,494,493,528
496,493,494,492,373
496,493,496,492,257
494,493,494,493,212
494,494,495,493,225
494,494,493,492,266
495,494,494,491,360
492,494,495,490,483
494,494,495,492,627
496,494,495,493,783
496,494,496,491,821
496,494,494,492,787
496,494,496,493,640
495,493,496,493,454
495,493,496,493,309
495,493,494,493,236
495,493,496,493,215
498,493,494,491,240
493,494,495,492,306
495,494,496,491,413
498,494,494,492,548
496,494,491,493,704
495,494,494,491,818
495,494,494,492,811
494,494,495,492,737
494,494,496,493,553
495,493,496,493,396
494,493,495,492,265
494,494,495,494,218
494,494,494,492,221
495,494,495,492,260
495,494,494,492,347
495,494,494,492,476
495,494,493,492,610
492,494,493,490,763
493,494,495,492,823
495,494,494,493,796
496,494,495,493,662
499,493,495,493,481
497,493,496,492,334
493,494,497,494,239
494,493,495,493,211
493,493,495,492,233
494,494,495,492,291
495,494,493,492,398
494,494,494,491,531
493,494,496,492,677
493,494,494,492,806
494,494,494,492,814
494,494,497,495,750
496,494,495,493,580
496,494,496,494,413
496,493,495,493,273
496,493,495,493,220
495,493,495,491,219
494,494,495,493,250
493,494,493,492,333
495,494,494,492,452
495,494,495,491,586
495,494,494,492,748
495,494,494,491,825
497,494,495,494,802
496,493,497,493,685
495,494,496,493,500
495,493,495,493,351
496,493,495,493,247
496,493,494,492,211
495,493,496,493,228
496,493,494,491,279
494,494,493,493,378
495,494,494,492,509
493,494,495,491,656
493,494,494,491,795
494,494,494,492,816
496,494,494,493,767
495,493,495,493,605
496,493,496,493,429
495,493,496,493,288
495,493,495,492,227
494,493,495,491,216
495,493,494,491,245
494,494,494,491,319
494,494,494,492,436
493,494,495,490,571
495,494,493,491,728
495,494,493,493,820
495,494,496,493,805
495,494,495,492,707
495,494,496,494,522
495,493,495,493,371
496,493,496,493,252
496,493,495,493,214
496,493,495,492,224
494,493,495,492,271
496,494,494,492,365
495,494,494,491,494
493,494,493,490,633
495,494,494,492,785
493,494,495,493,821
496,494,494,490,785
494,494,497,495,631
495,494,495,494,452
496,494,495,492,307
497,493,496,492,231
495,493,493,495,217
496,494,493,495,238
496,493,495,494,309
495,494,496,494,413
493,494,495,491,546
492,494,495,493,711
494,494,492,490,817
496,494,495,493,812
496,494,494,492,733
497,494,497,495,546
497,493,495,495,378
493,494,496,492,264
491,494,498,492,221
489,494,493,493,223
492,494,496,492,264
494,494,495,493,353
494,494,497,491,468
494,494,493,490,612
492,494,496,493,776
492,494,492,493,823
495,494,493,492,795
496,494,497,492,660
494,494,494,496,466
492,494,497,495,318
493,493,494,495,241
494,493,493,492,215
494,493,497,491,239
496,494,496,493,297
495,494,492,494,398
494,494,495,491,532
495,494,494,492,692
495,494,496,493,812
496,494,495,492,815
494,494,495,494,750
496,493,497,495,573
495,494,495,494,407
495,494,496,494,274
496,493,495,493,223
496,494,497,492,222
494,494,495,493,256
495,494,495,492,338
496,494,494,493,463
493,494,494,492,598
494,494,494,489,756
493,494,494,492,825
493,494,495,492,802
494,493,496,493,680
496,494,498,494,499
495,494,497,493,351
497,494,495,493,245
496,493,495,493,213
496,493,494,493,232
494,494,495,492,284
496,494,495,492,388
495,494,494,492,519
494,494,494,492,662
495,494,494,493,799
493,494,495,491,817
495,494,495,493,763
494,494,498,494,597
497,494,496,494,426
496,494,496,494,284
496,493,497,494,225
494,493,494,492,217
494,493,495,492,247
494,494,495,491,324
496,494,494,492,438
497,494,494,490,574
498,494,495,492,736
498,494,496,490,822
495,494,495,492,806
492,494,495,493,702
495,494,496,494,514
495,493,496,494,358
497,494,496,491,255
496,493,495,493,213
493,493,495,492,228
494,494,494,491,272
493,494,494,492,369
493,494,495,492,496
494,494,495,492,642
494,494,494,491,791
494,494,494,493,821
495,494,495,492,781
497,493,495,492,624
495,494,496,495,446
495,494,496,494,305
495,493,495,493,233
494,493,496,494,216
495,493,495,493,243
494,493,494,492,311
493,494,494,492,428
492,494,494,492,561
493,494,494,489,713
493,494,494,491,818
494,494,494,493,809
496,493,496,492,722
497,494,497,494,543
496,494,496,493,388
497,493,496,494,260
497,493,497,494,217
494,494,495,491,223
497,493,495,492,263
494,494,496,491,355
493,494,494,492,484
495,494,494,492,618
497,494,494,491,774
496,494,494,492,823
497,494,496,491,791
496,494,498,494,648
495,493,495,492,467
492,493,498,493,320
493,494,495,493,237
493,493,495,492,213
493,493,495,492,236
492,494,496,491,298
493,494,495,492,404
493,494,495,492,537
495,494,496,492,696
496,494,494,491,815
495,494,495,492,813
496,494,497,493,744
498,494,496,494,566
497,493,496,493,399
494,493,496,494,271
494,493,496,492,219
494,493,495,492,222
494,494,497,492,257
495,494,494,491,342
493,494,494,491,465
494,494,494,493,602
496,494,493,492,759
495,494,495,492,824
495,494,496,493,800
495,493,496,493,673
496,494,497,493,489
496,494,497,496,343
497,494,495,493,241
494,493,495,492,211
495,493,494,492,232
496,494,495,492,288
495,494,494,492,396
496,494,495,493,527
497,494,493,493,668
498,494,495,491,799
496,494,494,492,815
493,494,495,492,757
493,494,497,493,589
494,494,497,494,423
494,493,495,494,282
494,494,496,494,223
494,493,495,493,218
494,494,493,493,246
494,494,495,492,328
493,494,495,492,446
495,494,494,491,582
495,494,493,491,741
495,494,495,493,824
496,494,495,493,804
497,494,497,494,694
493,494,497,492,507
495,494,496,494,352
495,493,497,492,249
495,493,495,493,211
496,494,494,490,229
495,494,496,491,277
495,494,494,494,374
494,494,496,493,494
496,494,493,494,648
494,494,493,492,795
496,494,496,492,819
494,494,493,492,777
494,494,496,492,618
497,494,496,494,430
497,494,496,494,290
495,493,495,494,232
496,493,494,493,218
495,494,495,491,244
495,494,494,493,317
495,494,495,492,427
491,494,495,492,563
492,494,495,491,723
494,494,494,492,821
494,494,494,493,809
497,494,495,493,719
496,493,496,494,537
496,493,497,494,383
496,494,496,494,258
494,493,496,492,216
495,494,494,492,225
496,494,495,491,268
494,494,495,492,366
494,494,495,492,499
493,494,494,492,633
495,494,495,493,776
495,494,495,492,818
496,494,495,493,787
496,494,496,493,639
498,494,496,494,469
499,494,497,494,323
496,493,495,494,232
493,493,495,495,208
493,493,495,492,236
493,494,495,492,301
493,494,495,491,412
494,494,495,491,546
493,494,493,494,698
494,494,494,492,816
494,494,494,493,810
495,494,495,493,737
496,494,497,494,556
498,494,497,494,395
496,494,496,494,268
494,493,495,493,218
494,493,496,491,223
494,494,496,493,258
496,493,494,492,346
494,494,494,492,465
494,494,494,491,601
495,494,493,491,763
495,494,493,491,824
495,494,494,492,796
496,494,496,493,667
496,494,496,495,479
496,494,497,494,333
496,494,496,494,242
493,493,498,493,213
492,494,495,493,235
495,493,496,493,290
498,494,495,493,396
498,494,494,492,533
497,494,494,492,679
496,494,494,493,805
494,494,495,492,814
493,494,495,493,753
493,493,496,493,585
496,493,495,494,420
496,494,497,495,279
494,493,496,493,220
496,494,496,493,217
496,493,495,492,249
495,494,496,494,330
496,494,494,493,457
496,494,494,493,590
492,494,494,493,743
494,494,495,491,821
496,494,496,492,800
498,494,496,494,687
495,494,496,495,502
494,494,495,494,352
493,494,496,494,249
494,494,496,492,211
495,494,497,495,231
495,494,493,492,276
493,494,493,493,374
493,494,495,491,501
492,494,494,491,652
493,494,494,492,796
496,494,494,492,817
497,493,495,494,770
500,494,497,494,608
502,494,497,496,420
502,494,496,496,290
498,494,497,494,232
496,494,496,494,220
491,494,495,492,247
493,494,495,493,319
489,494,495,491,424
490,494,494,490,547
490,494,493,492,729
493,494,495,491,823
495,494,494,494,811
497,494,496,492,712
495,494,499,492,527
494,494,496,493,353
494,494,494,491,260
493,494,494,491,221
494,494,494,495,233
497,494,495,491,273
492,494,496,491,368
495,494,495,492,484
493,494,494,493,636
493,494,493,490,786
495,494,497,495,822
495,494,495,495,786
497,494,498,492,635
498,493,496,494,455
497,493,498,495,310
496,494,497,494,237
494,493,495,494,218
493,494,497,495,240
492,494,494,491,309
493,494,496,492,417
496,494,494,493,549
496,494,496,493,707
495,494,495,491,817
496,494,494,493,809
494,494,496,495,732
498,494,497,495,549
495,493,497,495,386
494,493,496,493,267
494,493,495,494,220
494,493,496,492,224
492,494,496,493,263
494,494,497,494,350
494,494,494,491,470
495,494,495,493,607
493,494,496,490,768
496,494,494,493,825
497,494,495,493,793
497,494,494,494,656
497,494,496,493,471
497,493,495,492,324
494,494,493,495,241
494,494,496,493,215
493,494,496,491,237
493,493,494,493,295
494,494,495,494,398
493,494,495,492,531
493,494,493,492,686
494,494,495,491,811
495,494,496,492,813
497,494,495,493,751
496,493,496,494,576
497,494,496,494,410
497,494,496,494,273
494,493,496,492,221
494,493,495,493,221
492,494,494,491,253
492,494,496,492,336
494,494,494,492,462
494,494,493,493,596
495,494,494,492,752
495,494,494,492,823
495,494,496,494,799
496,493,496,493,681
497,493,495,493,497
497,493,496,493,349
497,493,495,494,246
497,493,496,494,213
494,493,496,492,232
493,494,496,494,284
493,494,495,494,384
494,494,495,491,515
493,494,493,491,661
495,494,494,492,796
496,494,497,492,817
495,494,496,494,764
495,493,496,494,601
497,494,496,495,424
497,494,496,495,285
496,494,495,493,228
494,494,495,494,219
491,494,495,494,249
493,494,494,492,325
495,494,494,492,436
493,494,494,491,572
495,494,495,490,734
495,494,494,492,824
494,494,495,492,807
494,494,497,492,705
495,493,496,493,517
496,493,497,494,365
495,493,495,493,255
494,493,495,494,215
494,493,494,493,229
494,493,495,491,275
494,494,494,493,369
494,494,493,492,497
495,494,494,492,638
495,494,494,491,789
497,494,495,493,820
496,494,495,492,780
495,494,495,494,628
498,494,496,495,453
500,494,495,494,309
500,493,494,493,232
499,494,494,494,216
497,493,496,491,243
493,494,495,492,310
491,494,494,493,424
494,494,494,492,559
493,494,493,494,711
495,494,495,493,817
495,494,493,491,807
496,494,496,494,725
494,494,495,494,541
496,493,496,493,386
494,494,495,494,262
493,494,495,494,219
493,494,494,491,224
494,493,494,492,264
494,494,494,492,354
493,494,494,493,480
494,494,494,493,615
495,494,493,492,771
494,494,495,493,821
496,494,495,492,792
496,493,495,493,649
497,493,496,493,466
495,493,495,494,322
494,494,495,493,239
493,494,495,493,215
493,494,494,494,238
495,494,494,492,299
494,494,495,491,404
495,494,494,494,540
494,494,494,492,691
494,494,494,492,812
497,494,495,493,812
496,494,494,493,745
496,493,496,495,566
496,493,496,494,407
495,493,496,494,271
494,493,495,493,219
494,493,494,494,223
494,494,494,493,254
493,494,494,492,341
494,494,494,492,465
494,494,494,492,600
495,494,493,493,758
494,494,493,491,823
496,494,494,493,798
498,494,496,493,674
498,494,496,493,492
498,493,495,494,344
495,494,495,494,244
494,494,494,492,213
496,494,495,494,234
495,494,494,493,287
494,494,494,493,391
493,494,494,492,522
492,494,495,492,669
492,494,494,492,800
496,494,495,493,815
494,494,494,492,760
495,494,494,495,593
497,493,495,494,422
495,493,495,493,281
494,493,497,493,223
494,494,493,492,218
494,493,495,492,246
494,494,495,493,325
493,494,494,492,445
493,494,494,493,580
494,494,492,490,737
494,494,493,492,821
496,494,494,493,803
496,494,495,492,695
498,494,495,494,511
496,494,495,494,360
496,494,496,493,249
495,493,494,492,212
493,494,495,492,229
493,494,495,492,275
492,494,494,492,372
495,494,493,492,504
494,494,494,491,641
496,494,493,492,790
496,494,495,493,818
496,493,495,493,775
495,493,496,494,618
495,494,496,494,444
495,493,496,494,303
498,493,495,493,229
495,493,495,493,216
493,494,493,492,242
495,494,494,493,315
495,494,493,492,428
492,494,494,492,562
493,494,493,493,716
496,494,493,493,820
495,494,494,492,806
494,494,494,494,719
495,494,496,495,535
495,493,495,494,381
494,493,495,494,258
496,494,495,494,217
495,493,495,493,226
496,494,494,492,268
494,494,494,494,358
495,494,494,492,486
494,494,494,491,621
494,494,495,490,777
495,494,494,493,821
495,493,494,495,788
496,494,496,493,643
496,493,495,494,463
496,493,495,494,316
493,494,496,493,235
493,493,494,493,215
494,493,495,493,237
496,493,494,493,302
494,494,494,491,411
494,494,494,491,546
495,494,493,492,696
495,494,493,492,814
495,494,494,492,810
495,494,496,493,739
496,494,495,494,559
497,494,496,494,400
498,493,496,495,270
497,493,495,493,220
499,493,496,493,222
496,494,496,492,257
495,494,495,492,345
493,494,494,493,470
493,494,494,490,604
494,494,494,493,759
494,494,494,492,822
494,494,493,493,796
496,494,495,493,667
497,493,496,493,485
496,494,497,493,339
494,493,497,492,242
494,493,495,493,213
493,494,493,493,234
493,494,495,493,289
495,494,494,492,394
495,494,494,492,526
495,494,494,491,674
495,494,493,491,802
494,494,494,493,815
495,494,495,492,754
497,494,495,493,585
497,493,495,495,418
498,493,496,494,277
494,493,495,493,223
495,494,494,494,219
494,493,493,493,251
493,494,495,494,331
495,494,494,493,451
494,494,494,492,586
495,494,493,492,744
494,494,495,492,822
494,494,495,491,801
495,494,495,493,692
497,493,495,494,507
496,493,496,493,357
496,493,495,494,250
497,493,494,493,213
496,493,494,492,232
497,493,494,493,279
495,494,493,492,379
496,494,493,493,510
496,494,493,492,651
494,494,494,492,793
493,494,493,493,816
494,494,494,494,773
494,493,496,493,609
495,494,494,494,439
499,493,496,493,298
497,494,495,493,229
495,493,495,492,217
493,494,494,492,245
494,494,494,492,319
493,494,495,492,434
496,494,494,492,568
495,494,494,491,721
494,494,494,493,819
495,494,493,493,806
495,494,494,493,712
495,494,495,494,529
496,493,495,494,375
495,493,495,493,257
492,494,494,493,215
493,494,494,494,226
495,493,493,492,268
494,494,494,492,361
494,494,494,492,490
494,494,494,492,626
494,494,493,492,781
496,494,496,493,820
496,494,494,493,785
495,493,494,494,635
497,494,495,494,459
495,494,495,493,314
495,494,495,493,233
496,493,494,493,215
495,493,494,493,241
494,493,495,492,306
494,494,495,492,417
495,494,494,492,551
494,494,493,492,704
495,494,494,492,816
495,494,495,493,809
495,494,494,492,734
496,494,495,494,553
496,494,496,495,397
496,493,495,494,264
497,493,494,493,218
496,493,494,494,223
495,494,495,492,260
494,494,494,492,349
493,494,494,493,476
494,494,493,492,611
494,494,493,492,763
495,494,495,492,822
497,494,495,493,794
496,494,495,494,659
495,493,496,494,478
496,493,495,493,333
494,494,495,493,241
496,494,494,493,214
493,494,494,493,236
495,493,494,492,295
494,494,494,493,399
495,494,494,493,532
495,494,494,492,681
494,494,495,492,806
495,494,495,492,814
496,494,494,493,751
494,494,498,493,576
496,493,496,494,414
494,493,495,494,274
495,493,494,493,222
495,493,495,493,221
494,493,494,493,252
496,493,493,492,333
494,494,493,493,458
496,494,493,492,592
495,494,493,491,748
496,494,494,492,823
495,494,495,492,800
496,493,494,494,683
496,494,495,494,502
495,493,494,493,354
496,493,496,495,244
495,493,495,493,212
493,494,495,492,232
495,494,494,491,283
495,494,494,493,383
493,494,493,492,515
494,494,494,492,656
495,494,494,492,795
495,494,494,493,816
498,494,495,492,767
495,494,495,494,603
496,494,496,494,433
497,494,496,494,291
496,493,493,493,228
495,494,495,493,219
496,493,495,493,245
495,494,496,494,322
495,494,494,493,440
494,494,493,491,575
494,494,491,491,729
494,494,492,493,821
495,494,494,494,803
495,494,494,493,707
497,493,495,494,523
497,493,495,494,369
497,493,497,493,253
497,493,495,494,215
495,493,494,493,228
494,494,494,493,272
493,494,495,493,367
495,494,493,492,497
493,494,493,491,631
496,494,492,490,782
496,494,494,492,819
495,494,494,492,783
496,494,495,494,629
498,494,496,494,455
498,494,494,494,312
497,493,494,494,232
495,493,495,494,215
493,494,495,492,242
495,494,496,493,308
494,494,494,493,422
493,494,494,491,555
494,494,493,493,709
493,494,494,492,816
495,494,495,494,809
495,494,495,492,729
497,493,495,494,547
495,494,496,494,391
495,493,496,493,262
495,493,494,494,218
494,493,495,493,224
495,493,494,492,264
494,494,495,492,352
495,494,494,493,480
494,493,493,492,615
495,494,493,490,769
494,494,494,492,822
495,494,494,492,790
495,494,494,494,654
496,494,495,494,473
495,493,496,492,325
495,493,495,492,238
495,493,494,493,215
496,493,494,493,238
495,494,495,494,296
495,494,494,492,404
495,494,493,492,538
493,494,494,491,685
495,494,492,493,809
493,494,495,493,811
495,494,494,493,745
495,493,494,494,570
494,494,496,493,405
495,493,495,493,271
494,493,495,493,221
494,494,494,493,221
493,494,496,493,254
493,493,494,493,339
494,494,494,492,460
495,494,494,492,594
496,494,493,493,753
498,494,494,493,823
496,494,494,493,798
496,494,495,493,677
496,493,496,494,492
496,493,494,494,347
496,493,495,495,246
496,493,496,492,213
494,493,496,493,233
495,494,494,494,287
495,494,494,492,386
496,494,494,493,519
495,494,494,491,664
495,494,494,492,797
494,494,495,492,814
494,494,495,492,760
495,494,495,493,595
496,494,496,494,426
495,494,495,494,286
495,493,495,495,226
494,493,494,493,220
495,494,494,492,249
495,493,494,493,326
494,494,494,491,444
493,494,493,491,578
495,494,493,491,735
496,494,493,490,822
496,494,495,493,802
496,494,494,493,700
495,494,495,494,515
496,493,495,494,362
495,493,495,493,251
494,493,494,494,212
494,494,494,493,230
493,494,494,493,275
493,494,494,492,372
494,494,492,494,502
495,494,492,492,641
495,494,493,492,790
497,494,493,492,818
496,494,495,493,779
497,494,494,494,622
496,493,496,494,447
494,493,495,493,305
494,493,494,494,231
495,493,495,494,217
496,494,494,494,243
494,494,494,493,314
493,494,493,491,426
494,494,494,491,560
493,494,493,492,714
494,494,493,492,818
496,494,495,491,807
496,494,494,493,722
494,493,495,494,536
495,494,495,493,385
496,493,494,493,261
494,493,495,494,218
494,493,495,492,227
493,494,494,493,267
495,494,495,492,358
496,494,494,491,483
495,494,494,492,618
495,494,494,491,772
494,494,494,493,821
496,494,495,492,790
495,493,495,493,646
495,493,496,494,467
495,493,495,494,322
495,494,494,494,237
495,493,496,493,214
495,493,495,493,239
495,494,494,492,301
494,494,493,492,408
495,494,493,492,544
495,494,493,492,693
496,494,493,492,812
497,494,495,492,811
497,494,495,492,740
497,494,496,494,563
495,493,496,493,404
494,493,495,493,267
495,493,493,491,219
494,493,495,493,223
494,494,494,494,256
494,494,494,492,343
494,494,494,493,469
495,494,493,492,603
495,494,494,492,758
495,494,495,491,822
496,494,494,492,795
494,494,495,491,670
494,493,495,494,489
495,493,496,493,341
494,493,495,493,243
496,493,494,493,213
493,493,494,493,234
494,494,495,493,289
493,494,495,492,392
495,494,494,493,525
495,494,493,493,670
494,494,492,492,801
494,494,494,492,812
495,494,493,492,756
495,493,496,493,587
496,493,495,493,421
495,494,496,493,281
496,493,495,492,225
496,493,495,492,219
494,494,495,492,249
493,494,496,492,329
493,494,494,492,449
493,494,494,493,583
494,494,491,492,738
495,494,494,492,821
496,494,495,493,801
497,494,496,494,692
499,494,496,494,510
497,493,495,493,359
496,493,496,495,249
495,493,495,492,214
494,493,494,494,229
495,494,494,492,277
493,494,493,491,375
494,494,493,492,507
495,494,494,492,646
494,494,493,492,792
493,494,494,494,818
496,494,494,491,772
497,494,495,492,614
496,493,496,494,442
496,493,495,494,299
495,493,496,494,229
493,493,494,494,217
494,494,495,494,245
494,494,496,492,317
493,494,494,493,433
494,494,494,492,566
494,494,494,491,720
494,494,493,491,818
495,494,495,493,804
496,494,494,494,714
497,494,495,494,531
497,494,495,494,377
496,493,496,495,259
496,493,494,493,216
494,493,494,493,226
493,494,496,495,267
494,494,494,492,361
493,494,494,493,490
493,494,493,491,625
495,494,492,491,777
494,494,495,493,820
494,494,494,492,786
496,494,495,494,638
496,493,495,494,459
495,494,496,494,318
495,493,495,493,235
495,493,495,493,214
495,494,496,492,239
495,494,494,492,305
494,494,494,492,414
495,494,493,491,549
493,494,493,493,698
494,494,494,491,814
495,494,493,493,809
497,494,494,494,735
497,493,495,495,557
496,493,495,495,400
497,493,495,494,266
495,493,495,493,219
494,493,494,493,225
493,494,494,493,261
493,494,493,492,347
495,494,494,492,473
494,494,493,492,608
495,494,493,491,761
494,494,494,493,822
494,494,495,492,793
494,494,495,493,664
495,493,496,495,482
496,493,496,493,337
495,493,493,494,239
494,493,494,492,213
494,494,494,492,234
494,494,493,492,291
494,494,494,493,398
493,494,492,491,531
494,494,493,492,677
494,494,493,492,804
495,494,494,494,813
496,494,494,492,752
496,493,495,494,580
495,493,495,493,416
495,493,495,494,275
495,493,493,494,223
495,493,495,493,220
496,493,494,492,250
495,494,494,493,334
494,494,494,492,455
494,494,494,493,589
494,494,493,492,745
494,494,494,494,822
496,494,494,492,800
496,493,494,493,687
495,493,494,493,500
492,494,494,493,354
494,493,494,493,249
492,493,494,494,213
493,494,494,494,232
495,494,494,492,282
495,494,493,491,379
494,494,494,491,511
493,494,493,492,653
493,494,492,492,793
494,494,492,493,815
495,494,494,493,768
497,494,493,494,606
495,493,497,493,436
495,493,495,494,296
494,494,494,492,228
496,493,493,493,217
495,494,494,493,245
494,494,495,492,320
495,494,493,492,437
495,494,492,492,572
494,494,492,492,724
494,494,494,490,820
495,494,495,493,804
495,494,495,494,708
495,493,495,493,526
495,493,494,494,372
495,493,495,494,255
494,494,494,492,214
495,493,494,494,227
495,493,493,493,272
496,494,494,491,363
495,494,494,492,494
493,494,493,492,631
493,494,494,492,784
493,494,493,493,820
497,494,495,492,783
497,494,495,493,632
498,494,495,494,455
497,493,495,495,310
496,493,495,493,236
492,494,494,493,216
491,494,494,493,241
492,494,494,493,308
493,494,492,493,418
495,494,494,491,553
494,494,493,491,704
494,494,494,492,816
495,494,495,494,808
496,494,495,493,730
497,494,496,494,548
496,493,495,493,392
495,493,495,495,265
495,493,497,493,220
495,494,495,493,225
495,493,495,493,264
494,494,494,492,349
496,494,494,492,478
494,494,493,493,612
493,494,495,492,766
495,494,492,492,820
495,494,493,493,792
495,494,494,494,656
496,493,495,493,476
497,494,495,493,331
497,493,494,493,237
495,493,494,492,212
494,494,494,493,237
493,494,493,492,293
490,494,492,492,400
492,494,492,492,534
493,494,493,492,681
495,494,493,492,806
494,494,495,492,810
495,494,495,493,746
497,493,495,494,574
495,494,495,494,411
496,493,494,493,271
494,493,495,495,220
495,494,494,492,222
493,494,493,492,254
494,494,493,493,337
493,494,493,493,458
493,494,492,492,593
494,494,494,491,753
493,494,492,493,823
494,494,494,492,798
494,494,496,492,680
496,493,495,494,493
496,493,495,494,345
495,493,496,493,248
495,493,495,493,215
494,493,493,493,234
494,494,493,492,286
495,494,495,491,385
494,494,495,490,511
494,494,494,490,663
495,494,491,491,795
495,494,491,494,815
494,494,494,491,762
496,494,493,494,598
497,493,497,493,421
495,493,495,493,284
494,493,495,492,230
493,493,495,494,220
494,494,496,493,249
494,494,493,494,323
495,494,492,493,429
495,494,494,493,566
496,494,494,490,734
494,494,493,492,824
494,494,493,492,805
495,494,494,492,705
494,493,494,493,515
494,494,496,493,358
494,493,493,495,258
496,493,494,494,218
494,494,494,493,230
493,494,496,494,278
495,494,495,493,370
494,494,493,493,500
494,494,492,492,639
494,494,493,491,788
494,494,494,492,820
496,494,493,494,780
497,494,496,493,627
497,493,495,494,461
496,493,495,494,315
495,493,494,494,230
493,493,494,493,214
493,494,494,494,241
494,494,494,493,311
494,494,493,493,436
494,494,493,492,567
495,494,492,491,708
494,494,493,492,813
495,494,495,492,803
496,494,494,493,720
496,494,495,494,545
495,493,495,494,388
496,493,495,494,258
495,493,494,493,216
495,493,494,492,221
495,494,494,493,263
494,493,493,493,354
494,494,493,492,480
496,494,493,492,614
493,494,492,492,771
494,494,495,494,819
494,494,494,494,789
495,494,496,493,649
494,493,494,492,461
495,493,494,493,317
493,494,495,492,240
493,493,495,493,216
493,494,493,493,240
495,494,495,493,300
496,494,495,492,404
494,494,495,494,536
494,494,493,492,691
495,494,494,493,812
496,494,495,491,813
496,494,496,492,745
496,493,494,494,567
496,494,495,493,404
496,493,496,494,273
494,493,494,493,222
494,493,494,493,224
493,494,495,491,258
493,494,494,493,342
494,494,493,492,464
493,494,493,492,601
494,494,493,491,756
494,494,494,492,823
496,494,495,493,797
495,493,494,494,674
495,494,496,492,495
496,493,495,494,348
494,493,495,493,240
494,494,495,494,213
493,494,494,493,234
493,494,494,494,286
493,494,494,493,391
492,494,494,491,523
495,494,493,492,666
495,494,493,491,795
495,494,494,493,814
496,494,494,492,757
495,493,495,494,591
495,493,495,494,422
495,493,495,493,281
494,493,495,495,223
495,493,495,492,219
494,493,495,493,249
496,494,495,492,327
497,494,494,491,444
495,494,494,492,579
495,494,494,491,737
493,494,492,492,820
496,494,493,494,803
496,494,494,493,697
496,494,494,493,510
494,494,495,494,358
494,493,495,493,253
495,493,494,493,216
494,494,495,492,232
494,493,493,494,277
494,494,493,491,375
492,494,494,492,502
494,494,493,492,643
493,494,495,493,790
495,494,494,491,818
495,494,493,493,776
496,493,494,494,617
494,493,495,494,443
495,493,495,495,303
495,494,494,493,230
494,493,495,494,216
494,493,494,492,245
494,494,494,493,317
495,494,493,492,430
494,494,494,493,562
495,494,493,491,717
493,494,494,492,817
495,494,493,492,804
495,494,495,492,716
496,493,494,493,536
496,493,495,493,382
495,493,495,494,259
495,493,493,492,217
494,493,495,493,226
494,494,493,492,265
495,494,494,492,357
495,494,493,493,484
495,494,493,492,622
495,494,494,491,775
495,494,494,493,820
496,494,494,494,787
496,494,494,496,643
493,493,495,494,459
494,493,495,493,316
494,494,496,495,236
495,494,495,492,216
496,494,493,492,239
497,494,494,492,305
495,494,495,492,407
495,494,493,492,540
492,494,495,493,696
492,494,495,490,812
495,494,494,492,811
493,494,493,492,740
494,493,496,493,560
494,493,495,494,392
494,493,495,492,270
493,494,494,492,220
493,493,494,493,225
495,493,494,494,261
496,494,494,493,347
494,494,494,492,468
495,494,493,492,603
493,494,492,493,760
494,494,494,492,824
496,494,494,492,796
497,494,494,493,666
495,493,495,494,487
496,493,495,494,342
496,493,497,492,243
495,493,494,494,214
494,493,494,492,235
494,494,492,492,292
493,494,494,492,402
494,494,493,492,532
494,494,492,491,669
493,494,493,492,801
495,494,495,492,812
496,494,492,492,751
497,494,495,495,585
497,494,495,495,420
496,493,496,493,280
496,493,495,492,221
494,493,495,492,218
495,494,493,492,251
493,494,493,492,331
495,494,493,492,450
496,494,493,492,585
496,494,492,493,743
496,494,493,492,822
495,494,493,493,800
493,494,494,493,691
493,493,496,494,503
494,494,495,494,352
494,493,494,494,250
494,493,495,494,215
494,493,495,493,233
495,493,496,494,282
493,494,493,493,378
495,493,493,494,506
494,494,492,492,652
494,494,492,491,794
493,494,494,493,818
494,494,495,491,772
496,493,495,494,610
495,493,495,494,435
495,494,496,494,296
495,493,493,493,230
494,494,495,494,219
494,494,494,493,244
495,494,494,493,319
493,494,493,492,435
494,494,493,493,569
494,494,492,490,722
494,494,494,492,819
496,494,494,492,802
496,494,494,493,710
497,493,494,492,529
497,493,495,492,377
496,493,494,493,256
494,493,496,492,216
496,494,495,493,227
495,494,495,493,271
494,494,493,492,361
496,494,495,492,488
496,494,493,492,626
494,494,494,493,782
493,494,493,490,820
493,494,494,492,786
492,494,494,494,634
493,493,494,495,453
494,494,496,492,309
493,493,494,493,236
495,494,493,491,216
495,494,495,492,243
495,494,494,491,309
493,494,492,490,412
495,494,493,491,544
495,494,493,491,706
496,494,492,493,816
496,494,492,491,809
496,494,493,492,737
494,493,495,495,553
495,493,496,494,391
496,494,494,493,269
494,494,493,494,222
495,494,495,491,227
493,494,493,494,265
496,494,493,493,351
495,494,494,493,474
494,494,492,492,609
494,494,493,491,765
494,494,494,491,824
493,494,492,493,795
496,493,495,492,660
496,494,496,494,476
495,493,494,492,331
495,493,494,492,242
494,494,494,492,214
495,494,493,494,238
494,494,494,492,294
492,494,493,494,398
493,494,494,493,532
494,494,493,491,682
495,494,492,492,806
495,494,494,493,812
496,494,495,493,749
498,494,495,495,577
497,494,495,494,411
496,493,495,493,275
495,493,495,493,223
497,494,494,493,221
493,494,493,493,253
494,494,493,493,337
495,494,494,490,455
494,494,493,492,588
494,494,493,491,748
494,494,496,492,823
493,494,496,493,798
495,493,495,493,684
495,493,496,493,499
495,494,495,494,351
494,493,494,492,249
493,494,494,492,215
495,494,495,493,234
493,494,494,492,284
495,494,493,491,382
495,494,492,492,513
494,494,493,492,660
495,494,492,492,795
494,494,494,491,817
496,494,493,493,765
496,493,495,493,603
495,494,495,494,431
494,493,494,494,291
493,494,493,494,228
493,493,494,494,219
494,494,492,492,249
493,494,494,493,323
494,494,494,492,438
494,494,493,492,575
494,494,492,491,728
495,494,492,491,821
494,494,494,492,805
494,494,495,493,706
495,494,494,493,521
495,493,495,493,368
494,493,495,494,254
494,494,494,493,216
495,493,494,492,229
494,493,493,492,273
494,494,493,492,368
495,494,494,491,497
494,494,493,491,633
495,494,492,493,784
495,494,494,492,819
496,494,494,491,781
496,494,495,494,628
495,493,494,494,452
495,493,494,494,309
495,493,495,495,232
494,493,494,494,215
493,494,494,494,242
493,494,495,492,309
493,494,493,493,422
494,494,492,492,553
494,494,492,492,706
493,494,493,491,814
496,494,495,493,807
495,494,493,494,724
494,493,494,493,544
496,493,495,494,389
495,493,494,495,261
494,494,494,492,217
494,494,494,493,225
495,494,493,492,263
495,494,493,492,352
494,494,493,490,479
494,494,493,492,614
496,494,492,491,769
494,494,494,493,821
495,494,494,492,790
494,494,494,493,651
496,493,494,493,472
495,493,495,493,327
495,493,496,494,237
494,494,493,493,213
494,493,493,493,237
494,494,495,492,297
494,494,494,493,404
494,494,493,492,539
494,494,492,493,687
495,494,492,491,809
496,494,493,493,811
495,494,495,492,745
495,493,493,494,569
495,493,493,494,407
495,493,494,492,269
494,493,494,493,221
495,493,494,493,222
494,493,492,491,257
496,494,493,492,340
494,494,493,493,463
495,494,493,492,596
493,494,491,493,753
495,494,493,492,822
495,494,494,491,797
493,494,494,494,675
497,493,494,494,493
495,493,494,492,346
495,494,496,492,246
493,493,494,493,214
494,493,494,493,234
494,494,494,494,287
495,494,493,492,387
495,494,493,492,518
495,494,493,490,664
494,494,493,492,798
495,494,494,491,815
494,494,495,494,761
495,494,493,493,596
497,493,494,493,426
496,493,495,493,285
496,493,495,493,226
494,494,495,494,220
492,494,493,492,249
493,494,494,491,326
493,494,493,493,445
493,494,493,492,578
495,494,492,492,734
495,494,492,492,821
495,494,494,491,802
496,494,494,492,701
495,493,494,493,517
494,493,494,493,364
493,493,495,492,252
494,493,494,493,213
494,493,493,493,229
492,494,493,493,275
492,494,492,492,372
494,494,492,492,503
493,494,494,492,641
493,494,493,492,789
493,494,494,492,818
495,494,493,493,777
496,494,495,493,620
496,494,494,495,444
495,493,493,492,302
496,493,495,494,231
493,494,496,491,216
493,494,493,491,244
494,493,493,491,314
495,493,494,492,425
496,494,492,493,557
494,494,492,491,714
495,494,493,492,815
495,494,494,493,806
495,494,494,493,720
497,493,494,494,536
495,493,494,494,381
494,493,495,492,262
494,493,496,493,220
494,493,495,491,227
496,494,494,494,269
493,494,493,492,357
492,494,493,492,482
492,494,493,492,619
493,494,493,492,776
494,494,493,493,821
496,494,495,493,789
495,493,494,494,645
496,493,495,494,466
494,493,495,494,321
495,493,494,493,237
495,493,493,493,213
495,494,493,493,238
494,494,493,493,301
494,494,493,493,410
495,494,493,492,544
494,494,493,492,691
494,494,492,491,809
495,494,494,493,810
496,494,494,493,741
496,494,493,493,565
495,493,494,494,404
495,493,494,494,268
494,494,495,494,219
494,493,493,492,220
494,494,493,493,257
494,494,493,492,343
494,494,492,493,467
495,494,492,493,605
494,494,492,493,758
496,494,494,493,822
494,494,493,492,795
494,494,494,493,669
496,494,495,493,485
494,493,494,493,341
495,493,493,494,242
495,493,495,492,212
494,494,492,494,235
494,494,493,493,290
494,494,494,494,392
495,494,493,492,523
495,494,492,491,671
494,494,493,492,800
495,494,492,492,813
496,494,494,493,756
496,493,494,493,585
494,493,493,493,417
493,493,495,494,279
494,493,494,492,224
495,493,494,493,220
494,494,494,492,251
494,494,492,491,329
495,494,494,493,449
493,494,492,492,583
494,494,493,491,739
494,494,494,493,823
495,494,493,492,801
495,494,494,493,694
496,494,496,493,508
496,493,495,493,359
495,493,494,494,248
494,493,496,494,213
495,494,494,494,230
493,494,493,492,278
494,493,493,492,376
494,494,493,491,508
495,494,493,491,647
495,494,494,493,791
493,494,493,491,816
494,494,493,493,773
496,494,494,494,616
495,493,494,494,442
495,493,494,494,299
495,494,494,492,228
496,494,494,491,216
495,494,493,493,245
494,494,492,492,317
495,494,493,492,432
494,494,493,492,566
494,494,493,492,720
492,494,494,491,817
494,494,492,492,804
494,494,494,493,713
494,494,495,493,531
495,494,494,493,378
495,494,494,493,255
495,494,494,492,215
494,494,494,492,226
494,494,494,493,268
493,494,493,493,359
494,494,494,492,490
494,494,493,491,624
494,494,492,493,777
496,494,493,492,820
496,494,494,493,785
496,494,496,494,636
495,493,495,494,459
494,494,494,494,316
494,493,493,491,236
494,494,494,492,215
494,494,494,493,241
494,494,492,492,304
494,494,493,493,415
493,494,492,492,548
494,494,493,491,699
496,494,492,492,814
495,494,494,492,809
495,494,494,493,734
497,493,493,494,555
495,493,494,493,399
495,493,495,494,265
493,494,493,493,219
493,494,493,493,223
495,494,494,492,260
495,494,493,493,345
494,494,492,492,473
494,494,492,492,609
493,494,491,490,761
493,494,492,492,820
495,494,493,492,792
494,494,494,494,663
496,494,494,493,482
495,493,495,494,337
495,493,495,493,241
495,493,495,493,213
494,493,494,492,235
492,494,494,492,293
494,494,493,492,398
494,494,492,492,531
494,494,494,491,677
494,494,492,491,804
495,494,494,493,812
496,493,494,493,751
496,493,494,493,579
495,493,494,493,415
494,493,493,493,274
494,494,495,494,222
494,494,494,494,219
493,494,493,493,250
494,494,494,492,334
494,494,493,492,456
494,494,493,493,588
495,494,493,493,746
495,494,493,491,822
497,494,494,492,798
494,494,494,493,685
494,493,495,494,502
495,493,494,493,353
496,493,496,494,248
494,494,494,492,214
492,494,494,493,232
492,494,493,493,280
492,494,493,493,381
493,494,493,492,513
495,494,492,492,652
493,494,493,491,794
495,494,493,492,818
495,494,494,493,767
495,493,494,494,606
495,494,494,493,434
494,493,496,494,294
493,494,494,493,229
495,494,494,493,218
494,494,494,492,246
493,494,493,492,321
494,494,493,492,437
494,494,492,491,570
493,494,494,493,725
494,494,493,492,819
496,494,493,492,802
495,494,495,493,707
496,493,494,494,526
495,493,494,492,372
494,493,495,494,255
494,494,495,493,213
494,493,494,493,227
493,494,494,492,272
493,494,493,493,365
493,494,493,493,496
493,494,492,491,631
493,494,492,492,783
495,494,494,492,819
495,494,494,493,783
495,494,494,493,631
496,493,495,494,454
497,493,494,494,312
494,494,494,493,232
494,494,494,492,215
492,494,495,492,243
495,494,493,492,308
493,494,494,492,420
492,494,494,492,554
493,494,493,491,704
495,494,493,491,815
495,494,493,492,808
494,494,494,493,729
495,493,494,494,548
494,494,493,493,393
495,493,494,494,264
493,493,495,494,218
494,494,494,494,225
493,494,495,493,263
493,494,493,491,352
493,494,494,492,479
494,494,494,492,613
493,494,494,492,767
494,494,493,491,823
494,494,494,492,791
495,493,494,493,655
495,493,495,493,475
496,493,495,493,331
494,493,493,493,239
494,493,493,493,213
493,494,493,492,235
494,494,494,493,296
493,494,493,492,402
494,494,493,492,535
493,494,493,491,682
494,494,492,492,809
495,494,494,493,810
495,494,494,493,747
495,493,495,494,573
496,493,494,494,411
495,494,494,494,272
493,494,494,495,220
493,494,494,493,220
494,493,493,493,253
494,494,494,492,337
492,494,494,491,462
494,494,493,492,596
493,494,493,492,752
493,494,493,492,822
494,494,494,492,798
495,493,494,493,679
495,493,494,493,497
494,493,495,493,349
494,493,494,493,245
494,493,492,493,213
494,494,493,491,233
494,494,493,493,284
493,494,492,492,385
493,494,493,492,518
494,494,493,492,661
493,494,492,490,795
494,494,494,492,814
494,494,493,492,761
495,494,495,495,596
495,493,495,493,428
495,493,494,494,287
495,493,494,493,224
494,493,494,493,217
493,493,494,493,247
495,494,494,492,325
492,494,493,493,443
493,494,493,493,577
493,494,492,492,730
493,494,493,491,822
496,494,494,492,803
496,494,494,494,702
494,493,495,494,517
493,493,495,493,366
494,494,494,494,253
494,494,494,493,214
494,494,494,492,229
494,494,494,492,274
492,494,492,493,370
493,494,493,492,500
493,494,493,492,638
493,494,493,492,787
494,494,494,492,818
494,494,493,492,778
495,494,496,493,624
494,493,494,493,450
494,493,494,494,307
494,493,495,492,231
493,494,494,493,216
493,494,494,493,243
494,494,493,492,311
494,494,493,493,425
494,494,493,492,559
494,494,493,493,713
494,494,494,492,816
494,494,494,492,806
494,494,494,493,722
494,493,494,493,541
495,493,495,493,386
494,493,495,494,261
494,493,495,492,217
493,494,494,493,225
494,494,493,493,264
495,494,493,491,355
493,494,494,493,484
494,494,493,491,619
494,494,492,493,770
494,494,493,492,821
495,494,494,493,789
494,494,495,493,646
495,493,495,494,467
496,493,495,495,323
495,493,493,493,237
496,494,494,492,214
494,494,494,493,239
493,494,492,493,298
493,494,494,492,408
492,494,494,492,543
492,494,494,491,690
491,494,493,491,810
493,494,493,492,809
494,494,493,492,742
494,493,494,493,565
494,493,495,492,406
495,493,495,495,270
494,494,494,492,219
493,494,494,492,220
493,494,493,494,255
493,494,493,493,342
493,494,493,492,467
493,494,493,492,598
492,494,493,491,756
494,494,493,493,823
494,494,494,492,795
496,494,495,493,672
495,493,495,494,491
494,493,494,495,345
494,494,496,494,243
494,493,495,491,212
495,494,494,491,231
492,494,492,490,288
492,494,492,494,389
492,494,493,491,519
494,494,495,492,668
495,494,491,491,801
495,494,494,491,813
496,494,495,493,756
495,493,494,491,590
495,494,495,494,415
494,493,493,494,281
494,493,493,492,226
494,494,494,495,221
494,494,496,494,250
494,494,493,491,329
493,494,494,491,439
494,494,492,491,576
494,494,493,493,740
495,494,492,492,824
494,494,495,493,802
494,494,494,493,698
494,494,495,495,507
493,493,494,493,357
493,493,495,493,253
493,493,494,492,214
493,494,493,492,232
493,494,495,492,278
491,494,494,493,375
492,494,492,493,506
493,494,493,493,645
493,494,494,491,790
494,494,495,492,818
493,494,493,493,775
494,493,494,494,616
494,493,495,492,447
494,494,495,494,305
493,494,496,494,228
493,494,494,493,215
494,494,493,493,244
491,494,494,492,315
493,494,494,492,433
493,494,494,492,564
493,494,493,491,715
494,494,492,491,816
494,494,493,491,805
494,494,494,492,714
495,493,494,493,533
494,494,495,493,380
