Sensor0,Sensor1,Sensor2,Sensor3,Sensor4

494,474,495,493,487
494,474,495,493,487
494,474,495,493,486
494,474,495,493,486
495,474,495,493,486
494,474,495,493,487
494,474,495,493,488
494,474,495,493,489
494,474,495,493,489
495,474,495,493,490
494,474,495,493,490
494,474,495,494,489
494,474,495,493,488
495,474,495,493,487
494,474,495,493,487
494,474,495,493,486
494,474,495,493,486
494,473,495,493,487
494,474,495,493,488
494,474,495,493,489
494,474,495,493,490
494,474,495,493,490
494,474,495,493,490
494,474,495,493,490
494,474,495,493,489
494,474,495,493,488
494,474,495,493,487
494,474,495,493,487
494,474,495,493,486
494,474,495,493,487
494,474,495,493,488
495,474,495,492,488
494,474,495,493,489
494,474,495,494,490
494,474,495,493,490
495,474,495,493,490
495,474,495,493,490
495,474,495,493,488
494,474,495,493,488
494,474,495,493,487
494,474,495,493,486
494,474,495,493,486
494,474,495,493,487
494,474,495,493,488
494,474,495,493,489
494,474,495,493,490
494,474,495,493,490
494,474,495,493,490
494,474,495,493,490
494,474,495,493,489
494,474,495,493,488
494,474,495,493,487
495,474,495,493,487
494,474,495,493,486
494,474,495,494,487
494,474,495,492,487
494,474,495,493,488
494,474,495,493,489
494,474,495,493,490
494,474,495,493,490
494,474,495,493,490
494,474,495,493,489
494,474,495,493,488
494,474,495,493,487
494,474,495,493,487
494,474,495,493,486
494,474,495,493,487
495,474,495,493,487
494,474,495,493,488
494,474,495,492,489
494,474,495,493,490
495,474,495,491,489
495,474,495,494,490
494,474,495,493,489
494,474,495,493,489
494,474,495,493,488
494,474,495,493,487
494,473,495,494,487
494,473,495,493,486
494,474,495,493,486
494,474,495,493,487
495,474,495,492,488
495,474,495,493,489
494,474,495,493,490
494,474,495,493,490
494,474,495,493,490
494,474,495,493,489
494,474,495,493,488
494,474,495,493,487
494,474,495,493,487
494,474,495,493,486
494,474,495,493,486
494,474,495,493,487
495,474,495,493,488
494,474,495,493,489
494,474,495,493,489
494,474,495,493,490
494,474,495,493,490
494,474,495,493,490
494,474,495,493,489
494,474,495,493,488
494,474,495,493,487
494,474,495,493,487
494,474,495,493,486
494,474,495,493,487
494,474,495,493,487
494,474,495,493,488
494,474,495,493,489
494,474,495,493,490
494,474,495,493,490
494,474,495,493,490
494,474,495,493,489
494,474,495,493,488
494,473,495,493,488
494,473,495,493,487
494,474,495,493,486
494,474,495,493,486
495,474,495,493,487
494,474,495,493,487
494,474,495,493,489
494,474,495,493,489
494,474,495,493,490
494,474,495,493,490
494,474,495,493,490
494,474,495,493,489
494,474,495,493,488
494,474,495,493,487
494,474,495,493,487
494,474,495,493,486
494,474,495,493,486
494,474,495,493,487
494,474,495,493,488
494,474,495,493,489
494,474,495,493,490
494,474,495,493,490
494,474,495,493,490
494,474,495,493,489
494,474,495,493,489
494,474,495,493,488
494,474,495,493,487
494,474,495,493,486
494,474,495,493,486
494,473,495,493,486
494,474,495,493,487
495,474,495,493,488
495,474,495,493,489
494,474,495,493,490
494,474,495,493,490
494,474,495,493,489
494,474,495,493,489
494,474,495,493,488
494,474,495,493,487
494,474,495,493,487
494,474,495,493,486
495,474,495,493,486
494,474,495,493,487
494,474,495,493,488
494,474,495,493,489
494,474,495,493,489
494,474,495,493,490
494,474,495,493,490
494,474,495,493,489
494,474,495,493,489
494,474,495,493,488
494,474,495,493,487
494,474,495,493,486
494,474,495,493,486
494,474,495,493,486
494,474,495,493,487
494,474,495,493,488
494,474,495,493,489
494,474,495,493,490
494,473,495,493,490
494,474,495,493,490
494,474,495,493,489
494,473,495,493,488
494,473,495,493,488
494,474,495,493,487
494,474,495,493,486
494,474,495,492,486
494,474,495,494,487
494,474,495,493,488
494,474,495,493,489
494,474,495,493,489
495,474,495,493,489
494,474,495,493,490
494,474,495,493,489
494,474,495,493,489
494,474,495,493,488
494,474,495,493,487
494,474,495,493,486
494,474,495,493,486
494,474,495,493,486
494,473,495,493,487
494,474,495,493,488
494,474,495,493,489
494,474,495,493,490
494,474,495,493,490
494,474,495,493,489
494,474,495,493,489
494,474,495,493,488
494,474,495,493,487
494,474,495,493,487
494,474,495,493,486
494,474,495,493,486
494,474,495,493,486
494,474,495,493,488
494,474,495,493,488
494,474,495,493,489
494,474,495,493,490
494,474,495,493,490
494,474,495,493,489
494,474,495,493,489
494,474,495,493,488
494,474,495,493,487
494,474,495,493,487
494,474,495,493,486
494,474,495,493,486
494,474,495,493,487
494,474,495,493,488
494,474,495,493,489
494,474,495,493,489
495,474,495,493,489
494,474,495,493,489
494,474,495,493,489
494,474,495,493,488
495,474,495,493,487
495,474,495,493,487
495,474,495,493,486
494,474,495,493,486
494,474,495,493,486
494,474,495,494,487
494,474,495,492,488
495,474,495,493,489
495,474,495,493,489
494,474,495,493,490
495,474,495,493,489
494,474,495,493,489
494,474,495,493,488
494,474,495,493,487
494,474,495,493,486
494,474,495,493,486
495,474,495,493,486
495,474,495,493,487
494,474,495,493,488
494,474,495,493,489
495,474,495,493,489
495,474,495,493,490
495,474,495,493,490
494,474,495,493,489
495,474,495,493,489
494,474,495,493,488
494,474,495,493,487
494,474,495,493,486
494,474,495,493,486
494,474,495,493,486
494,474,495,493,487
494,474,495,493,488
494,474,495,493,489
494,474,495,493,489
494,474,495,493,490
494,474,495,493,489
494,474,495,493,489
494,474,495,493,488
494,474,495,493,487
494,474,495,493,487
494,474,495,493,486
494,474,495,493,486
494,474,495,493,487
494,474,495,493,488
494,474,495,492,488
494,474,495,491,489
494,474,495,494,490
494,474,495,493,489
494,474,495,493,489
494,474,495,493,488
494,474,495,493,488
494,474,495,493,487
494,474,495,493,486
494,474,495,493,486
495,474,495,493,486
494,474,495,493,487
494,474,495,493,488
494,474,495,493,489
495,474,495,493,489
495,474,495,493,489
494,474,495,493,489
494,473,495,493,489
494,473,495,493,488
494,474,495,493,487
495,474,495,493,487
494,474,495,493,486
494,474,495,493,486
494,474,495,493,487
494,474,495,493,488
494,474,495,493,489
494,474,495,493,489
494,474,495,492,489
494,474,495,493,490
494,474,495,493,489
494,474,495,493,489
494,474,495,493,488
494,474,495,493,487
494,474,495,493,487
494,474,495,493,486
494,474,495,493,486
494,474,495,493,487
494,474,495,493,488
494,474,495,493,489
494,474,495,493,489
494,474,495,493,490
494,474,495,493,490
494,474,495,492,489
494,474,495,493,489
494,474,495,493,488
494,474,495,493,487
494,474,495,493,486
495,474,495,493,486
494,474,495,493,487
494,474,495,493,487
494,474,495,493,489
495,474,495,493,489
494,474,495,493,490
494,474,495,493,490
494,474,495,493,489
494,474,495,493,489
494,474,495,493,488
494,474,495,493,487
494,474,495,493,487
494,474,495,494,486
494,474,495,492,486
494,474,495,493,487
494,474,495,493,488
494,474,495,493,489
494,474,495,493,490
494,474,495,493,490
494,474,495,493,490
494,474,495,493,489
494,474,495,493,488
494,474,495,493,487
494,474,495,493,487
494,474,495,493,486
494,474,495,493,486
494,474,495,493,487
494,474,495,493,487
494,474,495,493,488
494,474,495,493,489
494,474,495,493,490
494,473,495,493,490
494,474,495,493,490
494,474,495,493,489
494,474,495,493,488
494,474,495,493,487
494,474,495,493,487
494,474,495,493,486
494,474,495,493,486
495,474,495,493,487
494,474,495,493,488
494,474,495,493,489
494,474,495,493,489
494,474,495,493,490
494,474,495,493,490
495,474,495,493,489
494,474,495,493,488
494,474,495,491,487
494,474,495,494,487
494,474,495,493,486
494,474,495,493,486
495,474,495,493,486
494,474,495,493,487
494,474,495,493,488
495,474,495,493,489
495,474,495,493,489
494,474,495,493,490
494,474,495,493,490
494,474,495,493,489
495,474,495,493,488
494,474,495,493,487
494,474,495,493,487
494,474,495,493,486
494,474,495,493,486
494,474,495,493,487
494,474,495,493,488
494,474,495,493,489
495,474,495,493,489
494,474,495,493,490
494,474,495,493,490
494,474,495,493,489
494,473,495,493,489
494,474,495,493,488
494,473,495,493,487
494,474,495,493,486
494,474,495,493,486
494,474,495,493,487
494,474,495,493,487
494,474,495,493,488
494,474,495,493,489
494,474,495,493,490
494,474,495,493,490
494,474,495,493,490
494,474,495,493,489
494,474,495,493,488
495,474,495,493,488
494,474,495,493,487
494,474,495,493,486
494,474,495,493,486
494,474,495,493,487
494,474,495,493,487
494,474,495,493,488
494,474,495,493,489
494,474,495,493,490
495,474,495,493,490
494,474,495,493,490
494,474,495,493,489
494,474,495,493,488
494,474,495,493,487
495,474,495,493,486
495,474,495,493,486
494,474,495,493,486
494,474,495,493,487
494,474,495,493,488
494,474,495,493,489
494,474,495,493,490
494,474,495,493,490
494,474,495,493,490
494,474,495,493,489
495,474,495,493,489
494,474,495,493,488
494,474,495,493,487
494,474,495,493,486
494,474,495,493,486
494,473,495,493,486
494,473,495,493,488
494,474,495,493,489
494,474,495,493,489
495,474,495,493,490
494,474,495,493,490
495,474,495,493,489
495,474,495,493,489
494,474,494,493,488
494,474,495,493,487
494,474,495,493,487
494,474,495,493,486
495,474,495,493,486
495,474,495,493,487
494,474,495,492,487
495,474,495,492,489
494,474,495,494,489
494,474,495,493,490
494,474,495,493,489
494,474,495,493,489
494,474,495,493,488
494,474,495,493,488
494,474,495,493,487
494,474,495,493,486
494,474,495,493,486
494,474,495,493,487
494,474,495,493,487
495,474,495,493,488
495,474,495,493,489
495,474,495,493,490
494,474,495,493,490
495,474,495,493,490
495,474,495,493,489
495,474,495,493,488
494,474,495,493,488
494,474,495,493,487
495,474,495,493,486
494,474,495,493,486
494,474,495,493,487
494,474,495,493,488
494,474,495,493,489
494,474,495,493,490
494,474,495,493,490
495,474,495,493,490
494,474,495,493,489
494,474,495,493,489
495,474,495,493,488
494,474,495,493,487
494,474,495,493,487
494,474,495,493,486
494,473,495,493,487
494,474,495,492,487
494,474,495,493,488
494,474,495,493,489
494,474,495,493,490
494,474,495,493,490
495,474,495,493,490
495,474,495,493,489
494,474,495,493,488
495,474,495,493,487
495,474,495,493,487
494,474,495,493,486
494,474,495,493,486
495,474,495,493,487
494,474,495,493,488
494,474,495,493,489
495,474,495,493,490
495,474,495,493,490
494,474,495,493,490
495,474,495,493,490
495,474,495,493,489
494,474,495,493,488
494,474,495,493,487
494,474,495,493,487
495,474,495,493,486
495,474,495,493,487
494,474,495,493,487
494,474,495,493,488
494,474,495,493,489
494,474,495,493,490
494,474,495,493,490
494,474,495,493,490
494,474,495,493,489
494,474,495,493,489
494,474,495,493,488
494,474,495,493,487
494,474,495,493,486
494,474,495,493,486
494,474,495,493,487
494,474,495,494,488
494,474,495,495,489
494,474,495,492,489
494,474,495,493,490
494,474,495,493,490
494,474,495,493,490
495,474,495,493,489
494,474,495,492,488
494,474,495,491,487
494,474,495,494,486
494,474,495,493,486
494,474,495,493,486
494,474,495,493,487
494,474,495,493,488
495,474,495,493,489
494,474,495,493,489
494,474,495,493,490
494,474,495,493,490
494,474,495,493,489
494,474,495,493,488
495,474,495,493,487
494,474,495,493,487
495,474,495,493,486
494,474,495,493,486
494,474,495,493,486
494,474,495,493,488
494,474,495,493,488
494,474,495,493,489
494,474,495,493,490
494,474,495,493,490
494,474,495,493,489
494,474,495,493,489
494,474,495,493,488
494,474,495,493,487
494,474,495,493,486
494,474,495,493,486
494,474,495,493,486
494,474,495,493,487
494,474,495,494,488
494,474,495,493,489
494,474,495,493,490
494,474,495,493,490
494,474,495,493,490
494,474,495,494,490
494,474,495,493,489
494,474,495,493,488
494,474,495,493,487
494,474,495,493,486
494,474,495,493,486
495,474,495,493,487
494,474,495,493,487
494,474,495,493,488
494,474,495,493,490
494,474,495,493,490
494,474,495,493,490
495,474,495,493,490
495,474,495,493,489
494,474,495,493,488
495,474,495,493,487
494,474,495,493,487
494,474,495,493,486
495,474,495,493,487
494,474,495,493,487
494,474,495,493,488
494,474,495,493,489
494,474,495,493,490
495,474,495,493,490
494,474,495,493,490
494,474,495,493,489
494,474,495,493,489
494,474,495,493,488
494,474,495,493,487
494,474,495,493,486
494,474,495,493,486
494,474,495,493,487
494,474,495,494,488
494,474,495,494,488
494,474,495,493,489
494,474,495,493,490
494,474,495,493,490
494,474,495,493,490
494,474,495,493,489
494,474,495,493,488
494,474,495,493,487
494,474,495,493,487
495,474,495,493,486
494,474,495,493,486
494,474,495,493,487
494,474,495,493,488
495,474,495,493,489
494,474,495,493,490
495,474,495,493,490
495,474,495,493,490
495,474,495,493,490
495,474,495,493,489
494,474,495,493,488
494,474,495,493,487
494,474,495,493,487
494,474,495,493,486
494,474,495,493,486
495,474,495,493,487
494,474,495,493,488
494,474,495,493,489
494,474,495,493,490
494,474,495,493,490
494,474,495,493,490
495,474,495,493,489
494,474,495,493,488
494,474,495,493,487
494,474,495,493,487
494,474,495,493,486
495,474,495,493,486
494,474,495,493,486
494,474,495,493,487
494,474,495,493,488
494,474,495,493,489
494,474,495,493,489
494,474,495,493,490
494,474,495,493,489
494,474,495,493,489
494,474,495,493,488
495,474,495,493,487
494,474,495,493,486
494,474,495,493,486
494,474,495,493,486
494,474,495,493,487
494,474,495,493,488
494,474,495,493,489
494,474,495,493,489
494,474,495,491,489
494,474,495,494,490
494,474,495,493,489
494,474,495,494,488
494,474,495,493,488
494,475,495,493,487
494,474,495,493,486
494,474,495,493,486
494,474,495,493,486
494,474,495,493,487
494,474,495,493,488
494,474,495,493,489
494,475,495,493,490
494,474,495,493,490
494,474,495,493,489
494,474,495,493,489
494,474,495,493,488
494,474,495,493,487
494,474,495,493,487
494,474,495,493,486
494,474,495,493,486
495,474,495,493,487
494,474,495,493,488
495,474,495,493,489
495,474,495,493,490
494,474,495,493,490
494,474,495,493,490
495,474,495,493,489
494,474,495,493,489
494,474,495,493,488
495,474,495,493,487
494,474,495,493,486
494,474,495,494,486
495,474,495,492,486
495,474,495,493,487
494,474,495,493,488
494,474,495,493,489
494,474,495,493,490
494,474,495,493,490
494,474,495,493,490
494,474,495,493,489
494,474,495,493,488
494,474,495,493,487
494,474,495,493,487
494,474,495,493,486
494,474,495,493,486
494,474,495,493,487
494,474,495,493,488
495,474,495,493,489
495,474,495,493,490
495,474,495,493,490
494,474,495,493,490
494,474,495,493,489
494,474,495,493,489
494,474,495,494,488
494,474,495,493,487
495,474,495,493,486
495,474,495,493,486
495,474,495,493,486
494,474,495,493,487
495,474,495,493,488
494,474,495,493,489
494,474,495,493,490
494,474,495,493,490
494,474,495,493,490
494,474,495,493,489
494,474,495,493,489
494,474,495,493,488
494,474,495,493,487
494,474,495,493,486
494,474,495,493,486
494,474,495,493,487
495,474,495,493,488
494,474,495,493,489
494,474,495,493,489
494,474,495,493,490
494,474,495,493,490
494,474,495,493,489
494,474,495,493,489
494,474,495,493,488
494,474,495,493,487
494,474,495,493,486
494,474,495,493,486
494,474,495,493,486
494,474,495,493,487
494,474,495,493,488
494,474,495,493,489
494,474,495,493,490
494,474,495,493,490
494,474,495,493,490
494,474,495,493,489
494,474,495,493,488
494,474,495,493,487
494,474,495,492,487
494,474,495,490,486
494,474,495,494,486
494,474,495,493,486
494,474,495,493,487
494,474,495,493,488
495,474,495,493,489
495,474,495,493,490
494,474,495,493,490
495,474,495,493,489
494,474,495,493,489
495,474,495,493,488
494,474,495,493,487
494,474,495,493,486
494,474,495,493,486
494,474,495,493,486
494,474,495,493,487
494,474,495,493,488
494,474,495,493,489
494,474,495,493,489
495,474,495,493,490
494,474,495,493,490
494,474,495,493,489
494,474,495,493,488
494,474,495,493,488
494,474,495,493,487
494,474,495,493,486
494,474,495,493,486
494,474,495,493,486
494,474,495,493,487
494,474,495,493,488
494,474,495,493,489
494,474,495,493,490
494,474,495,493,490
494,474,495,493,489
494,474,495,493,489
494,474,495,493,488
494,474,495,493,487
494,474,495,493,487
494,474,495,493,486
494,474,495,493,486
494,474,495,494,487
494,474,495,493,488
495,474,495,492,489
494,474,495,493,490
494,474,495,493,490
495,474,495,493,490
495,474,495,493,490
494,474,495,493,489
494,474,495,493,488
494,474,495,493,487
494,475,495,493,486
495,474,495,493,486
495,474,495,493,487
495,474,495,493,487
494,474,495,493,488
494,474,495,493,489
494,474,495,493,490
494,474,495,493,490
494,474,495,493,490
495,474,495,493,489
494,474,495,493,488
494,474,495,493,487
494,474,495,493,487
494,474,495,493,486
494,474,495,493,486
494,474,495,493,487
494,474,495,493,488
495,475,495,493,489
494,474,495,493,489
494,474,495,493,490
494,474,495,493,490
494,474,495,493,490
494,474,495,493,489
494,474,495,493,488
494,474,495,493,487
494,474,495,493,487
494,474,495,493,486
494,474,495,493,487
494,474,495,493,487
494,474,495,493,488
494,474,495,493,489
494,474,495,493,490
494,474,495,493,490
494,474,495,493,490
494,474,495,493,489
494,474,495,493,488
494,474,495,493,487
494,474,495,491,486
494,474,495,494,486
494,474,495,494,486
494,474,495,493,487
494,475,495,493,488
494,474,495,493,489
494,474,495,493,489
494,474,495,493,490
494,474,495,493,490
494,474,495,493,490
494,474,495,493,489
494,475,495,493,488
494,474,495,493,487
494,474,495,493,487
494,474,495,493,486
494,474,495,493,487
494,474,495,493,487
494,475,495,493,488
494,474,495,493,489
495,474,495,493,490
494,474,495,493,490
494,474,495,493,490
494,474,495,493,490
494,474,495,493,489
494,474,495,493,488
494,474,495,493,487
494,475,495,493,486
494,474,495,493,486
494,474,495,493,487
494,474,495,493,488
494,474,495,493,489
494,474,495,493,489
494,474,495,493,490
494,474,495,493,490
494,474,495,493,490
494,474,495,493,489
494,474,495,493,488
494,474,495,493,487
494,474,495,493,487
494,474,495,493,486
494,474,495,493,486
494,474,495,493,487
494,474,495,494,488
494,474,496,495,489
494,474,495,492,490
494,474,495,492,490
495,475,495,493,490
494,475,495,493,489
494,474,495,493,489
494,474,495,493,488
494,474,495,493,487
494,474,495,493,486
494,474,495,493,486
494,474,495,493,486
494,474,495,493,487
494,474,495,493,488
494,475,495,493,489
494,475,495,493,490
495,475,495,493,490
495,474,495,493,489
494,475,495,493,489
494,474,495,493,488
494,474,495,493,487
495,475,495,493,486
494,474,495,493,486
494,474,495,493,486
494,474,495,493,487
494,474,495,493,488
494,475,495,493,489
494,475,495,493,490
494,475,495,493,490
494,475,495,493,490
494,474,495,493,489
494,474,495,493,489
494,474,495,493,488
494,474,495,493,487
494,474,495,493,487
494,474,495,493,486
494,474,495,493,487
494,474,495,493,488
494,475,495,492,488
494,474,495,493,489
494,474,495,494,490
494,474,495,493,490
495,474,495,492,490
495,474,495,490,489
495,474,495,493,488
494,474,495,494,487
494,474,495,493,487
494,474,495,493,486
494,474,495,493,486
494,475,495,493,487
494,475,495,493,488
494,474,495,493,489
494,474,495,493,489
494,474,495,493,490
494,474,495,493,490
494,474,495,493,490
494,475,495,493,489
494,475,495,493,488
495,474,495,493,487
494,474,495,493,487
494,474,495,493,486
494,474,495,493,487
494,474,495,493,487
494,474,495,493,488
494,474,495,493,489
494,474,495,493,490
494,474,495,493,490
494,474,495,493,490
494,474,495,493,489
494,474,495,493,488
494,474,495,493,487
494,474,495,493,487
494,474,495,493,486
494,474,495,493,486
494,474,495,493,487
494,474,495,493,488
494,474,495,494,489
494,474,495,493,489
494,474,495,493,490
495,474,495,493,490
495,474,495,494,490
495,474,495,492,489
495,475,495,493,488
494,474,495,493,487
495,475,495,493,487
494,474,495,493,486
494,475,495,493,486
494,474,495,494,487
494,474,495,493,488
495,475,495,493,489
495,475,495,493,490
494,475,495,493,490
495,474,495,493,490
494,474,495,493,490
494,475,495,493,489
494,474,495,493,488
494,474,495,493,487
494,474,495,493,486
494,474,495,493,486
494,474,495,493,487
494,475,495,493,488
494,474,495,493,489
494,474,495,493,489
494,474,495,493,490
494,474,495,493,490
494,474,495,493,490
494,474,495,493,489
494,474,495,493,488
494,474,495,493,488
494,474,495,493,487
494,475,495,493,486
494,474,495,493,487
494,474,495,493,487
494,475,495,493,488
494,474,495,493,489
494,474,495,493,490
494,474,495,493,490
494,474,495,493,490
494,474,495,493,489
494,474,495,493,489
494,474,495,493,488
494,474,495,493,487
494,474,495,493,486
495,474,495,494,486
494,474,495,493,486
494,475,495,493,487
494,474,495,493,488
494,474,495,493,489
494,474,495,493,490
494,474,495,493,490
494,474,495,493,490
494,474,495,493,489
495,474,495,493,488
494,475,495,492,487
495,475,495,493,487
494,474,495,495,486
494,474,495,493,486
494,475,495,493,487
494,474,495,493,488
494,475,495,493,489
494,474,495,493,490
494,474,495,493,490
494,474,495,493,490
494,474,495,493,490
494,474,495,493,489
494,474,495,493,488
494,474,495,493,487
494,474,495,493,487
494,474,495,493,486
494,474,495,493,487
494,474,495,493,487
494,474,495,493,488
494,474,495,493,489
494,475,495,493,490
495,474,495,493,490
494,474,495,493,490
494,475,495,493,489
494,475,495,493,488
494,474,495,493,488
494,474,495,493,487
494,474,495,493,486
494,475,495,493,486
494,474,495,494,487
494,474,495,493,488
494,474,495,494,489
494,474,495,494,490
494,474,495,494,490
493,474,495,494,490
494,474,495,494,490
495,474,495,493,489
494,474,495,493,488
495,475,495,493,487
495,475,495,493,487
495,474,495,493,486
494,474,495,494,487
494,474,495,493,487
495,475,495,493,488
494,474,495,493,489
494,474,495,493,490
494,474,495,493,490
494,474,495,493,490
495,474,495,493,489
495,474,495,493,488
494,474,495,493,488
494,474,495,493,487
494,474,495,493,486
494,475,495,493,486
494,475,495,493,487
495,475,495,493,488
494,474,495,493,489
494,474,495,493,489
494,475,495,493,490
494,474,495,493,490
494,474,495,493,489
494,474,495,493,489
494,475,495,493,488
495,475,495,493,487
494,474,495,493,487
494,475,495,493,486
495,475,495,493,486
494,474,495,493,487
494,474,495,493,488
494,474,495,493,489
494,474,495,493,490
494,474,495,493,490
494,474,495,493,490
494,475,495,493,490
494,475,495,493,489
494,475,495,493,488
495,475,495,493,487
494,475,495,493,486
494,474,495,493,486
494,474,495,493,487
494,474,495,493,488
495,475,495,493,488
494,474,495,493,489
494,474,495,493,490
494,474,495,493,490
494,474,495,493,490
494,474,495,493,489
494,475,495,493,488
494,475,495,493,487
494,474,495,493,487
494,474,495,493,486
494,475,495,493,486
494,474,495,493,487
494,475,495,493,488
495,475,495,493,489
494,474,495,493,489
494,475,495,493,490
494,474,495,493,490
494,474,495,493,489
494,474,495,493,489
494,475,495,493,488
494,475,495,493,487
494,475,495,493,486
494,475,495,493,486
494,475,495,493,486
494,475,495,491,487
494,474,495,494,488
494,474,495,493,489
494,474,495,493,490
494,474,495,493,490
494,474,495,493,489
494,474,495,493,489
494,474,495,493,488
494,474,495,493,487
494,474,495,493,486
494,474,495,493,486
494,474,495,493,486
494,474,495,493,487
494,474,495,493,488
494,475,495,493,489
494,474,495,493,489
494,474,495,493,490
495,475,495,493,490
494,474,495,493,489
494,475,495,493,489
494,474,495,493,488
494,475,495,493,487
494,474,495,493,486
494,475,495,493,486
494,475,495,493,486
494,474,495,493,487
494,475,495,493,488
494,474,495,493,489
494,475,495,493,490
494,475,495,493,490
494,474,495,493,490
494,474,495,493,489
495,474,495,493,488
494,475,495,493,487
494,475,495,493,487
494,475,495,493,486
495,475,495,493,486
494,474,495,494,487
494,475,495,493,488
494,475,495,492,488
494,475,495,493,489
494,475,495,493,490
494,474,495,493,490
494,475,495,493,489
494,475,496,493,489
494,474,495,493,488
494,474,495,493,487
494,474,495,493,486
494,474,495,493,486
494,474,495,493,486
494,475,495,493,487
494,475,495,493,488
494,474,495,493,489
494,475,495,493,490
494,474,495,493,490
494,475,495,493,490
494,475,495,493,489
494,474,495,493,489
494,474,495,493,488
495,475,495,493,487
494,474,495,493,486
494,474,495,493,486
495,475,495,493,487
495,474,495,494,488
494,474,495,493,489
494,474,495,493,489
494,474,495,493,490
494,474,495,493,490
494,474,495,493,490
494,474,495,493,489
494,475,495,493,488
494,475,495,493,487
494,475,495,493,487
494,474,495,493,486
494,475,495,493,486
494,474,495,493,487
494,475,495,493,488
494,474,495,493,489
495,475,495,493,490
494,475,495,493,490
494,475,495,493,490
494,475,495,493,490
494,475,495,493,489
494,475,495,493,488
494,474,495,493,487
494,475,495,493,487
494,475,495,493,486
495,475,495,493,487
494,475,495,493,488
494,475,495,493,489
494,475,495,493,490
494,475,495,493,490
494,475,495,494,490
494,475,495,493,490
494,474,495,493,489
494,475,495,493,488
494,475,495,494,488
494,475,495,493,487
494,475,495,493,487
495,475,495,493,487
494,475,495,493,487
494,475,495,493,488
494,475,495,493,489
494,475,495,493,490
494,475,495,493,490
494,475,495,493,490
494,475,495,493,490
494,475,495,493,489
494,474,495,494,488
494,475,495,494,487
494,474,495,493,487
494,475,495,493,486
494,475,495,493,487
494,474,495,493,487
494,475,495,492,488
495,475,495,493,489
494,474,495,494,490
494,475,495,493,490
494,475,495,493,490
495,475,495,493,489
494,475,495,493,488
494,475,495,493,487
494,475,495,493,487
494,475,495,493,486
494,475,495,493,486
494,475,495,493,487
494,475,495,493,488
494,475,495,493,489
494,475,495,493,489
494,475,495,493,490
494,475,495,493,490
494,475,495,493,489
494,475,495,493,489
495,475,495,493,488
494,475,495,493,487
494,475,495,493,486
494,475,495,493,486
494,475,495,493,486
494,475,495,493,487
494,475,495,493,488
494,475,495,493,489
494,475,495,493,490
494,475,495,493,490
494,475,495,493,490
494,475,495,493,489
495,475,495,493,488
494,475,495,494,487
494,475,495,494,487
495,474,495,492,486
494,475,495,493,486
494,475,495,493,487
494,475,495,493,488
494,475,495,493,489
494,474,495,493,490
494,475,495,493,490
494,475,495,493,490
494,475,495,493,489
494,475,495,493,489
494,475,495,493,488
494,475,495,493,487
494,475,495,493,486
494,475,495,493,486
494,475,495,493,487
494,475,495,493,487
494,474,495,493,488
494,475,495,493,489
494,475,495,493,490
494,475,495,493,490
494,475,495,493,490
494,475,495,493,490
494,475,495,493,489
494,475,495,493,488
494,475,495,493,487
494,475,495,493,487
494,474,495,493,487
494,475,495,493,487
494,475,495,493,488
494,475,495,493,489
494,475,495,493,490
494,475,495,493,490
494,475,495,493,490
494,475,495,493,490
494,474,495,493,489
494,475,495,493,488
494,475,495,493,488
494,475,495,493,487
494,475,495,494,487
494,475,495,493,487
494,475,495,493,487
494,475,495,493,489
494,474,495,493,489
494,475,495,493,490
494,475,495,493,491
494,474,495,493,490
494,474,495,493,490
494,475,495,493,489
494,475,495,493,488
494,475,495,493,488
494,475,495,493,487
494,475,495,493,487
494,475,495,493,487
495,475,495,493,488
494,475,495,493,489
494,475,495,493,490
494,475,495,494,490
494,475,495,493,490
494,475,495,493,490
495,475,495,493,490
494,475,495,493,489
494,475,495,493,488
494,475,495,493,487
494,475,495,493,487
494,475,495,493,487
494,475,495,493,487
494,475,495,493,488
494,475,495,493,489
494,475,495,493,490
494,475,495,493,490
494,475,495,493,490
494,474,495,493,489
494,475,495,493,489
494,475,495,493,488
494,475,495,493,487
494,475,495,493,486
494,475,495,493,486
494,474,495,493,486
494,474,495,493,487
494,474,495,493,488
494,475,495,493,489
494,474,495,493,490
494,475,495,493,490
494,475,495,493,489
494,474,495,493,489
494,475,495,493,488
494,475,495,493,487
494,474,495,493,487
495,475,495,493,486
494,475,495,493,486
494,474,495,493,487
494,475,495,493,488
494,475,495,493,489
494,475,495,493,489
494,474,495,493,490
494,474,495,493,490
494,475,495,493,489
495,475,495,493,489
494,474,495,493,488
495,475,495,493,487
495,475,495,493,487
494,474,495,493,486
494,475,495,493,487
494,475,495,493,488
495,475,495,492,488
494,474,495,493,489
494,474,495,493,490
495,475,495,493,490
495,475,495,493,490
495,475,495,494,490
494,474,495,494,489
494,474,495,493,488
494,474,495,492,487
495,475,495,493,487
495,475,495,493,487
494,474,495,493,487
495,474,495,493,488
494,475,495,493,489
494,475,495,493,490
495,475,495,493,490
494,475,495,493,490
495,474,495,493,490
495,474,495,493,489
494,475,495,493,488
494,474,495,493,487
495,474,495,493,487
494,475,495,493,486
494,474,495,493,487
495,475,495,493,487
495,474,495,493,488
494,474,495,493,489
495,474,495,493,490
494,475,495,493,490
494,474,495,493,490
494,475,495,493,490
494,474,495,493,489
494,474,495,493,488
494,474,495,493,487
494,474,495,493,487
495,474,495,493,487
494,474,495,493,487
495,475,495,493,488
494,475,495,493,489
494,474,495,493,490
494,474,495,493,490
494,474,495,493,490
494,474,495,493,490
494,474,495,493,489
494,475,495,493,489
494,474,495,493,488
495,474,495,493,487
494,474,495,493,487
494,474,495,493,487
495,474,495,493,487
494,475,495,493,488
494,474,495,493,489
495,474,495,493,490
494,474,495,493,490
494,474,495,493,490
494,474,495,493,490
494,474,495,493,489
494,474,495,493,488
495,475,495,491,487
494,474,495,494,487
494,474,495,494,486
494,474,495,493,487
494,474,495,493,488
495,474,495,493,489
494,475,495,493,489
494,474,495,493,490
494,474,495,493,490
494,474,495,493,490
495,474,495,493,489
495,475,495,493,488
494,474,495,493,488
495,474,495,493,487
495,474,495,493,486
494,475,495,493,486
494,474,495,493,487
494,475,495,493,488
495,474,495,493,489
494,474,495,493,490
495,474,495,493,490
494,474,495,493,490
495,474,495,493,489
495,474,495,493,489
494,474,495,494,488
494,474,495,493,487
494,474,495,493,486
494,474,495,493,486
495,474,495,493,487
494,474,495,494,487
495,474,495,493,488
495,474,495,493,489
495,474,495,493,490
494,474,495,493,490
494,474,495,493,490
494,474,495,494,489
494,475,495,493,488
494,475,495,493,487
495,474,495,493,487
495,474,495,493,486
494,474,495,493,486
494,474,495,493,487
494,474,495,494,488
494,474,495,492,488
494,474,495,493,489
494,474,495,493,490
494,475,495,493,489
494,474,495,493,489
494,474,495,493,489
494,474,495,493,488
494,474,495,493,487
494,474,495,493,486
494,474,495,493,486
495,474,495,493,486
495,474,495,493,487
494,474,495,493,488
494,474,495,493,489
494,474,495,493,490
494,474,495,493,490
494,474,495,493,490
495,474,495,493,489
495,474,495,493,488
495,474,495,493,487
494,474,495,493,487
494,474,495,493,486
494,474,495,493,486
494,474,495,493,487
495,474,495,493,488
495,474,495,493,489
495,474,495,493,489
494,474,495,493,490
495,474,495,493,490
494,474,495,493,490
495,474,495,493,489
495,474,495,493,488
495,474,495,493,487
495,474,495,493,487
494,474,495,493,486
494,474,495,493,487
495,474,495,493,487
495,474,495,493,488
494,474,495,493,489
494,474,495,493,490
494,474,495,493,490
494,474,495,493,490
495,474,495,493,490
494,474,495,493,489
495,474,495,493,488
495,474,495,493,487
495,474,495,493,487
495,474,495,493,487
494,474,495,493,487
495,474,495,493,488
495,474,495,491,488
495,474,495,494,490
495,474,495,494,490
494,474,495,493,490
495,474,495,493,490
495,474,495,493,489
494,474,495,493,488
495,474,495,493,487
495,474,495,493,487
495,474,495,493,486
495,474,495,493,486
495,474,495,493,487
495,474,495,493,488
494,474,495,493,489
494,474,495,493,490
495,474,495,493,490
495,474,495,493,490
494,474,495,493,490
495,474,495,493,489
494,474,495,493,488
494,474,495,493,487
494,474,495,493,486
494,474,495,493,486
495,474,495,493,486
495,475,495,493,487
494,474,495,493,488
494,474,495,493,489
495,474,495,493,490
494,474,495,494,490
495,474,495,493,489
495,474,495,493,489
495,474,495,493,488
495,474,495,493,487
494,474,495,493,487
495,474,495,493,486
494,474,495,493,486
495,474,495,493,487
495,474,495,493,488
495,474,495,493,489
495,474,495,493,489
495,474,495,493,490
495,474,495,493,490
494,474,495,493,489
495,474,495,493,489
494,474,495,493,488
494,474,495,493,487
495,474,495,493,486
494,474,495,493,486
494,474,495,493,487
495,474,495,493,487
495,474,495,493,488
494,474,495,493,489
495,474,495,493,490
495,474,495,493,490
494,474,495,493,490
494,474,495,493,489
494,474,495,493,488
494,474,495,493,487
495,474,495,493,487
494,474,495,493,486
495,474,495,493,486
494,474,495,493,487
495,474,495,493,488
494,474,495,493,489
495,474,495,493,489
495,474,495,494,490
494,474,495,494,490
495,474,496,493,489
495,474,495,493,489
494,474,495,493,488
495,474,495,493,487
494,474,495,493,487
494,474,495,493,486
495,474,495,494,487
494,474,495,493,487
494,474,495,493,488
495,474,495,493,489
494,475,495,493,490
495,474,495,493,490
494,474,495,493,490
494,474,495,493,489
495,474,495,493,488
495,474,495,493,488
495,474,495,493,487
495,474,495,493,486
495,474,495,493,486
495,474,495,493,487
494,474,495,493,488
494,474,495,493,489
494,474,495,493,490
495,474,495,493,490
495,474,495,493,490
495,474,495,493,490
495,474,495,493,489
494,474,495,494,488
495,475,495,493,487
495,474,495,493,487
495,474,495,493,486
495,475,495,493,486
495,475,495,491,486
495,474,495,494,488
494,474,495,493,489
494,474,495,493,489
494,474,496,493,490
495,474,495,493,489
494,474,495,493,489
494,474,495,493,488
494,474,495,493,487
494,474,495,493,487
494,474,495,493,486
494,474,495,493,486
494,474,495,493,486
494,474,495,493,487
494,474,495,493,488
495,474,495,493,489
494,474,495,493,489
494,474,495,493,490
495,474,495,493,489
495,474,495,493,489
495,474,495,493,488
495,474,495,493,487
494,474,495,493,486
494,474,495,493,486
495,474,495,493,486
495,474,495,493,487
495,475,495,493,488
494,474,495,493,488
494,474,495,493,489
494,474,495,493,489
494,474,495,493,489
495,474,495,493,489
495,474,495,493,488
495,474,495,493,487
494,474,495,493,487
494,474,495,494,486
494,474,495,493,486
494,474,495,493,486
494,474,495,493,487
494,474,495,493,488
494,474,495,493,489
495,474,495,493,489
495,474,495,494,489
494,474,495,493,489
495,475,495,493,489
495,474,495,493,488
494,474,495,493,487
495,474,495,493,486
495,474,495,493,486
495,475,495,493,486
495,475,495,493,486
494,475,495,493,487
495,474,495,493,488
494,474,495,493,489
494,474,495,493,490
494,474,495,493,490
494,474,495,493,489
494,474,495,493,488
494,474,495,493,488
494,474,495,493,487
494,474,495,493,486
494,474,495,493,486
494,474,495,493,486
494,474,495,493,487
494,474,495,493,488
494,474,495,493,489
494,474,495,493,490
494,474,495,493,490
494,474,495,493,490
494,474,495,493,489
494,474,495,493,488
494,474,495,493,487
494,474,496,494,487
494,474,496,495,487
494,474,495,493,486
494,474,495,492,486
495,474,495,493,488
495,474,495,493,489
495,474,495,493,489
494,474,495,493,490
494,474,495,493,490
494,474,495,493,490
494,474,495,493,489
494,475,495,493,488
495,475,495,493,487
495,475,495,493,486
494,474,495,493,486
495,475,495,493,486
494,474,495,493,487
494,474,495,493,488
494,474,495,493,489
494,474,495,493,490
495,474,495,493,490
494,474,495,493,490
494,474,495,493,489
495,474,495,493,489
494,474,495,493,488
494,475,495,493,487
495,475,495,493,486
495,475,495,493,486
494,474,495,493,487
494,474,495,493,488
494,474,495,493,489
494,474,495,493,489
494,474,495,493,490
495,475,495,493,490
494,475,495,493,489
495,475,495,493,489
494,475,495,493,488
494,475,495,492,487
494,475,495,491,486
495,475,495,493,486
494,474,495,493,486
494,474,495,493,487
494,475,495,493,488
494,474,495,493,489
494,475,495,494,489
494,474,495,494,490
494,474,495,493,490
495,475,495,493,489
494,475,495,493,488
494,475,495,493,488
494,474,495,493,487
494,474,495,493,486
494,474,495,493,486
494,474,495,493,486
494,474,495,493,487
494,475,495,493,488
494,475,495,493,489
495,474,495,493,489
494,475,496,494,490
494,474,495,493,489
495,475,495,493,489
495,475,495,493,488
494,475,495,493,487
495,475,495,493,486
494,475,495,493,486
494,474,495,493,486
494,474,495,493,486
494,475,495,493,488
494,475,495,494,489
494,475,495,493,489
495,475,495,492,489
494,475,495,493,489
494,474,496,493,489
494,475,495,493,488
495,475,495,493,487
495,474,495,493,487
494,474,495,494,486
494,475,495,493,486
494,475,495,493,486
494,475,495,493,487
494,475,495,493,488
494,474,495,493,489
494,475,495,493,490
494,475,495,493,490
494,475,495,493,489
494,474,495,493,489
494,474,495,493,488
494,474,495,493,487
494,475,495,493,487
494,475,495,493,486
494,475,495,493,486
494,475,495,493,487
494,475,495,493,488
494,475,495,493,489
495,475,495,493,490
494,475,495,493,490
494,475,495,493,490
494,475,495,494,490
494,475,495,493,489
494,475,495,493,488
494,475,495,493,487
494,475,495,493,486
494,475,495,493,486
494,475,495,493,487
494,474,495,493,487
494,475,495,493,488
494,474,495,493,489
494,475,495,493,490
494,474,495,493,490
494,474,495,493,490
494,474,495,493,489
494,475,495,493,488
494,475,495,493,488
494,474,495,493,487
494,475,495,493,486
494,474,495,493,486
494,475,495,493,487
494,474,495,493,488
494,474,495,493,489
494,474,495,493,490
494,475,495,493,490
494,475,495,493,490
494,475,495,493,490
494,474,495,493,489
494,474,495,493,488
494,475,495,493,487
494,474,495,493,486
494,474,495,493,486
494,475,495,493,486
494,475,495,491,486
494,475,495,495,488
494,475,495,494,489
494,475,495,493,490
494,475,495,493,490
494,474,495,493,490
494,474,495,493,489
494,474,495,493,488
494,475,495,493,487
494,474,495,493,487
494,475,495,493,486
494,474,495,493,486
494,474,495,493,486
494,474,495,493,487
494,475,495,493,488
494,475,495,493,489
494,475,495,493,490
494,475,495,493,490
494,474,495,493,489
494,474,495,493,489
494,474,495,493,488
494,474,495,494,487
494,474,495,493,487
495,474,495,493,486
494,474,495,493,486
494,475,495,493,487
494,475,495,493,488
495,475,496,493,489
494,475,495,493,490
494,475,495,493,490
494,475,495,493,490
494,475,495,493,489
494,475,495,493,488
495,475,495,493,488
494,475,495,493,487
494,475,495,493,486
494,475,495,493,486
494,475,495,493,487
494,475,495,493,487
494,475,495,493,488
494,474,495,493,489
495,475,495,493,490
495,475,495,493,490
494,475,495,493,490
494,475,495,493,489
494,475,495,493,488
494,474,495,493,487
494,475,495,493,487
494,475,495,493,486
494,475,495,493,486
494,475,495,493,487
494,475,495,493,488
494,475,495,493,489
495,475,495,493,489
494,475,495,493,490
494,475,495,493,490
494,475,495,493,489
494,475,495,493,489
494,475,495,493,488
494,474,495,493,487
494,475,495,493,486
494,475,495,493,486
494,475,495,493,486
494,475,495,493,487
494,475,495,493,488
495,474,495,493,489
495,475,495,493,490
494,475,495,494,490
494,475,495,493,489
494,475,495,493,489
494,475,495,493,488
494,475,495,493,487
494,475,495,493,487
494,475,495,493,486
494,474,495,493,486
494,475,495,493,487
494,474,495,493,488
494,475,495,493,489
494,474,495,494,490
495,474,495,492,490
495,475,495,493,490
495,475,495,493,489
494,474,495,493,489
494,475,495,493,488
494,474,495,493,487
494,474,496,493,486
494,474,495,493,486
495,475,495,492,486
495,475,495,493,487
495,475,495,493,488
495,474,495,493,489
495,475,495,493,489
495,475,495,493,490
495,474,495,493,489
494,475,495,493,489
495,475,495,493,488
495,474,495,493,487
495,475,495,493,487
494,474,495,493,486
494,475,495,493,486
495,475,495,493,486
495,474,495,493,487
495,475,495,493,489
496,475,495,493,489
495,475,495,493,490
495,475,495,493,490
495,475,495,493,489
495,474,495,493,489
495,475,495,493,488
495,475,495,493,487
495,475,495,493,486
495,475,495,493,486
495,475,495,493,486
495,475,495,493,487
495,475,495,493,488
495,475,495,493,489
495,474,495,492,489
495,475,495,490,489
495,475,495,494,489
495,474,495,494,489
495,475,495,493,488
495,475,495,493,487
494,475,495,493,486
495,475,495,493,486
495,475,495,493,486
495,475,495,493,486
495,475,495,493,487
495,475,495,493,488
494,474,495,493,489
495,474,495,493,489
495,475,495,493,489
495,475,495,493,489
495,475,495,493,489
495,475,495,493,488
495,475,495,493,487
495,475,495,493,486
495,475,495,493,486
495,475,495,493,486
495,475,495,493,486
495,475,495,493,488
495,474,495,494,489
495,474,495,493,489
495,475,495,493,490
495,475,495,493,490
495,475,495,493,489
495,475,495,493,488
495,475,495,493,488
495,475,495,492,487
495,475,495,493,486
495,475,495,493,486
495,475,495,493,487
495,475,495,493,487
495,475,495,493,488
495,475,495,493,489
495,474,495,493,490
495,475,495,493,490
495,474,495,493,490
495,474,495,493,489
495,475,495,493,488
495,475,495,493,487
495,475,495,493,487
495,475,495,493,486
495,475,495,493,486
495,475,495,493,487
495,475,495,493,488
495,475,495,493,489
495,474,495,493,489
495,474,495,493,490
496,475,495,493,490
495,474,495,493,489
495,474,495,493,489
495,475,495,493,488
496,475,495,493,487
495,475,495,493,487
495,475,495,493,486
496,475,495,493,487
495,475,495,493,487
495,474,495,493,488
495,475,495,493,489
495,475,495,493,490
495,475,495,493,490
495,475,495,493,490
496,475,495,493,489
496,474,495,493,488
496,475,495,493,488
496,475,495,493,487
496,475,495,495,487
496,475,495,493,487
495,475,495,493,487
496,475,495,493,488
496,475,495,493,489
496,475,495,493,490
496,475,495,493,490
496,475,495,493,490
496,475,495,493,490
496,475,495,493,489
496,475,495,493,488
496,474,495,493,487
496,475,495,493,486
495,475,496,493,486
496,475,495,493,487
496,475,495,493,487
495,474,495,493,488
495,475,495,493,489
495,475,495,493,490
495,475,495,493,490
496,475,495,493,490
496,475,495,493,489
495,475,495,493,488
495,475,495,493,488
496,475,495,493,487
496,475,495,493,486
496,475,495,493,486
496,475,495,493,487
496,475,495,493,488
496,475,495,493,489
496,475,495,493,489
496,475,495,493,490
496,475,495,493,490
496,474,495,493,489
496,475,495,493,489
496,474,495,493,488
495,474,495,493,487
495,475,495,493,486
496,475,495,493,486
496,475,495,493,486
496,475,495,493,487
496,475,495,493,488
496,475,495,493,489
496,475,495,493,489
496,475,495,493,490
496,475,495,493,490
496,475,495,493,489
496,475,495,493,488
496,475,495,493,488
496,475,495,493,487
496,475,495,493,486
496,475,495,493,486
496,475,495,493,487
496,475,495,493,487
496,475,495,491,488
496,475,495,493,489
496,474,495,494,490
496,475,495,493,490
496,474,495,493,489
496,474,495,493,489
496,475,495,493,488
496,475,495,493,487
496,475,495,493,487
496,475,495,493,486
496,475,495,493,486
496,475,495,493,487
496,475,495,493,488
496,474,495,493,489
496,474,495,493,489
496,475,495,493,490
496,475,495,493,490
495,474,495,492,489
496,475,495,493,488
496,475,495,494,488
496,474,495,493,487
496,475,495,493,486
496,475,495,493,486
496,475,495,493,487
496,474,495,493,487
495,474,495,493,488
495,474,495,493,489
496,474,495,493,490
496,475,495,493,490
496,475,495,493,490
495,474,495,493,489
495,475,495,493,488
495,475,495,493,487
496,475,495,493,487
496,475,495,493,486
495,474,495,493,486
495,474,495,493,487
495,475,495,493,488
495,475,495,493,489
496,475,495,493,490
496,475,495,493,490
496,475,495,493,490
496,475,495,493,490
496,475,495,493,489
495,474,495,493,488
495,474,495,493,487
495,474,495,493,487
495,475,495,493,486
496,475,495,493,486
495,474,495,493,487
495,475,495,493,488
495,474,495,493,489
495,474,495,493,490
495,474,495,493,490
495,474,495,493,490
496,474,495,493,489
495,474,495,493,488
495,474,495,493,487
495,475,495,493,487
496,475,495,493,486
496,475,495,493,486
496,475,495,493,487
496,475,495,493,488
496,475,495,493,489
495,475,495,493,490
495,474,495,493,490
495,474,495,493,490
495,474,495,493,490
495,474,495,493,489
495,474,495,493,488
495,475,495,493,488
495,475,495,493,487
495,474,495,493,487
495,475,495,493,487
495,474,495,494,487
495,474,495,493,488
495,474,495,493,489
495,474,495,493,490
495,475,495,493,490
495,474,495,493,490
495,475,495,493,489
495,474,495,493,489
495,474,495,493,488
495,474,495,493,487
495,474,495,493,486
495,474,495,493,486
495,475,495,493,487
495,475,495,493,488
495,474,495,493,489
495,474,495,493,489
495,474,495,493,490
495,475,495,493,490
495,474,496,493,489
495,474,495,492,489
495,475,495,493,488
495,475,495,493,487
495,475,495,493,486
495,474,495,493,486
495,474,495,493,486
495,475,495,493,487
495,474,495,493,488
495,474,495,493,489
495,474,495,493,489
495,475,495,493,490
495,475,495,492,489
495,475,495,493,489
495,475,495,493,488
494,474,495,493,487
495,474,495,493,487
495,474,495,492,486
495,474,495,492,486
495,474,495,493,486
495,474,495,493,487
495,474,495,493,488
495,474,495,493,489
495,475,495,493,489
495,474,495,493,489
495,475,495,493,489
495,474,495,493,488
495,474,495,493,488
495,475,495,493,487
495,475,495,493,486
495,475,495,493,486
495,474,495,493,486
495,474,495,493,486
495,474,495,493,487
495,474,495,493,488
494,474,495,493,489
494,474,495,493,489
495,474,495,493,489
495,474,495,493,489
495,474,495,492,488
495,475,495,492,487
495,474,495,491,486
495,474,495,493,485
495,474,495,493,485
495,474,495,493,486
495,474,495,493,486
495,474,495,493,488
494,474,495,493,489
495,474,495,493,489
495,474,495,493,489
495,474,495,493,489
494,474,495,493,488
495,475,495,493,488
495,475,495,493,487
495,475,495,493,486
495,475,495,493,486
495,474,495,493,486
495,475,495,493,486
495,474,495,493,487
495,474,495,493,488
495,474,495,493,489
495,474,495,493,490
495,475,495,493,489
495,474,495,493,489
495,474,495,493,488
495,474,495,493,488
495,474,495,493,487
495,474,495,493,486
495,474,495,493,486
495,475,495,493,486
495,474,495,493,487
494,475,495,493,488
495,474,495,493,489
495,474,495,493,489
494,474,495,493,489
495,475,495,493,489
495,475,495,493,489
495,475,495,493,488
495,475,495,493,487
495,474,495,493,487
495,475,495,493,486
494,474,495,493,486
495,474,495,493,486
494,475,495,493,488
495,475,495,493,489
495,475,495,493,489
494,475,495,493,490
494,474,495,493,490
494,475,495,493,489
494,475,495,493,489
494,475,495,493,488
494,475,495,493,487
495,475,495,493,486
494,475,495,493,486
494,474,495,493,486
494,474,495,493,487
494,474,495,493,488
494,474,495,493,489
494,474,495,494,490
494,475,495,492,490
494,475,495,492,490
494,475,495,493,489
494,474,495,493,488
494,474,495,493,488
494,475,495,493,487
494,474,495,493,486
494,475,495,492,486
494,475,495,493,486
494,474,495,492,487
494,475,495,492,488
494,475,496,493,489
494,474,495,493,490
494,474,495,493,490
494,474,495,492,489
494,475,495,493,489
494,474,495,493,488
494,475,495,493,487
494,475,495,493,487
494,475,495,493,486
494,474,495,493,486
494,475,495,494,487
494,475,495,493,488
494,475,495,493,489
494,475,495,493,490
494,475,495,493,490
494,475,495,493,490
494,475,495,493,490
494,475,495,493,489
493,474,495,493,488
493,475,495,493,487
494,475,495,493,487
493,475,495,493,486
493,475,495,493,487
494,475,495,493,488
493,475,495,493,489
493,475,495,493,489
493,475,495,493,490
493,475,495,493,490
493,475,495,493,490
493,475,495,493,489
493,475,495,493,488
493,475,495,493,488
493,475,495,493,487
493,475,495,493,486
493,475,495,493,487
493,475,495,493,487
493,475,495,493,488
492,475,495,493,489
493,475,495,493,490
493,475,495,493,490
493,475,495,493,490
493,475,495,493,490
493,475,495,493,489
492,475,495,493,488
493,475,495,493,487
493,475,495,493,487
492,474,495,493,487
493,475,495,493,487
493,475,495,493,488
493,475,495,493,489
492,475,495,493,490
492,475,495,493,490
493,475,495,493,490
492,475,495,493,490
492,475,495,493,489
492,475,495,493,489
492,475,495,493,488
492,475,495,493,487
492,475,495,493,486
492,475,495,493,487
492,475,495,493,487
492,475,495,493,488
492,475,495,493,489
491,475,495,493,490
492,475,495,493,490
492,475,495,493,490
491,475,495,493,490
491,475,495,493,489
491,475,495,493,488
491,475,495,493,487
491,475,495,493,487
491,475,495,493,486
491,475,495,493,486
491,475,495,493,487
491,475,495,493,488
491,475,495,493,489
491,475,495,493,490
491,475,495,493,490
491,475,495,493,490
490,475,495,493,489
490,475,495,492,488
491,475,495,491,487
491,475,495,493,487
490,475,495,493,486
490,475,495,493,486
490,475,495,493,486
490,475,495,493,487
490,475,495,493,488
490,475,495,493,489
490,475,495,493,490
490,475,495,493,489
490,475,495,493,489
490,475,495,493,489
490,475,495,493,488
490,475,495,493,487
490,475,495,493,486
489,475,495,493,486
490,475,495,493,486
489,475,495,493,487
489,474,495,493,488
490,475,495,493,489
490,475,495,493,489
490,474,495,493,490
489,475,495,493,490
489,475,495,493,489
490,475,495,493,488
490,475,495,493,487
490,475,495,494,487
490,475,495,492,486
490,475,495,493,486
490,475,495,493,486
490,475,495,493,487
490,475,495,493,488
490,475,495,493,489
490,475,495,493,490
490,475,495,493,490
490,475,495,493,490
490,475,495,493,489
490,475,495,493,488
490,475,495,493,487
490,475,495,493,487
489,475,495,493,486
490,475,495,493,486
490,475,495,493,487
490,475,495,493,488
489,475,495,493,489
490,475,495,493,490
490,475,495,493,490
490,475,495,493,490
489,475,495,493,490
490,475,495,493,489
490,475,495,493,488
490,475,495,493,487
490,475,495,493,487
490,475,495,493,486
490,475,495,493,487
490,475,495,493,488
490,475,495,493,489
489,474,495,493,490
489,474,495,493,490
489,474,495,493,490
489,474,495,493,490
489,475,495,493,490
489,475,495,493,489
490,475,495,493,488
490,475,495,493,487
489,475,495,493,487
489,475,495,493,487
489,475,495,493,487
489,475,495,492,488
489,475,495,493,489
489,475,495,493,490
489,474,495,493,490
489,475,495,493,490
489,475,495,493,490
489,475,495,493,489
489,475,495,493,488
489,475,495,493,488
489,474,495,493,487
489,475,495,493,487
489,475,495,493,487
489,475,495,493,487
489,475,495,493,488
489,475,495,493,489
489,475,495,493,490
489,474,495,493,490
489,475,495,493,490
489,474,495,493,489
489,474,495,493,488
489,475,495,493,488
489,475,495,493,487
489,475,495,493,486
489,475,495,493,486
490,475,495,493,487
489,475,495,493,488
489,475,495,493,489
489,475,495,493,489
489,475,495,493,490
489,475,495,493,490
489,474,495,493,489
489,474,495,493,489
489,475,495,493,488
489,475,495,493,487
489,475,495,493,486
489,475,495,493,486
489,475,495,493,486
489,474,495,493,487
489,475,495,493,488
489,475,495,493,489
489,475,495,493,489
489,475,495,493,490
489,474,495,493,489
489,475,495,493,489
489,475,495,493,488
489,475,495,493,487
489,475,495,493,487
489,475,495,493,486
489,475,495,493,486
489,475,495,493,486
489,475,495,493,487
489,475,495,493,488
489,474,495,493,489
489,475,495,493,489
489,475,495,493,489
489,475,495,493,489
489,475,495,493,488
489,475,495,493,487
489,475,495,493,487
489,475,495,493,486
489,475,495,493,485
489,475,495,493,486
489,475,495,493,487
489,475,495,493,488
489,475,495,493,488
489,475,495,493,489
489,475,495,493,489
489,475,495,493,489
489,475,495,493,489
489,475,495,493,488
489,475,495,493,487
489,474,495,493,486
489,475,495,493,486
489,475,495,493,486
489,475,495,493,486
489,475,495,493,487
489,475,495,493,488
488,475,495,493,489
489,475,495,493,489
489,475,495,493,489
489,475,495,493,489
489,475,495,494,489
489,475,496,495,488
489,475,495,493,487
489,475,495,491,486
489,475,495,490,485
489,475,495,494,486
489,474,495,494,487
489,474,495,493,488
489,475,495,493,489
489,475,495,493,489
489,475,495,493,490
489,475,495,493,489
489,475,495,493,489
489,475,495,493,488
489,475,495,493,488
490,475,495,493,487
489,475,495,493,486
489,474,495,493,486
489,474,495,493,486
489,475,495,493,487
489,475,495,493,488
490,474,495,493,489
489,474,495,493,490
490,475,495,493,490
489,475,495,493,490
489,475,495,493,489
490,475,495,493,488
490,475,495,493,488
489,474,495,494,487
489,474,495,493,486
490,475,495,493,486
490,475,495,493,487
489,475,495,493,488
489,474,495,493,489
490,475,495,493,490
490,475,495,493,490
490,474,495,493,490
489,475,495,493,490
490,475,495,493,489
489,474,495,493,488
489,474,495,493,487
489,475,495,493,487
490,475,495,493,486
490,475,495,493,487
490,475,495,493,487
489,474,495,493,489
489,475,495,493,490
490,475,495,493,490
490,475,495,493,490
490,475,495,493,490
490,475,495,493,490
490,475,495,493,489
490,475,495,493,488
490,475,495,493,487
490,475,495,493,486
489,475,495,493,487
490,475,495,493,487
490,474,495,493,488
489,475,495,493,489
490,475,495,493,490
490,475,495,493,490
490,475,495,493,490
490,475,495,493,490
489,474,495,493,489
489,474,495,493,488
490,474,495,493,487
490,475,495,493,487
490,474,495,493,486
490,474,495,493,487
490,474,495,493,487
490,475,495,493,488
490,475,495,493,489
490,475,495,493,490
490,475,495,493,490
490,475,495,493,490
490,475,495,493,489
489,475,495,493,488
490,475,495,493,487
489,475,495,493,487
490,475,495,493,486
490,474,495,493,486
490,475,495,493,486
490,474,495,493,487
489,474,495,493,488
489,474,495,493,489
490,475,495,493,490
490,475,495,493,489
490,475,495,493,489
490,475,495,493,488
490,474,495,493,487
489,475,495,493,487
489,474,495,493,486
489,475,495,493,485
490,475,495,492,485
490,475,495,492,486
490,475,495,493,487
490,475,495,493,488
490,474,495,493,489
490,474,495,493,489
490,474,495,493,489
489,474,495,494,489
490,474,495,494,488
490,475,495,492,487
490,475,495,492,486
490,475,495,493,486
490,474,495,494,486
490,475,495,493,486
490,475,495,492,487
490,475,495,493,488
490,475,495,493,489
490,474,495,493,489
490,474,495,493,489
489,474,495,493,489
490,475,495,493,488
490,474,495,493,488
489,474,495,494,487
490,474,495,493,486
490,474,496,493,486
490,475,495,493,486
490,474,495,493,486
490,475,495,493,487
490,475,495,493,488
490,475,495,493,489
490,474,495,493,489
490,474,495,493,489
490,474,495,493,489
490,475,495,493,488
490,475,495,493,488
490,474,495,493,487
490,474,495,493,486
490,474,495,493,486
490,474,495,493,486
490,475,495,493,487
490,475,495,493,488
491,475,495,493,489
490,474,495,493,489
490,474,495,494,490
490,474,495,494,490
490,475,495,493,489
491,475,495,493,488
491,475,495,493,487
490,475,495,493,487
490,475,495,493,486
490,474,495,493,486
490,475,495,493,486
490,475,495,493,488
490,475,495,493,488
491,475,495,493,489
490,475,495,493,490
490,475,495,493,489
491,475,495,493,489
490,475,495,493,488
490,475,495,493,488
490,475,495,493,487
490,475,495,493,486
490,475,495,493,486
490,474,495,493,486
490,474,495,493,487
491,474,495,493,488
491,474,495,493,489
491,474,496,493,489
491,474,495,493,490
490,474,495,493,490
490,474,495,493,489
491,474,495,493,488
490,475,495,493,487
490,474,495,493,487
491,474,495,493,486
491,475,495,493,486
491,474,495,493,486
490,474,495,493,487
491,474,495,493,488
491,474,495,493,489
491,475,495,493,490
491,475,495,493,490
491,474,495,493,489
491,474,495,493,489
491,475,495,493,488
491,474,495,493,487
491,474,495,493,486
491,474,495,493,486
490,474,495,493,486
491,474,495,493,487
491,474,495,493,488
491,475,495,493,489
491,475,495,493,489
491,474,495,493,490
491,474,495,493,489
491,474,495,493,489
490,475,495,493,488
491,475,495,492,487
491,475,495,491,486
491,475,495,492,486
491,474,495,494,486
491,474,495,493,486
491,474,495,493,487
491,474,495,494,488
491,475,495,493,489
491,474,495,493,490
491,474,495,493,489
492,475,495,493,489
491,474,495,492,488
491,474,495,493,488
490,474,495,494,487
491,474,495,494,486
492,475,495,492,486
491,475,495,493,486
492,475,495,493,486
491,474,495,493,488
491,475,495,493,489
492,475,495,493,489
492,475,495,493,490
492,475,495,493,489
491,475,495,493,489
491,475,495,493,488
491,475,495,493,487
491,475,495,493,487
491,475,495,493,486
492,475,495,493,486
491,475,495,493,486
492,474,495,493,487
491,474,495,493,488
491,474,495,493,489
491,474,495,493,490
491,474,495,493,490
492,474,495,493,489
491,474,495,493,489
491,474,495,493,488
491,475,495,493,487
492,474,495,493,486
492,474,495,493,486
492,475,495,493,486
492,474,495,493,486
492,474,495,493,488
492,474,495,493,489
492,475,495,493,489
492,474,495,493,490
492,475,495,493,490
492,475,495,493,489
492,474,495,493,489
492,475,495,493,488
492,474,495,493,487
492,475,495,493,486
492,474,495,493,486
492,474,495,493,487
492,475,495,493,487
492,475,495,493,488
492,474,495,493,489
492,475,495,493,490
492,475,495,493,490
492,474,495,493,490
492,474,495,493,489
492,474,495,493,488
492,474,495,493,487
492,475,495,493,487
492,474,495,493,486
492,474,495,493,486
492,475,495,493,487
492,474,495,493,488
493,475,495,493,489
492,474,495,493,490
492,475,495,493,490
492,475,495,493,490
492,475,495,493,490
492,475,495,493,489
492,475,495,493,488
492,475,495,493,487
492,475,495,493,487
492,475,495,493,486
492,475,495,493,487
492,474,496,493,487
492,474,495,493,488
492,475,495,493,489
492,474,495,493,490
492,474,495,493,490
492,475,495,493,490
492,474,495,493,490
492,474,495,493,489
492,475,495,493,488
492,475,495,493,487
492,475,495,493,486
492,475,495,493,487
492,475,495,493,487
492,475,495,493,488
492,475,495,493,489
492,475,495,493,489
492,475,495,493,490
492,475,495,493,490
492,475,495,493,490
492,474,495,493,489
492,475,495,493,488
492,475,495,493,487
492,474,495,493,487
492,475,495,493,486
492,474,495,493,487
492,474,495,493,487
492,475,496,493,488
492,475,495,493,489
492,474,495,493,490
492,475,495,493,490
492,475,495,493,490
492,475,495,493,489
492,475,495,493,489
492,475,495,493,488
491,474,495,493,487
491,475,495,493,486
491,475,495,493,486
491,475,495,493,486
492,475,495,494,488
492,475,495,493,488
491,475,495,493,489
491,474,495,493,490
492,475,495,493,490
492,475,495,493,489
492,475,495,493,489
492,475,495,493,488
491,475,495,493,487
491,475,495,494,487
492,475,495,493,486
491,475,495,493,486
491,475,495,491,486
491,475,495,494,488
492,475,495,495,489
492,475,495,495,490
491,475,495,493,490
491,474,495,493,490
492,475,495,493,490
492,475,495,493,489
492,475,495,493,488
492,475,495,493,487
492,475,495,493,486
491,475,495,493,486
491,474,495,493,487
491,475,495,493,487
492,474,495,493,488
492,475,495,493,489
492,475,495,493,490
492,475,495,493,490
491,475,495,493,490
491,475,495,493,489
491,474,495,493,488
491,474,495,493,487
492,475,495,493,487
491,475,495,493,486
492,475,495,493,487
492,475,495,493,487
491,475,495,493,488
491,474,495,493,489
491,474,495,493,490
491,474,495,493,490
492,475,495,493,490
492,475,495,493,490
491,475,495,493,489
491,474,495,493,488
491,474,495,493,487
491,475,495,493,487
492,475,495,493,486
492,475,495,493,487
492,475,495,493,487
492,475,495,493,489
491,474,495,493,489
491,475,495,493,490
491,474,495,493,490
492,475,495,493,490
492,475,495,493,489
492,475,495,493,488
492,475,495,493,487
492,475,495,493,487
492,475,495,493,486
492,475,495,493,486
492,475,495,493,487
492,474,495,493,488
492,475,495,493,489
492,475,495,493,490
492,474,495,493,490
492,475,495,493,490
492,475,495,493,490
492,475,495,493,489
492,475,495,493,488
492,475,495,493,487
492,475,495,493,486
492,475,495,493,486
492,474,495,493,487
492,474,495,493,487
492,475,495,493,488
492,475,495,493,489
492,475,495,493,490
492,474,495,493,490
492,474,495,493,490
492,474,495,493,489
492,474,495,493,488
492,475,495,493,487
492,475,495,493,487
492,475,495,493,486
492,474,495,493,486
491,474,495,493,486
492,474,495,493,487
492,475,495,494,488
492,475,496,493,489
492,475,495,493,490
492,474,495,493,490
492,474,495,493,489
492,474,495,493,489
492,474,495,493,488
492,475,495,493,487
492,475,495,493,486
492,475,495,493,486
492,475,495,493,486
492,475,495,493,487
492,475,495,493,488
492,474,495,494,489
493,475,495,493,490
493,475,495,493,490
492,475,495,493,490
492,474,495,493,489
492,475,495,493,488
492,474,495,494,488
492,475,495,493,487
492,474,495,493,486
492,474,495,493,486
492,474,495,493,486
492,474,495,493,487
492,474,495,493,488
492,474,495,494,489
492,474,495,492,489
493,475,495,490,489
492,475,495,494,489
492,475,495,493,489
492,475,495,493,488
492,475,495,493,487
493,474,495,493,486
492,474,495,493,486
492,474,495,493,486
493,475,495,493,487
493,474,495,493,488
493,474,495,493,489
493,474,495,493,489
493,474,495,493,490
493,474,495,493,489
493,474,495,493,489
492,474,495,493,488
492,474,495,493,487
492,475,495,493,487
493,474,495,493,486
493,475,495,493,486
492,474,495,493,486
492,474,495,493,487
493,474,495,493,488
492,474,495,493,489
492,474,495,493,490
492,474,495,493,490
492,474,495,493,490
492,474,495,493,489
493,474,495,493,488
492,474,495,493,487
492,474,495,493,487
493,474,495,493,486
493,474,495,493,486
493,474,495,493,487
493,474,495,493,488
493,474,496,493,489
492,474,495,493,489
492,474,495,493,490
493,474,495,493,490
492,474,495,493,489
492,474,495,493,489
492,475,495,493,488
493,474,495,493,487
492,474,495,493,487
493,474,495,493,486
493,474,495,493,487
493,474,495,493,487
492,474,496,493,489
492,474,495,493,489
492,474,495,493,490
492,474,495,493,490
493,474,495,493,490
493,474,495,493,489
492,474,495,493,489
493,474,495,493,488
493,474,495,493,487
493,475,495,493,486
492,474,495,493,486
492,474,495,493,487
492,474,495,493,488
492,474,495,493,489
492,475,495,493,489
493,475,495,493,490
493,474,495,493,490
493,474,495,493,489
493,474,495,493,489
493,474,495,494,488
492,474,495,493,487
492,474,495,493,487
493,474,495,493,486
492,474,495,493,486
493,474,495,493,487
493,474,495,493,488
493,474,495,493,489
493,474,495,493,489
493,475,495,493,490
493,474,495,493,489
492,474,495,493,489
492,474,495,493,488
492,474,495,493,487
493,474,495,493,487
493,474,495,493,486
493,474,495,493,486
493,474,495,493,486
493,474,495,493,487
493,474,495,493,488
492,474,495,493,489
492,474,495,493,489
492,474,495,493,489
492,474,495,493,489
492,474,495,493,489
493,474,495,493,488
493,474,495,493,487
493,474,495,493,486
493,474,495,493,486
493,474,495,493,486
493,474,495,493,486
493,474,495,493,488
493,474,495,493,489
493,474,495,493,489
493,474,495,493,490
493,474,495,494,490
493,474,495,493,489
493,474,495,493,488
493,474,495,493,488
493,474,495,493,487
493,474,495,493,486
493,474,495,493,486
493,474,495,494,487
493,474,495,494,487
493,474,495,493,488
493,474,495,493,489
493,474,495,493,490
493,474,495,492,489
493,474,495,493,489
493,474,495,493,489
493,474,495,493,488
493,474,495,493,487
493,474,495,493,486
493,474,495,493,486
493,474,495,493,486
493,474,495,493,487
493,474,495,493,488
493,474,495,493,489
493,474,495,493,489
493,474,495,493,490
494,474,495,493,490
493,474,495,493,489
493,474,495,493,489
493,474,495,493,488
493,474,495,493,487
493,474,495,493,486
493,474,495,493,486
493,474,495,493,487
494,474,495,493,487
494,474,495,493,488
493,474,495,494,489
494,474,495,493,490
493,474,495,493,490
493,474,495,493,490
494,474,495,493,489
493,474,495,493,488
493,474,495,493,488
493,474,495,493,487
493,474,495,493,486
493,474,495,493,486
493,474,495,493,487
493,474,495,493,488
493,474,495,493,489
493,474,495,493,490
494,474,495,493,490
494,474,495,493,490
493,474,495,493,490
493,474,495,493,489
494,474,495,493,488
494,474,495,493,487
494,474,495,493,487
494,474,495,493,486
494,474,495,492,486
494,474,495,492,487
494,474,495,491,488
494,474,495,494,489
494,474,495,494,490
493,474,495,493,490
493,474,495,493,490
493,474,495,493,489
494,474,495,493,488
494,474,495,493,487
494,474,495,494,487
494,474,495,493,486
494,474,495,493,486
494,474,495,493,487
494,474,495,493,487
494,474,495,493,488
494,474,495,493,489
494,474,495,493,490
494,474,495,493,490
494,474,495,493,489
494,474,495,493,489
494,474,495,493,488
494,474,495,493,487
494,474,495,493,486
494,474,495,493,486
494,474,495,493,486
494,474,495,493,487
494,474,495,493,488
494,474,495,493,489
494,474,495,493,489
494,474,495,493,490
494,474,495,493,489
494,474,495,493,489
494,474,495,493,488
494,474,495,493,487
494,474,495,493,487
494,474,495,493,486
494,474,495,493,486
494,474,495,493,486
494,474,495,493,487
494,474,495,493,488
494,474,495,493,489
494,474,495,493,489
494,474,495,493,489
494,474,495,493,489
494,474,495,492,488
494,474,495,493,488
494,474,495,493,487
494,474,495,492,486
495,474,495,492,486
495,474,495,493,486
495,474,495,492,486
495,474,495,493,487
495,474,495,493,488
494,474,495,493,489
494,474,495,493,489
494,474,495,493,489
494,474,495,493,489
494,473,495,493,488
495,474,495,493,487
494,474,495,493,486
494,474,495,493,486
494,474,495,493,486
495,474,495,493,486
495,474,495,493,487
495,474,495,493,488
494,474,495,494,489
495,474,495,492,490
495,474,495,493,490
495,474,495,493,489
495,474,495,493,489
495,474,495,493,488
495,474,495,493,487
495,474,495,492,486
495,474,495,493,486
495,474,495,493,486
495,474,495,493,487
495,474,495,493,488
495,474,495,493,489
495,474,495,493,489
495,474,495,493,490
495,474,495,493,490
495,474,495,493,489
495,474,495,493,489
495,474,495,493,488
495,474,495,493,487
495,474,495,493,486
495,474,495,493,486
495,474,495,493,486
495,474,495,493,487
495,474,495,492,488
495,474,495,493,489
494,474,495,493,490
495,474,495,493,490
495,474,495,493,490
495,474,495,493,489
495,474,495,493,488
496,474,495,493,487
496,474,495,493,487
495,474,495,492,486
495,474,495,493,486
495,474,495,493,486
494,474,495,493,487
495,474,495,493,488
495,474,495,493,489
495,474,495,493,490
495,474,495,493,490
496,474,495,493,489
496,474,495,493,489
496,474,495,493,488
495,474,495,493,487
495,474,495,493,486
495,474,495,493,486
495,474,495,493,486
495,474,495,493,487
495,474,495,493,488
495,474,495,493,489
495,474,495,493,490
495,474,495,493,490
495,474,495,493,490
495,474,495,493,489
495,474,495,492,488
495,474,495,492,487
495,474,495,493,487
495,474,495,494,486
495,474,495,493,486
496,474,495,493,487
496,474,495,493,488
495,474,495,493,488
496,474,495,493,489
496,475,495,493,490
495,474,495,493,490
496,474,495,493,489
495,474,495,493,489
495,474,495,493,488
496,474,495,493,487
495,474,495,493,486
496,474,495,493,486
495,474,495,493,486
495,474,495,493,487
496,474,495,493,488
495,474,495,493,489
495,474,495,493,490
495,474,495,493,490
496,474,495,493,489
496,474,495,493,489
496,474,495,493,488
496,474,495,493,488
496,474,495,493,487
495,474,495,493,486
495,474,495,493,486
496,474,495,493,487
496,474,495,493,487
496,474,495,492,488
495,474,495,493,489
495,474,495,493,490
496,474,495,493,490
496,474,495,493,490
496,474,495,493,489
496,474,495,493,488
496,474,495,493,487
495,474,495,493,486
496,474,495,493,486
496,474,495,493,486
496,474,495,493,487
496,474,495,493,488
496,474,495,493,489
496,474,495,493,489
496,474,495,493,490
496,474,495,493,490
496,474,495,493,489
496,474,495,493,489
496,474,495,493,488
496,474,495,493,487
496,474,495,493,486
496,474,495,493,486
496,474,495,493,486
496,474,495,493,487
496,474,495,493,488
496,474,495,493,489
496,474,495,493,490
496,474,495,493,490
496,474,495,493,489
496,474,495,493,489
496,474,495,493,488
496,474,495,493,487
496,474,495,493,487
496,474,495,493,486
496,474,495,494,487
495,474,495,493,487
496,474,495,492,488
497,474,495,493,489
496,474,495,493,490
496,474,495,493,490
496,474,495,493,490
496,474,495,493,489
496,474,495,493,489
496,474,495,493,488
497,474,495,493,487
496,474,495,493,487
496,474,495,493,486
496,475,495,493,487
496,474,495,493,487
496,474,495,493,488
496,474,495,493,489
496,474,495,493,490
497,474,495,493,490
496,474,495,492,489
496,474,495,493,489
496,474,495,493,488
496,474,495,493,487
496,474,495,493,487
496,474,495,493,486
496,474,495,493,486
496,474,495,493,487
496,474,495,493,488
496,474,495,493,489
496,474,495,493,489
496,474,495,492,490
496,474,495,493,490
496,474,495,493,490
496,474,495,493,489
497,474,495,493,488
496,474,495,493,487
496,474,495,493,486
496,474,495,493,486
496,474,495,493,487
496,474,495,493,487
496,474,495,493,488
497,474,495,493,489
496,474,495,493,490
496,474,495,493,490
496,474,495,493,490
496,474,495,493,489
496,474,495,493,489
496,474,495,493,488
496,474,495,493,487
496,474,495,493,487
496,474,495,493,486
496,475,495,493,487
496,474,495,493,488
496,474,495,493,489
496,475,495,493,489
496,474,495,493,490
496,474,495,493,490
496,474,495,493,489
496,474,495,493,489
496,474,495,493,488
496,474,495,493,487
496,475,495,493,486
496,475,495,493,486
496,474,495,493,486
496,474,495,493,487
496,474,495,493,488
496,474,495,493,489
496,474,495,493,490
496,475,495,493,490
496,474,495,493,490
496,474,495,493,489
496,474,495,493,488
496,474,495,493,488
496,475,495,493,487
496,474,495,493,486
496,474,495,493,486
496,474,495,493,487
496,474,495,493,487
497,474,495,493,489
497,474,495,493,490
497,474,495,493,490
497,474,495,493,490
497,474,495,493,490
497,474,495,493,489
497,475,495,493,488
497,475,495,493,488
497,474,495,493,487
497,474,495,493,486
497,474,495,493,487
497,474,495,493,487
497,474,495,493,488
497,474,495,493,489
497,474,495,493,490
497,474,495,493,490
497,474,495,493,490
497,474,495,493,490
497,474,495,493,489
497,474,495,493,488
497,474,495,493,487
497,474,495,493,487
497,474,495,493,486
496,474,495,493,487
497,474,495,493,487
497,474,495,493,489
497,474,495,494,490
497,474,495,494,490
497,474,496,495,491
497,474,495,493,490
496,474,495,492,489
496,475,495,493,489
496,474,495,493,487
496,474,495,493,487
496,474,495,493,486
496,475,495,493,486
497,474,495,493,487
497,474,495,492,488
496,475,495,491,489
496,474,495,495,490
496,474,495,494,490
496,474,495,493,490
496,474,495,493,490
496,474,495,493,489
496,474,495,493,488
496,474,495,493,487
496,474,495,493,487
496,474,495,493,486
496,474,495,493,487
496,474,495,493,487
495,474,495,494,489
495,474,495,493,489
496,474,495,492,490
497,474,495,493,490
496,474,495,493,490
496,474,495,493,490
496,474,495,493,489
496,474,495,493,488
496,474,495,493,487
496,474,495,493,487
496,474,495,493,487
496,474,495,493,487
496,474,495,493,488
496,474,495,493,489
496,474,495,493,490
496,474,495,493,490
496,474,495,493,490
496,474,495,493,490
496,475,495,493,489
496,474,495,493,488
496,474,495,493,488
496,474,495,493,487
496,474,495,493,487
496,474,495,493,487
496,474,495,493,487
496,474,495,493,488
495,474,495,493,489
495,474,495,493,490
495,474,495,493,490
496,474,495,493,490
496,474,495,493,490
496,474,495,493,489
496,474,495,493,488
495,474,495,493,487
495,474,495,493,487
496,474,495,493,487
496,474,495,493,487
495,474,495,493,488
496,474,495,493,489
495,474,495,493,489
495,474,495,493,490
495,474,495,493,490
496,474,495,493,489
495,474,495,493,489
496,474,495,493,488
495,474,495,493,487
495,474,495,493,486
495,474,495,493,486
495,474,495,493,486
496,474,495,493,487
496,474,495,493,488
496,474,495,493,489
496,474,495,493,489
495,474,495,493,490
496,474,495,493,489
496,474,495,493,489
495,474,495,493,488
495,474,495,493,487
496,474,495,493,486
495,474,495,493,486
495,474,495,493,486
495,474,495,493,486
496,474,495,493,487
495,474,495,493,488
495,474,495,493,489
495,474,495,493,489
495,474,495,493,489
495,474,495,493,489
495,474,495,493,489
495,474,495,493,488
495,474,495,493,487
495,474,495,493,486
495,474,495,493,486
496,474,495,493,486
496,474,495,493,486
496,474,495,493,487
496,474,495,493,488
495,474,495,493,489
495,474,495,493,489
495,474,495,493,489
495,474,495,493,489
495,474,495,493,488
495,474,495,494,488
495,474,495,494,487
496,474,495,492,486
496,474,495,493,486
495,474,495,493,486
495,474,495,492,487
496,474,495,493,488
496,474,495,493,489
495,474,495,493,489
496,474,495,493,490
496,474,495,493,489
496,474,495,492,489
495,474,495,493,488
495,474,495,493,487
495,474,495,493,486
495,474,495,493,486
495,474,495,493,486
495,474,495,493,486
495,474,495,493,488
495,474,495,493,489
496,474,495,493,489
496,474,495,493,490
495,474,495,493,490
496,474,495,493,489
496,474,495,493,489
496,474,495,491,487
496,474,495,492,487
496,474,495,494,486
495,474,495,493,486
495,474,495,493,486
495,474,495,493,487
495,474,495,493,488
496,474,495,493,489
496,474,495,493,490
496,474,495,493,490
496,474,495,493,490
495,474,495,493,489
495,474,495,493,488
495,474,495,493,487
495,474,495,493,487
495,474,495,493,486
495,474,495,493,486
495,474,495,493,486
496,474,495,493,487
496,474,495,493,489
495,474,495,493,489
496,474,495,493,490
495,474,495,493,490
496,474,495,493,489
496,474,495,493,489
496,474,495,493,488
495,474,495,493,487
495,474,495,493,486
495,474,495,493,486
495,474,495,493,486
495,474,495,493,487
495,474,495,493,488
496,474,495,493,489
495,474,495,493,489
495,474,495,493,490
496,474,495,493,490
495,474,495,493,489
495,474,495,493,488
495,474,495,493,487
495,474,495,493,487
495,474,495,493,486
496,474,495,493,486
495,474,495,493,486
495,474,495,493,487
495,474,495,493,488
495,474,495,493,489
495,474,495,493,490
495,474,495,493,490
495,474,495,493,489
496,474,495,493,489
495,474,495,493,488
495,474,495,492,487
495,474,495,493,486
495,474,495,493,486
496,474,495,493,486
496,474,495,493,487
496,474,495,493,488
495,474,495,493,489
495,474,495,493,489
495,474,495,493,490
496,474,495,493,489
496,474,495,493,489
495,474,495,492,488
495,474,495,493,487
495,474,495,493,487
496,474,495,493,486
496,474,495,493,486
495,474,495,493,486
496,474,495,493,487
496,474,495,493,488
496,474,495,493,489
496,474,495,493,490
495,474,495,493,490
495,474,495,493,489
495,474,495,493,489
496,474,495,493,488
496,474,495,493,487
496,474,495,493,486
495,474,495,493,486
495,474,495,493,486
495,474,495,493,487
495,474,495,494,488
495,474,495,493,489
495,474,495,493,489
495,474,495,493,490
495,474,495,493,490
495,474,495,494,489
495,474,495,493,489
495,474,495,492,488
495,474,495,493,487
495,474,495,493,486
495,474,495,493,486
495,474,495,493,486
495,474,495,493,487
496,474,495,493,488
495,474,495,493,489
496,474,495,493,489
495,474,495,493,490
495,474,495,493,489
495,474,495,493,489
495,474,495,493,488
495,474,495,493,487
495,474,495,493,486
495,474,495,493,486
495,474,495,493,486
495,474,495,493,486
495,474,495,493,487
495,474,495,493,489
495,474,495,493,489
495,474,495,493,490
495,474,495,493,490
495,474,495,493,489
495,474,495,493,489
495,473,495,493,488
495,473,495,493,487
495,474,495,493,486
495,474,495,493,486
495,474,495,493,486
495,474,495,493,487
495,474,495,493,488
495,474,495,493,489
495,474,495,493,490
495,474,495,493,490
495,474,495,493,489
494,474,495,493,489
495,474,495,493,488
495,474,495,493,487
495,474,495,493,487
495,474,495,493,486
495,474,495,493,486
495,474,495,493,487
495,474,495,493,487
495,474,495,493,488
495,474,495,493,489
495,474,495,493,490
495,473,495,493,490
495,474,495,493,490
495,474,495,493,489
495,474,495,493,488
495,474,495,493,487
495,474,495,493,486
495,474,495,493,486
495,474,495,493,486
495,474,495,493,487
495,474,495,492,488
495,474,495,493,489
495,474,495,493,489
495,474,495,493,490
494,474,495,493,490
495,474,495,493,489
495,474,495,492,488
495,474,495,493,487
495,474,495,493,487
495,474,495,493,486
495,474,495,493,486
495,474,495,493,486
495,474,495,493,487
495,473,495,493,488
495,474,495,492,489
495,474,495,491,489
495,474,495,493,490
495,474,495,494,489
495,474,495,493,489
495,474,495,493,488
495,474,495,493,487
495,474,495,493,486
495,473,495,493,486
495,474,495,493,486
495,474,495,493,486
495,474,495,493,488
495,474,495,493,488
495,474,495,493,489
495,474,495,493,490
495,474,495,493,489
495,474,495,493,489
495,474,495,493,488
495,474,495,493,487
495,474,495,493,487
495,474,495,493,486
495,474,495,493,486
495,474,495,493,486
496,474,495,493,487
496,474,495,493,488
495,474,495,493,489
495,474,495,493,490
495,474,495,493,490
495,474,495,493,489
495,474,495,493,489
495,473,495,493,488
495,474,495,493,487
495,474,495,493,486
495,474,495,493,486
495,474,495,493,486
495,474,495,493,486
495,473,495,493,487
495,474,495,493,489
495,474,495,493,489
496,474,495,493,490
496,474,495,493,490
495,474,495,493,490
496,474,495,494,489
496,474,495,492,488
497,474,495,493,487
496,474,495,493,486
496,474,495,493,486
497,474,495,493,487
497,474,495,493,487
498,474,495,493,488
498,474,495,493,489
499,474,495,493,490
499,474,495,493,490
500,474,495,493,490
500,474,495,493,489
501,474,495,493,489
502,474,495,494,488
503,474,495,493,487
504,474,495,493,487
504,474,495,493,487
506,474,495,493,487
506,474,495,493,488
507,474,495,493,489
508,474,495,493,490
509,474,495,493,490
509,474,495,493,490
510,474,495,493,490
511,474,495,493,489
512,474,495,493,488
512,474,495,493,487
513,474,495,493,487
514,473,495,493,486
515,474,495,493,487
516,474,495,493,487
516,474,495,493,488
516,474,495,493,489
515,474,495,493,490
517,474,495,493,490
517,474,495,493,490
518,474,495,493,489
518,474,495,493,488
518,474,495,492,488
518,474,495,493,487
519,474,495,493,486
519,474,495,493,486
519,474,495,493,487
519,474,495,493,487
519,474,495,493,489
520,474,495,493,489
519,474,495,493,490
520,474,495,493,490
520,474,495,493,490
520,474,495,493,489
520,474,495,493,488
519,474,495,493,487
519,474,496,493,487
519,474,495,493,486
519,474,495,493,486
519,474,495,493,487
519,474,495,493,488
518,474,495,493,489
518,474,495,493,490
518,474,495,493,490
518,474,495,493,490
517,474,495,493,489
517,474,495,493,488
516,474,495,493,488
516,474,495,493,487
517,474,496,493,486
517,474,495,493,486
516,474,495,493,486
516,474,495,493,487
516,474,495,493,488
516,474,495,493,489
516,474,495,493,490
515,474,495,493,490
515,474,495,493,489
514,474,495,493,489
513,474,495,493,488
514,474,495,493,487
513,474,495,493,487
513,474,495,493,486
512,474,495,493,486
512,474,495,493,487
511,474,495,493,488
511,474,495,493,489
511,474,495,493,490
510,474,495,493,490
509,474,495,493,490
509,474,495,493,489
508,474,495,493,489
508,474,495,493,488
508,474,495,493,487
507,474,495,493,487
507,474,495,493,486
506,474,496,493,487
506,474,495,493,487
505,474,495,493,488
505,474,496,493,489
505,474,495,493,490
504,474,495,493,490
504,474,495,493,490
504,474,495,493,489
503,474,495,493,488
503,474,495,493,488
503,474,495,493,487
502,474,495,494,486
501,474,495,492,486
501,474,496,493,487
501,474,495,493,488
502,474,495,493,489
502,474,495,493,490
501,474,495,493,490
501,474,495,493,490
501,474,495,493,490
501,474,495,493,489
501,474,495,493,488
501,474,495,493,487
501,474,495,493,487
501,474,495,493,486
500,474,495,493,487
500,474,495,493,487
501,474,495,493,488
501,474,495,493,489
501,474,495,493,490
501,474,495,493,490
500,474,495,493,490
500,474,495,493,489
500,474,495,493,488
500,474,495,493,487
501,474,495,493,487
500,474,495,493,486
501,474,495,493,486
501,474,495,493,487
501,474,495,493,487
501,474,495,493,489
502,474,496,493,489
501,474,495,493,490
502,474,495,493,490
502,474,495,494,489
502,474,495,494,489
503,473,495,493,488
503,474,495,493,487
503,474,495,493,486
504,474,495,493,486
504,474,495,493,486
504,474,495,493,487
503,474,495,493,488
504,474,495,493,489
504,474,495,493,489
504,474,495,493,490
504,474,495,493,489
504,474,495,493,489
504,474,495,493,488
504,474,495,493,487
505,474,495,493,487
504,474,495,493,486
505,474,495,493,486
505,474,495,493,486
505,474,495,493,487
505,474,495,493,488
505,474,495,493,489
505,474,495,492,489
504,474,495,493,489
504,473,495,493,489
505,474,495,493,488
505,474,495,493,488
505,474,495,493,487
505,474,495,493,486
505,474,495,493,486
505,474,495,493,486
505,474,495,493,486
505,474,495,493,488
505,474,495,493,489
505,474,495,493,489
506,474,495,493,490
506,474,495,493,490
506,474,495,493,489
506,474,495,493,488
506,474,495,493,488
506,474,495,493,487
506,474,495,493,486
506,474,495,493,486
506,474,495,493,486
506,474,495,493,487
506,474,495,493,488
506,474,495,493,489
506,474,495,493,490
506,474,495,493,490
506,474,495,493,490
507,474,495,493,489
507,474,495,493,488
507,474,495,493,487
507,474,495,493,487
507,474,495,493,486
507,474,495,493,486
507,474,495,493,487
507,474,495,493,488
506,474,495,493,489
506,474,495,493,489
507,474,495,493,490
507,474,495,493,490
507,474,495,493,489
507,474,495,493,489
506,474,495,493,488
506,474,495,493,487
506,474,495,493,487
506,474,495,493,486
506,474,495,493,487
507,474,495,493,487
506,474,495,493,488
506,474,495,493,489
506,474,495,493,490
506,474,495,493,490
506,474,495,493,490
506,474,495,493,489
506,474,495,493,488
506,474,495,493,487
507,474,495,493,487
507,474,495,493,486
507,474,495,493,486
507,474,495,493,487
507,474,495,493,487
507,474,495,493,489
507,474,495,493,490
507,474,495,493,490
507,474,495,493,490
507,474,495,493,490
507,474,495,493,489
507,475,495,493,488
507,474,495,493,487
507,474,495,493,486
507,474,496,493,486
507,474,495,493,487
507,474,495,493,487
507,474,495,493,488
507,474,495,493,489
507,474,495,493,490
507,474,495,493,490
507,474,495,493,490
507,474,495,493,489
507,474,495,493,488
507,474,495,493,487
507,474,495,493,487
506,474,495,493,486
507,474,495,493,486
507,474,495,494,487
507,474,495,493,487
506,474,495,493,489
507,474,495,493,489
507,474,495,493,490
507,474,495,493,490
507,474,495,493,489
507,474,495,493,489
507,474,495,493,488
507,474,495,493,487
506,474,495,493,487
507,474,495,493,486
506,474,495,493,486
507,474,495,493,487
507,474,495,493,488
507,474,495,493,489
507,474,495,493,489
506,474,495,493,490
507,474,495,493,489
507,474,495,493,489
507,474,495,493,488
506,474,495,493,487
506,474,495,493,487
506,474,495,493,486
507,474,495,493,486
507,474,495,493,486
507,474,495,493,487
507,474,495,493,488
507,474,495,493,489
506,474,495,493,490
507,474,495,493,490
506,474,495,493,489
507,474,495,493,489
507,474,495,493,488
507,474,495,493,487
507,474,495,493,486
507,474,495,493,486
506,474,495,493,486
506,474,495,493,487
506,474,495,493,488
507,474,495,493,489
507,474,495,493,490
507,474,495,493,490
507,474,495,493,490
507,474,496,493,489
507,474,495,493,488
507,474,495,493,488
507,474,495,493,487
507,474,495,493,486
507,474,495,493,486
508,474,495,493,487
508,474,495,493,487
508,474,496,493,489
508,474,495,493,489
508,474,495,493,490
508,474,495,493,490
508,474,495,493,490
508,474,495,493,489
508,474,495,493,488
509,474,495,493,488
508,474,495,493,487
508,474,495,493,486
508,474,495,493,486
509,474,495,493,487
509,474,495,493,488
509,474,495,493,489
510,474,495,493,490
510,474,495,493,490
511,474,495,493,490
511,474,495,493,490
511,474,495,493,489
512,474,495,493,488
513,474,495,493,487
513,474,495,493,487
514,475,495,493,486
515,474,495,493,487
516,474,495,493,488
516,474,495,493,489
518,475,495,493,490
518,474,495,493,490
519,474,495,493,490
519,474,495,493,490
520,474,495,493,490
521,474,495,493,489
521,475,495,493,488
523,474,495,493,487
523,474,495,493,487
524,474,495,493,487
525,475,496,493,487
526,474,495,493,488
527,474,495,493,489
527,474,495,493,490
528,474,495,493,490
528,474,496,493,491
529,474,496,493,490
530,474,496,493,489
530,475,495,493,488
530,475,495,493,488
531,475,495,493,487
531,474,495,493,486
531,474,495,494,487
532,474,495,493,487
532,475,496,493,488
531,475,496,493,489
531,475,495,493,490
531,475,495,493,490
531,474,495,493,490
531,475,495,493,489
531,475,495,493,489
531,475,495,493,488
532,475,495,493,487
531,474,495,493,486
532,475,496,493,486
532,475,495,493,487
533,475,495,493,488
533,475,496,493,489
534,475,496,493,489
535,474,495,493,490
535,475,496,493,490
536,475,495,493,490
536,475,495,493,489
537,474,495,493,488
537,475,495,493,487
538,475,495,493,487
538,475,495,493,486
538,475,495,493,486
538,474,495,493,487
538,475,495,493,488
539,475,496,495,489
539,475,495,492,490
540,475,495,493,490
539,475,495,493,490
540,475,495,493,490
539,475,495,493,489
539,475,495,493,488
537,475,495,493,487
535,475,495,493,486
533,475,495,493,486
531,475,495,493,486
529,475,496,493,487
528,475,495,493,488
526,475,496,493,489
525,474,495,493,490
524,474,495,493,490
523,474,495,493,490
522,474,496,493,489
521,475,495,493,488
520,475,495,493,487
519,475,495,493,487
518,474,495,493,486
517,475,495,493,486
516,475,495,493,487
515,475,495,493,488
515,475,495,493,489
514,475,495,493,490
513,475,495,493,490
512,475,495,493,490
512,474,495,493,489
511,475,495,493,489
510,475,495,493,488
509,474,495,493,487
508,474,495,494,486
508,475,495,492,486
507,475,495,493,487
506,474,495,493,487
506,475,495,493,488
505,474,495,493,489
505,474,495,493,490
505,475,495,493,490
504,475,495,493,490
504,475,495,493,489
503,475,495,493,489
503,474,495,493,488
502,475,495,493,487
502,474,495,493,486
502,475,495,493,487
501,475,495,493,487
501,475,495,493,488
500,474,496,493,489
499,474,495,493,490
499,475,495,493,490
499,474,495,493,490
498,474,495,493,489
498,474,495,493,489
498,474,495,493,488
497,475,495,493,487
497,474,495,493,486
496,474,495,493,486
496,475,495,493,486
496,474,496,493,487
496,475,496,493,488
496,474,495,493,489
495,474,495,493,490
495,474,495,493,490
495,475,495,493,489
494,474,495,493,489
494,474,495,493,488
493,475,495,493,487
493,475,496,493,487
493,475,495,493,486
493,475,495,493,486
493,474,495,493,486
493,474,496,493,487
492,474,495,493,488
492,475,495,493,489
492,474,495,493,490
491,475,495,493,490
491,475,495,493,489
491,474,495,493,489
491,474,495,493,488
490,475,495,493,487
491,474,495,493,486
490,475,495,493,486
490,474,495,493,486
490,474,495,493,487
489,474,495,493,488
489,474,495,493,489
489,475,495,493,489
489,474,495,493,490
489,474,495,493,489
489,474,496,493,489
489,474,495,493,488
488,474,495,493,487
488,474,495,493,486
488,474,495,493,486
487,474,495,493,486
487,475,495,493,486
488,474,495,493,487
488,475,495,493,488
487,474,495,493,489
487,474,495,493,489
487,474,495,493,489
486,474,495,493,489
487,474,495,493,488
487,474,495,493,488
487,474,495,493,487
486,474,495,493,486
486,474,495,493,486
486,474,495,493,486
486,474,495,493,487
486,474,495,493,488
485,474,495,493,489
486,474,495,493,489
485,474,495,493,490
485,474,495,493,489
485,474,495,493,489
485,474,495,494,489
485,474,495,493,487
485,474,495,492,487
484,475,495,493,486
485,475,495,493,486
485,475,496,493,486
485,474,495,493,487
485,475,495,493,488
485,474,495,493,489
484,475,495,493,490
484,474,495,493,490
484,475,495,493,489
484,475,495,493,489
484,474,495,493,488
484,474,496,493,487
483,474,495,493,486
483,474,495,493,486
483,474,495,493,486
483,474,495,493,487
483,474,495,493,487
483,474,495,493,489
483,474,495,493,489
483,474,495,493,490
483,474,495,493,490
483,475,495,493,489
483,474,495,493,488
483,474,495,493,488
483,474,495,493,487
483,474,495,493,486
482,474,495,493,486
482,474,495,493,486
482,474,495,493,487
482,474,495,493,488
482,474,495,493,489
482,474,495,493,490
482,474,495,493,490
482,474,495,493,490
482,474,495,493,489
482,474,495,493,488
482,474,495,493,487
482,474,495,493,486
482,474,495,493,486
482,475,495,493,486
482,474,495,493,486
482,474,495,493,487
482,474,495,493,489
482,474,495,493,489
482,474,495,493,490
482,474,495,493,490
482,474,495,493,489
482,474,495,493,489
482,475,495,493,488
482,475,495,493,487
482,474,495,493,486
481,474,495,493,486
482,474,495,493,486
481,475,495,493,487
481,474,495,493,488
482,474,496,493,489
482,474,495,493,489
481,474,495,493,490
482,474,495,493,489
481,474,495,493,489
482,474,495,493,488
481,474,495,492,487
482,474,495,493,487
481,474,495,493,486
481,475,495,493,486
481,474,495,493,486
481,474,495,493,487
481,474,495,493,488
481,474,495,493,489
481,474,495,493,490
481,474,495,493,490
481,474,495,493,489
481,474,495,493,489
481,474,495,493,488
481,474,495,493,487
481,474,495,493,486
481,474,495,493,486
481,474,495,493,486
481,474,495,493,487
481,474,495,493,488
481,474,495,493,489
481,474,495,493,489
481,474,495,493,490
481,474,495,493,489
481,474,495,493,489
481,474,495,493,488
481,474,495,493,488
481,474,495,493,487
481,474,495,493,486
481,474,495,493,486
481,474,495,493,486
481,474,495,493,487
481,474,495,493,488
481,474,495,493,489
481,474,495,493,490
481,474,495,493,490
481,474,495,493,489
481,474,495,493,489
481,474,495,493,488
481,474,495,493,487
481,474,495,493,486
481,474,495,493,486
481,474,495,493,486
481,474,495,493,487
481,475,495,493,488
481,474,495,493,489
481,474,495,493,489
481,474,495,493,490
481,475,495,493,490
481,475,495,493,489
481,475,495,493,489
481,474,495,493,488
481,474,495,493,487
481,474,495,493,486
481,474,495,493,486
481,474,495,493,486
480,474,495,493,487
481,475,495,493,488
481,474,495,493,489
481,474,495,493,490
481,474,496,493,490
481,474,495,493,489
481,475,495,493,489
481,474,495,493,488
481,474,495,493,487
481,475,495,493,487
481,474,495,493,486
481,474,495,493,486
481,474,495,493,487
481,474,495,493,488
481,474,495,493,489
481,474,495,493,490
481,475,495,493,490
481,475,495,493,490
481,474,495,493,489
481,474,495,494,489
481,474,495,493,488
481,474,495,493,487
481,474,495,492,486
481,474,495,493,486
481,474,495,493,486
481,475,495,493,487
481,474,495,493,488
481,474,495,493,489
481,474,495,493,490
481,474,495,494,490
481,474,495,493,490
481,475,495,493,489
481,475,495,493,488
481,474,495,493,488
481,474,495,493,487
481,474,495,493,486
481,474,495,493,486
481,475,495,493,487
481,474,495,493,488
481,474,495,493,489
481,474,495,494,490
481,474,495,493,490
481,474,495,493,490
481,474,495,493,490
481,474,495,493,489
481,474,495,493,488
482,474,495,493,487
481,474,495,493,487
481,474,495,493,486
481,474,495,493,487
481,474,495,493,487
482,474,495,493,488
482,474,495,493,489
481,474,495,493,490
482,474,495,493,490
482,474,495,493,490
481,474,495,493,490
481,474,495,493,489
482,474,495,493,488
482,474,495,493,487
482,474,495,493,486
481,474,495,493,486
481,474,495,494,487
482,474,495,493,488
482,475,495,492,489
482,475,495,493,489
482,474,495,493,490
482,474,495,493,490
482,474,495,493,490
482,474,496,493,489
482,474,495,493,488
482,474,496,493,487
482,474,495,493,487
482,474,495,493,486
482,474,495,493,486
483,474,495,493,487
482,474,495,493,488
482,474,495,493,489
482,474,495,493,490
482,474,496,493,490
482,474,495,493,490
482,474,495,493,489
482,474,495,493,489
482,474,495,493,488
482,474,495,493,487
482,474,496,493,486
482,474,496,493,486
482,474,496,493,487
482,474,495,493,487
482,474,495,493,488
482,474,495,494,489
482,474,495,494,490
482,474,495,493,490
482,474,495,493,490
483,474,495,493,489
483,474,495,493,488
482,474,495,493,487
482,474,495,493,487
482,474,495,493,486
483,474,495,493,486
482,474,495,493,487
482,474,496,494,488
482,474,496,493,489
483,474,496,493,489
482,474,495,493,490
483,474,495,493,490
483,474,495,492,489
482,474,495,493,489
482,474,495,493,488
482,474,495,493,487
482,474,495,493,486
483,474,495,493,486
483,474,495,493,486
483,474,494,493,487
483,474,493,493,488
483,474,494,493,489
483,474,494,493,490
483,474,495,493,490
483,474,496,493,490
483,474,497,493,489
483,474,496,493,488
483,474,496,493,487
483,474,495,493,487
483,474,495,493,486
483,474,495,493,486
483,474,496,493,487
482,474,495,493,488
483,474,496,493,489
483,474,495,493,490
483,474,495,493,490
483,474,495,493,490
483,474,495,493,490
483,474,495,493,489
483,474,495,493,488
483,474,495,493,487
484,474,495,493,487
483,474,495,493,486
483,474,495,493,487
483,474,495,493,487
483,474,495,493,488
483,474,496,493,489
483,474,495,494,490
483,474,495,493,490
483,474,495,493,490
483,474,495,493,489
483,474,495,493,488
483,474,495,493,488
483,474,495,493,487
483,474,495,493,486
483,474,495,493,486
484,474,495,493,487
483,474,495,493,488
483,474,495,493,489
483,474,495,493,490
483,474,495,493,490
483,474,495,493,490
483,474,495,493,490
483,474,495,493,489
483,474,495,493,488
484,474,495,493,488
483,474,495,493,487
483,474,495,493,487
483,474,495,493,487
484,474,495,493,488
484,474,495,493,489
484,474,495,493,490
484,474,495,493,490
484,474,495,493,491
484,474,495,493,491
484,474,496,493,490
484,474,495,493,489
484,474,495,493,488
484,473,495,493,488
484,473,495,493,487
484,474,495,493,487
484,474,495,493,487
484,474,495,493,488
484,474,495,493,489
484,474,495,493,490
484,474,495,493,491
484,474,495,493,491
484,474,495,493,490
484,474,495,493,490
484,474,495,493,489
484,474,495,493,488
484,474,495,494,487
484,474,495,493,487
485,474,495,493,487
485,474,495,493,487
484,474,495,493,488
485,474,495,493,489
485,474,495,493,490
484,474,495,493,490
485,474,495,493,490
484,474,495,493,490
485,474,495,493,489
485,474,495,493,488
484,474,495,493,487
485,474,495,493,486
484,474,495,493,486
485,474,495,493,487
485,474,495,493,487
485,474,495,493,488
485,474,495,493,489
485,474,495,493,489
485,474,495,493,490
485,474,495,493,489
485,474,495,493,489
485,474,495,493,488
485,474,495,493,487
485,474,495,493,486
485,474,495,493,486
485,474,495,493,486
485,474,496,493,486
485,474,495,493,488
485,474,495,493,489
485,474,495,493,489
485,474,495,493,490
485,474,495,493,490
485,474,495,493,489
485,474,495,493,488
485,474,495,493,487
485,474,495,493,487
485,474,495,493,486
485,474,495,493,486
485,474,493,493,486
485,474,493,493,487
485,474,493,492,488
485,474,494,494,489
485,474,494,493,490
485,474,496,492,490
485,474,496,493,490
486,474,496,493,489
485,473,496,493,488
485,473,496,493,487
485,474,496,493,487
486,474,495,493,486
485,474,495,493,486
486,474,496,493,487
486,474,495,493,488
485,474,495,493,489
485,474,495,493,490
485,474,495,493,490
485,474,495,493,490
485,474,495,493,490
485,474,495,493,489
485,473,495,493,488
485,474,495,493,488
485,474,495,493,487
486,474,495,493,487
486,474,495,493,487
486,474,495,493,488
486,474,495,493,489
486,474,495,493,490
486,473,495,493,490
486,474,495,493,490
486,474,495,493,490
486,474,495,493,490
486,474,495,493,489
486,474,495,493,488
486,473,495,493,488
486,473,495,493,487
486,474,495,493,487
486,474,495,493,487
486,474,495,494,489
486,474,495,493,490
486,473,495,493,490
486,473,495,493,491
486,473,495,493,491
486,474,495,493,490
486,474,495,493,490
486,473,495,494,489
486,474,495,492,488
486,474,495,493,487
486,474,495,493,487
486,474,495,493,487
486,474,495,493,487
486,473,495,493,489
486,474,495,493,490
486,473,495,493,490
486,473,495,493,490
486,473,495,493,490
486,473,495,492,489
485,473,495,490,488
486,473,495,494,488
486,473,495,494,487
487,474,495,493,487
487,473,495,493,487
487,473,495,493,487
486,473,497,493,488
486,474,499,493,489
487,474,499,493,490
487,474,499,493,490
487,474,498,493,490
486,474,495,493,490
486,474,492,493,489
487,474,493,493,489
486,474,494,493,488
487,473,495,493,487
487,474,495,493,487
487,474,495,493,487
487,474,495,493,487
487,474,495,493,488
487,474,495,493,489
487,474,495,493,490
487,474,495,493,490
487,473,495,493,490
487,473,495,493,490
487,473,495,493,489
487,472,495,493,488
487,471,495,493,487
487,472,495,493,487
487,472,495,493,487
487,472,495,493,487
487,472,495,493,488
487,473,495,493,489
487,474,495,493,490
486,474,495,492,490
487,474,495,493,490
486,474,495,493,490
487,474,495,494,490
487,474,495,493,489
487,474,495,493,488
487,474,495,493,487
487,474,495,493,487
487,474,495,493,487
487,473,495,493,487
487,473,495,493,488
487,474,495,493,489
487,474,495,493,490
487,474,495,493,490
487,474,494,493,490
487,474,493,493,490
488,474,493,493,489
488,474,493,492,488
487,473,495,493,488
487,474,497,493,487
487,473,497,493,487
487,474,496,493,487
487,473,496,493,488
487,474,495,493,489
487,473,495,493,490
487,473,495,493,490
487,473,495,493,491
487,473,495,493,490
488,474,495,493,490
488,473,495,493,489
487,473,495,493,488
487,473,495,493,487
488,473,495,493,487
488,473,495,493,487
488,473,495,493,487
488,473,495,493,488
488,474,495,493,489
488,474,495,493,490
488,474,495,493,491
487,473,495,493,491
487,472,495,493,490
487,472,495,493,490
488,472,495,493,489
488,472,495,493,488
488,473,495,493,487
488,472,495,493,487
488,473,495,493,488
488,473,495,493,488
488,474,495,493,489
488,474,495,493,490
488,473,495,493,491
488,474,495,493,491
488,474,495,493,491
488,474,496,493,491
488,474,496,493,490
487,473,495,493,489
488,474,495,493,488
488,474,495,492,488
488,474,495,493,488
488,473,495,493,488
488,473,495,494,489
488,473,495,493,490
488,473,495,493,491
488,473,495,493,491
488,474,495,493,492
488,474,495,493,491
488,474,495,493,491
488,473,495,493,490
488,474,495,493,489
488,473,495,493,488
488,473,495,493,488
488,473,495,493,488
488,474,495,493,489
488,473,495,493,490
488,473,495,493,491
488,473,495,493,491
488,473,495,493,492
488,474,495,493,492
488,474,495,493,491
488,474,495,493,490
488,473,495,493,490
488,473,495,493,489
488,473,495,493,488
488,473,495,493,488
488,473,495,493,489
488,473,495,493,489
488,473,495,493,491
488,473,495,493,491
488,473,495,493,492
488,473,495,493,491
488,473,495,493,491
488,474,495,493,490
489,473,495,493,489
489,473,495,493,488
489,474,495,493,487
488,473,495,493,487
489,473,495,493,487
489,473,495,493,487
489,473,495,493,488
488,473,495,493,489
489,474,495,493,490
489,474,495,493,490
489,474,495,493,490
489,473,495,493,490
489,473,495,493,489
489,473,495,493,488
489,473,495,493,488
488,473,495,493,487
488,473,495,493,487
488,472,495,493,487
488,473,495,493,488
489,473,495,494,489
489,472,495,492,489
489,472,495,492,490
489,473,495,492,490
489,473,495,494,490
489,473,495,493,489
489,473,495,493,488
489,474,495,493,488
489,474,495,493,487
489,474,495,493,486
489,474,495,493,486
489,474,495,493,487
489,474,495,493,487
489,473,495,493,488
489,473,495,493,489
489,474,495,493,489
489,473,495,493,490
489,473,495,494,489
489,473,495,493,488
489,473,495,493,488
489,473,495,493,487
489,473,495,493,486
489,473,495,493,486
489,473,495,493,486
489,473,495,493,487
489,473,495,493,488
489,473,495,493,489
489,473,495,493,489
489,474,495,493,490
489,474,495,493,489
489,474,495,493,489
490,474,495,493,488
489,473,495,493,487
489,473,495,493,487
489,473,495,493,486
489,473,495,493,486
489,474,495,493,486
489,473,495,493,487
489,473,495,493,488
489,473,495,493,489
489,473,495,493,489
489,473,495,493,489
489,473,495,493,489
489,473,495,493,488
489,474,495,493,487
489,473,495,493,487
489,474,495,493,486
489,474,495,493,486
490,473,495,493,486
489,473,495,493,487
489,473,495,493,488
489,473,495,493,489
489,473,495,493,489
490,474,495,493,490
490,473,495,493,489
489,473,495,493,489
490,473,495,493,488
490,473,495,493,487
490,472,495,493,487
489,472,495,493,486
489,473,495,493,486
490,473,495,493,486
489,473,495,493,487
490,474,495,493,488
490,474,495,493,489
489,474,495,493,490
489,474,495,493,490
489,474,495,493,489
490,473,495,493,489
490,474,495,493,488
490,474,495,493,487
490,474,495,493,487
490,474,495,493,486
490,473,495,493,486
490,473,495,493,487
490,473,495,493,488
490,473,495,493,489
490,473,495,493,490
490,473,495,493,490
490,474,495,493,490
490,474,495,493,489
490,474,495,492,488
489,474,495,492,488
490,474,496,493,487
490,473,495,494,486
490,474,495,493,486
490,474,495,493,486
490,474,495,493,487
490,473,495,493,488
490,473,495,493,489
490,473,495,493,490
490,473,495,493,490
490,472,495,493,489
490,472,495,493,489
490,472,495,493,488
490,473,495,493,487
490,473,495,493,487
490,474,495,493,486
490,474,495,493,486
490,475,495,493,487
490,474,495,493,488
489,474,495,493,489
489,474,495,493,489
490,474,495,493,490
490,474,495,493,490
490,474,495,493,489
490,474,495,493,489
490,473,495,493,488
490,473,495,493,487
490,473,495,493,486
490,473,495,493,486
490,474,495,493,487
490,473,495,493,487
490,474,495,493,488
490,473,495,493,489
490,474,495,493,490
490,474,495,493,490
490,473,495,493,490
490,473,495,494,489
490,473,495,492,488
491,473,495,493,488
490,473,495,493,487
490,473,495,493,486
490,474,495,493,486
490,474,495,493,487
490,473,495,492,488
490,473,495,493,489
490,474,495,493,489
490,474,495,493,490
490,474,495,493,490
490,474,495,493,489
490,474,495,493,489
491,474,495,493,488
490,473,495,493,487
490,473,495,493,486
490,473,495,491,485
490,473,495,492,486
491,473,495,494,487
490,473,495,493,488
490,473,495,494,489
491,473,493,493,489
490,473,493,493,490
491,473,493,493,489
491,473,494,493,489
491,474,495,493,488
490,474,496,492,487
490,475,497,493,486
490,475,496,493,486
490,474,495,493,486
490,474,495,493,486
490,474,495,493,487
490,474,495,493,488
490,474,495,493,489
490,474,495,493,489
490,474,495,493,489
490,474,495,493,489
490,473,495,493,488
490,473,495,493,487
490,474,495,493,487
490,474,495,493,486
490,474,495,493,486
491,474,495,493,486
490,474,495,493,487
491,474,495,493,488
491,473,495,493,489
491,474,495,493,489
490,474,495,493,489
490,473,495,493,489
490,474,496,493,489
491,474,495,493,488
490,474,495,493,487
490,474,495,493,487
490,474,495,493,486
491,474,495,493,486
490,473,496,493,486
491,474,495,493,487
491,474,495,493,488
491,474,495,493,489
491,474,495,493,489
491,474,495,493,490
491,474,495,493,489
490,474,495,493,489
491,473,495,493,488
491,473,495,493,487
491,474,495,493,486
491,474,495,493,486
491,474,495,493,486
490,474,495,493,487
490,474,495,493,488
491,474,495,493,489
491,474,495,493,489
491,474,495,493,490
491,474,495,493,490
491,474,495,493,489
491,474,495,493,488
491,474,495,493,487
491,474,495,493,487
491,474,495,493,486
491,474,495,493,486
491,474,495,493,486
491,474,495,493,487
491,474,495,493,488
491,474,495,493,489
491,474,495,493,489
491,474,495,493,490
491,474,495,493,489
491,474,495,493,489
491,474,495,493,488
491,474,495,493,487
491,473,495,493,486
491,473,495,493,486
491,473,495,493,486
491,473,495,494,487
491,473,495,493,487
491,474,495,493,488
491,474,495,493,489
491,474,495,493,490
491,474,495,493,489
491,474,494,493,489
490,474,495,493,488
490,474,495,493,487
491,474,495,493,487
491,474,495,493,486
491,474,495,493,486
491,474,495,493,486
491,474,495,493,487
491,473,495,493,488
491,473,495,493,489
491,473,495,494,490
491,473,495,493,490
491,474,495,493,490
491,474,495,493,489
491,475,494,493,488
491,474,494,493,487
491,474,495,493,487
491,474,495,493,486
491,474,495,493,486
491,475,496,493,486
491,475,495,493,487
491,474,495,493,488
491,474,495,494,489
491,473,495,493,490
492,474,495,492,490
491,474,495,493,489
491,474,495,494,489
491,474,495,493,488
492,474,495,492,487
492,474,495,493,486
492,474,495,493,486
492,474,495,493,486
492,474,495,493,487
491,474,495,491,487
491,474,495,493,489
491,474,495,494,489
491,474,495,493,490
492,474,495,493,489
492,474,495,493,489
491,474,495,493,488
492,474,495,493,487
492,474,495,493,486
491,474,495,493,486
491,474,495,493,486
491,474,495,493,486
491,474,495,493,487
491,474,495,493,488
491,474,495,493,488
491,474,495,493,489
492,474,495,493,489
491,474,495,493,488
491,474,495,493,488
492,474,495,493,487
491,474,495,493,486
492,474,495,493,486
492,474,495,493,485
492,474,495,493,486
491,474,495,493,486
492,474,495,493,487
491,474,495,493,488
492,474,495,493,489
491,474,495,493,489
492,474,495,493,489
492,474,495,493,488
492,474,495,493,487
491,474,495,493,487
491,474,495,493,486
491,474,495,493,485
492,474,495,493,485
492,474,495,493,486
492,474,495,493,486
492,474,495,493,487
492,474,495,493,488
491,474,495,493,488
491,474,495,493,489
491,475,495,493,488
491,474,495,493,487
491,474,495,493,487
492,474,495,493,486
492,474,495,493,485
492,475,495,493,485
492,474,495,493,485
492,474,495,493,486
492,474,495,493,487
492,474,495,493,488
492,474,495,493,488
492,474,495,493,489
492,474,495,493,489
492,474,495,493,488
492,474,495,493,487
492,474,495,493,487
492,474,495,492,486
492,474,495,493,485
492,475,495,493,485
492,474,495,493,485
492,474,495,493,486
492,474,495,493,487
492,474,495,493,488
492,474,495,492,488
492,474,495,492,489
492,474,495,493,488
492,474,495,493,488
492,475,495,493,487
492,474,495,493,486
492,475,495,493,486
492,474,495,493,485
492,474,495,493,485
492,474,495,493,486
492,474,495,493,487
492,474,495,493,488
492,474,495,493,488
492,474,495,493,489
492,474,495,493,489
492,474,495,493,488
492,474,495,493,488
492,475,495,493,487
492,474,495,493,486
492,474,495,493,485
492,474,495,493,485
492,474,495,493,485
492,474,495,493,486
492,474,495,493,487
492,474,495,493,488
492,475,495,493,488
492,474,495,493,489
492,474,495,493,488
492,474,495,493,488
492,474,495,493,487
492,474,495,493,486
492,474,495,493,486
492,473,495,493,485
492,473,495,493,485
492,474,495,493,485
492,474,495,493,486
492,474,495,493,487
492,474,495,494,488
492,474,495,493,488
492,475,495,492,488
492,475,495,492,488
492,474,495,491,487
492,474,495,491,486
491,474,495,493,486
492,474,495,493,485
492,475,495,493,485
492,475,495,493,485
492,475,495,493,486
492,475,495,493,487
492,474,495,493,488
492,475,495,492,488
492,475,495,493,488
492,474,495,493,488
492,475,495,493,488
492,474,495,493,487
492,475,495,493,486
493,474,495,493,485
492,474,495,493,485
492,475,495,493,485
492,474,495,492,485
492,475,495,493,486
492,475,495,493,487
492,475,495,493,488
492,474,495,494,489
492,474,495,493,489
492,474,495,493,488
492,474,495,493,488
492,474,495,493,487
492,474,495,493,486
493,475,495,493,486
492,475,495,493,485
492,475,495,493,485
492,475,495,493,486
492,475,495,493,487
492,475,495,493,488
492,475,495,493,489
492,475,495,493,489
492,475,495,493,489
493,475,495,493,489
492,475,495,493,488
492,475,495,493,487
492,474,495,493,486
492,475,495,493,485
493,475,495,493,485
493,474,495,493,486
492,474,495,493,486
492,474,495,493,487
492,474,495,493,488
492,475,495,493,489
492,475,495,493,489
492,475,495,493,489
492,475,495,493,488
492,475,495,493,487
492,475,495,493,486
493,475,495,493,486
493,475,495,493,485
492,475,495,493,485
492,475,495,493,486
492,475,495,493,487
492,475,495,493,488
492,475,495,493,489
493,475,495,493,489
492,475,495,493,489
492,475,495,493,488
492,475,495,493,488
492,475,495,493,487
492,474,495,493,486
492,474,495,493,486
492,474,495,493,485
492,474,495,493,486
492,474,495,493,486
492,474,495,493,487
492,475,495,493,488
493,475,495,493,489
492,474,495,493,489
492,475,495,493,489
493,475,495,493,488
492,474,495,493,487
492,475,495,493,487
492,475,495,493,486
493,475,495,493,485
493,475,495,493,485
492,475,495,493,486
492,475,495,493,487
493,475,495,493,488
493,475,495,493,489
493,475,495,493,489
493,475,495,493,489
493,475,495,493,488
492,474,495,493,488
493,475,495,493,487
493,475,495,493,486
492,475,495,493,486
492,475,495,493,485
493,475,495,493,486
492,475,495,493,486
493,475,495,493,487
492,475,495,493,488
492,474,495,494,489
492,474,495,493,489
493,475,495,493,489
492,474,495,493,488
492,475,495,493,487
492,475,495,493,487
493,474,495,493,486
493,474,495,493,485
492,474,495,493,485
492,475,495,493,486
493,474,495,493,486
493,475,495,493,488
493,475,495,493,488
493,475,495,493,489
492,475,495,493,489
492,475,495,493,488
493,474,495,493,488
493,475,495,493,487
493,475,495,493,486
492,475,495,493,485
493,475,495,493,485
493,475,495,493,485
493,475,495,493,486
493,475,495,493,487
493,474,495,493,488
493,474,495,492,488
493,474,495,492,489
493,474,495,494,489
493,474,495,493,488
493,475,495,493,487
493,475,495,493,486
493,475,495,493,486
492,476,495,493,485
493,475,495,493,485
493,475,495,493,485
493,475,495,493,486
492,475,495,493,487
492,475,495,493,488
492,475,495,493,488
492,475,495,493,488
493,475,495,493,488
492,475,495,493,487
493,475,495,493,487
493,475,495,493,486
493,475,495,493,485
493,475,495,493,485
492,475,495,493,485
492,474,495,493,485
492,474,495,493,486
493,475,495,493,487
492,475,495,493,488
492,474,495,493,488
493,474,495,493,488
492,474,495,493,488
492,474,495,493,487
492,474,495,493,486
492,475,495,493,485
493,475,495,493,485
493,475,495,493,485
492,475,495,493,485
492,474,495,493,486
493,474,495,493,487
492,474,495,493,488
493,475,495,493,488
493,475,495,493,489
493,475,495,493,488
492,475,495,493,488
492,475,495,493,487
492,475,495,493,486
493,475,495,493,485
493,475,495,493,485
493,475,495,493,485
493,475,495,493,485
493,474,495,493,486
493,475,495,493,488
493,475,495,493,488
493,475,495,493,488
493,475,495,493,488
492,475,495,493,488
493,475,495,493,487
493,474,495,494,487
492,473,495,493,486
493,474,495,493,485
493,474,495,493,485
493,474,495,493,485
493,475,495,493,486
493,475,495,493,487
493,475,495,493,488
493,475,495,493,488
493,475,495,493,489
492,475,495,493,488
493,475,495,493,488
493,475,495,493,487
493,475,495,493,486
493,475,495,493,486
493,475,495,493,485
493,475,495,493,485
492,475,495,493,486
493,475,495,493,487
493,475,495,493,488
493,475,495,493,488
492,475,495,493,489
492,475,495,493,489
492,474,495,493,488
493,474,495,493,488
493,474,495,493,487
493,475,495,493,486
493,475,495,494,486
493,475,495,493,486
493,475,495,493,486
493,476,495,493,486
492,475,495,493,487
492,475,495,493,488
492,475,495,493,489
492,475,495,493,489
492,475,495,493,489
493,475,495,493,489
493,475,495,493,488
493,475,495,493,487
493,475,495,492,486
493,475,495,494,486
492,475,495,493,485
493,475,495,493,486
492,475,495,493,487
493,475,495,493,487
492,475,495,493,488
493,475,495,493,489
493,475,495,493,489
493,475,495,493,488
493,475,495,493,488
492,475,495,493,487
492,475,495,493,486
493,475,495,493,485
492,475,495,493,485
492,475,495,493,485
493,475,495,493,485
493,475,495,493,486
492,475,495,493,487
492,475,495,493,488
492,475,495,493,488
492,475,495,493,488
493,475,495,493,487
492,475,495,493,487
493,475,495,493,486
493,475,495,493,485
493,475,495,493,485
493,475,495,493,484
493,475,495,493,485
493,475,495,493,485
493,475,495,493,486
493,475,495,493,487
493,475,495,493,488
493,475,495,493,488
493,475,495,493,487
492,475,495,493,487
492,475,495,493,486
493,475,495,493,486
493,475,495,493,485
493,475,495,493,485
493,475,495,493,485
492,475,495,493,485
493,475,495,493,486
493,475,495,493,487
493,475,495,493,488
493,475,495,493,488
493,475,495,493,488
493,475,495,493,488
493,475,495,493,487
493,475,495,493,486
493,475,495,493,486
493,475,495,493,485
493,475,495,493,485
493,475,495,493,485
493,475,495,493,486
493,475,495,493,487
493,475,495,493,488
493,475,495,493,488
493,475,495,493,488
493,475,495,493,488
493,475,495,493,488
492,475,495,493,487
492,475,495,493,486
493,475,495,492,485
493,475,495,493,485
493,476,495,493,485
493,476,495,493,486
493,475,495,493,486
493,475,495,493,488
493,475,495,493,488
493,475,495,493,489
493,475,495,493,489
493,475,495,493,488
493,475,495,493,488
493,475,495,493,487
493,475,495,493,486
493,475,495,493,485
493,475,495,493,485
493,475,495,493,486
493,475,495,493,486
493,475,495,493,487
493,475,495,493,488
493,475,495,493,489
493,475,495,493,489
493,475,495,493,489
492,475,495,493,488
493,475,495,493,488
493,475,495,493,487
493,475,495,493,486
493,475,495,493,486
493,475,495,493,486
493,475,495,493,486
493,475,495,493,487
493,475,495,493,488
493,475,495,493,489
493,475,495,493,489
493,475,495,493,489
493,475,495,493,489
493,475,495,493,488
493,475,495,493,487
493,475,495,493,487
493,475,495,493,486
493,475,495,493,485
493,475,495,493,486
493,475,495,493,486
493,475,495,492,487
493,476,495,493,488
493,475,495,493,489
493,475,495,493,489
493,475,495,493,489
492,475,495,493,488
493,475,495,493,488
493,475,495,493,487
493,475,495,492,486
493,475,495,493,485
493,475,495,493,485
492,475,495,493,486
493,475,495,493,486
493,475,495,493,487
493,475,495,493,488
493,475,495,493,489
493,475,495,493,489
493,476,495,493,488
493,476,495,493,488
493,476,495,493,487
493,476,495,493,486
493,476,495,493,486
493,476,495,493,485
493,476,495,493,486
493,475,495,493,486
492,476,495,493,487
493,475,495,493,488
493,476,495,493,489
493,476,495,493,489
493,476,495,493,489
493,476,495,493,488
493,476,495,493,488
493,476,495,493,487
493,476,495,493,486
493,475,495,493,486
493,476,495,493,486
493,475,495,493,486
493,475,495,493,487
493,476,495,493,488
493,475,495,493,489
493,476,495,493,489
493,475,495,493,489
493,476,495,493,489
493,476,495,493,489
494,476,495,493,488
494,476,495,493,487
494,476,495,493,486
493,476,495,493,486
493,475,495,493,486
493,476,495,493,486
493,476,495,493,487
493,476,495,493,488
493,475,495,493,489
493,475,495,493,490
493,476,495,493,489
493,476,495,493,489
493,476,495,493,489
493,476,495,493,488
493,476,495,493,487
493,476,495,493,487
493,475,495,492,487
493,475,495,493,488
493,475,495,493,489
493,476,495,493,491
493,476,495,493,492
493,476,495,492,494
494,476,495,493,494
493,476,495,493,494
493,476,495,493,494
493,476,495,493,493
494,476,495,493,493
494,476,495,493,492
493,476,495,493,491
493,476,495,493,491
494,476,495,493,491
493,476,495,493,492
493,476,495,493,493
493,476,495,493,493
493,476,495,493,493
493,476,495,493,493
493,476,495,493,492
493,476,495,493,491
493,476,495,493,490
493,476,495,493,489
493,476,495,493,488
493,476,495,493,488
493,476,495,493,488
493,476,495,493,488
494,476,495,493,489
493,476,495,493,490
493,475,495,493,491
493,476,495,493,491
493,476,495,493,491
493,476,495,493,490
493,476,495,493,489
493,476,495,493,488
493,476,495,493,487
493,476,495,493,486
493,476,495,493,486
493,476,495,493,487
493,476,495,493,487
493,476,495,493,488
493,476,495,493,489
493,476,495,493,489
493,476,495,493,490
493,476,495,493,489
493,476,495,493,488
494,476,495,493,487
494,476,495,493,487
493,476,495,493,486
493,476,495,493,486
493,476,495,493,486
494,476,495,493,486
494,476,495,493,487
494,476,495,493,488
494,475,495,493,489
493,475,495,493,489
493,475,495,493,488
493,475,495,493,488
494,476,495,493,487
494,476,495,493,486
494,477,495,493,485
493,477,495,493,484
494,477,495,493,484
493,476,495,493,485
493,476,495,493,486
493,476,495,493,487
493,476,495,493,488
494,476,495,493,488
494,477,495,493,488
493,476,495,493,488
493,476,495,493,488
494,476,495,493,487
494,476,495,493,486
494,476,495,493,486
493,476,495,493,485
493,476,495,493,486
493,476,495,493,486
494,476,495,493,487
493,476,495,493,488
493,476,495,493,489
493,476,495,493,489
493,476,495,493,489
493,476,495,493,489
493,476,495,493,488
493,476,495,493,487
493,476,495,493,486
494,475,495,493,486
493,475,495,493,486
493,476,495,493,486
493,476,495,493,487
493,476,495,493,488
493,476,495,493,489
493,476,495,493,489
494,477,495,493,489
494,476,495,493,489
493,476,495,493,488
494,476,495,493,488
494,475,495,493,487
494,475,495,493,486
493,476,495,493,486
494,476,495,493,486
494,476,495,493,486
494,477,495,493,488
493,477,495,493,489
493,476,495,493,489
493,476,495,493,489
493,476,495,493,489
493,476,495,493,489
493,475,495,493,488
494,476,495,493,487
494,475,495,493,487
494,475,495,493,486
493,475,495,493,486
493,476,495,493,486
493,477,495,493,487
494,477,495,493,488
494,477,495,493,489
494,477,495,493,489
493,477,495,493,489
493,477,495,493,489
493,477,495,493,489
493,476,495,493,488
494,476,495,493,487
493,477,495,493,486
494,476,495,493,486
493,476,495,493,486
493,476,495,493,486
493,476,495,493,487
494,475,495,493,488
493,475,495,493,489
494,476,495,493,489
493,476,495,493,489
493,476,495,493,489
493,477,495,493,488
493,476,495,493,487
493,476,495,493,487
493,476,495,493,486
494,476,495,493,486
494,476,495,493,486
494,476,495,493,487
493,476,495,493,488
493,476,495,493,489
494,476,495,493,489
494,475,495,493,490
494,475,495,493,489
494,475,495,493,489
494,476,495,493,488
493,476,495,493,487
493,477,495,493,487
494,478,495,493,486
494,476,495,493,486
493,476,495,493,486
493,476,495,493,487
493,477,495,493,488
493,476,495,493,489
493,475,495,493,489
494,475,495,493,489
494,475,495,493,489
494,475,495,493,488
494,476,495,493,487
493,476,495,493,487
494,476,495,493,486
494,477,495,493,486
494,477,495,493,486
494,476,495,493,487
493,476,495,493,488
493,476,495,493,489
493,476,495,493,489
493,476,495,493,490
493,476,495,493,489
493,477,495,493,489
494,478,495,493,488
494,477,495,493,487
494,476,495,493,487
494,475,495,493,486
494,476,495,493,486
493,476,495,493,486
493,477,495,493,487
493,477,495,493,488
493,477,495,493,489
493,476,495,493,490
494,476,495,493,490
494,476,495,493,489
494,476,495,493,489
494,477,495,493,488
494,477,495,493,487
494,476,495,493,486
494,476,495,493,486
494,476,495,493,486
494,476,495,493,487
494,476,495,493,488
494,476,495,493,489
494,476,495,493,489
494,476,495,493,489
493,476,495,493,489
494,476,495,493,489
494,475,495,493,488
494,475,495,493,487
494,475,495,493,487
493,475,495,493,486
494,475,495,493,486
494,476,495,493,487
493,476,495,493,487
493,477,495,493,489
493,477,495,493,489
494,477,495,493,490
494,477,495,493,490
494,476,495,493,490
494,476,495,493,489
494,477,495,493,488
494,477,495,493,487
493,477,495,493,487
494,476,495,493,486
494,476,495,493,486
494,476,495,493,487
493,475,495,493,488
494,476,495,493,489
494,476,495,493,489
494,476,495,493,490
494,476,495,493,490
494,476,495,493,489
493,476,495,493,489
494,477,495,493,488
494,476,495,493,487
494,476,495,494,487
494,476,495,493,486
494,477,495,492,486
493,476,495,493,487
493,476,495,493,488
494,476,495,493,489
494,476,495,493,490
494,476,495,493,490
494,476,495,493,489
494,476,495,493,489
493,476,495,493,488
493,476,495,493,487
493,477,495,493,487
494,476,495,493,486
493,476,495,493,486
494,476,495,493,487
494,476,495,493,487
493,477,495,493,488
494,477,495,493,489
494,476,495,493,490
494,476,495,493,489
