Sensor0,Sensor1,Sensor2,Sensor3,Sensor4

475,496,493,490,495
474,496,493,489,495
475,496,493,488,495
475,496,493,488,494
475,496,493,488,494
475,496,493,489,494
475,496,494,490,494
475,496,493,490,494
475,496,493,490,495
475,496,493,490,495
475,496,493,490,495
475,496,493,489,494
475,496,493,488,495
475,496,493,488,495
475,496,493,487,494
475,496,494,487,495
475,496,493,487,495
475,496,493,488,495
475,496,493,489,494
475,496,493,489,495
475,496,493,490,495
475,496,493,490,495
475,496,493,490,495
475,496,493,490,494
475,496,493,489,494
475,496,493,488,494
475,496,493,487,495
475,496,493,487,495
475,496,494,487,495
475,496,492,487,495
475,496,493,488,494
475,496,494,489,494
475,496,493,489,494
475,496,493,490,494
475,496,493,490,495
475,496,493,489,495
475,496,493,488,495
475,496,493,487,495
475,496,493,486,495
475,496,493,486,495
475,496,494,485,495
475,496,493,485,495
475,496,493,486,495
475,496,493,487,494
475,496,493,488,495
475,496,493,488,494
475,496,493,488,494
475,496,493,488,494
475,496,493,487,495
475,496,493,487,495
475,496,493,486,494
475,496,493,485,495
475,496,493,485,495
475,496,493,484,495
475,496,493,485,494
475,496,493,485,494
475,496,493,486,495
475,496,493,487,495
475,496,493,487,494
475,496,493,488,495
475,496,493,487,494
475,496,493,487,494
475,496,492,486,495
475,496,491,485,495
475,496,491,484,495
475,496,494,484,494
475,496,493,484,494
475,496,494,485,495
475,496,494,486,494
475,496,493,487,495
475,496,493,488,495
475,496,493,488,495
475,496,493,488,494
475,496,493,488,495
475,496,493,487,495
475,496,493,486,495
475,496,493,486,495
475,496,493,485,495
475,496,493,485,494
475,496,493,485,494
475,496,493,486,494
475,496,493,487,495
475,496,493,488,495
475,496,493,489,494
475,496,493,489,495
475,496,493,489,495
475,496,493,488,494
475,496,493,488,495
475,496,493,487,495
475,496,493,487,495
475,496,493,486,495
475,496,493,487,494
475,496,493,487,495
475,496,493,488,495
475,496,493,489,494
475,496,493,490,494
476,496,493,491,495
475,496,493,491,494
475,496,493,491,495
475,496,493,490,495
475,496,493,490,495
475,496,493,489,495
475,496,493,489,494
475,496,493,489,494
475,496,493,490,495
475,496,493,490,495
475,496,493,492,494
475,496,493,493,495
475,496,493,493,494
475,496,493,494,495
475,496,492,493,495
475,496,493,492,495
475,496,492,490,495
475,496,492,489,495
475,496,493,488,494
475,496,494,488,494
475,496,493,488,494
475,496,493,488,495
475,496,493,489,495
475,496,493,490,494
475,496,493,490,495
475,496,493,490,495
475,496,493,491,495
475,496,493,490,495
475,496,493,489,495
475,496,493,489,494
475,496,494,488,495
475,496,494,488,495
475,496,493,487,495
475,496,493,487,495
475,496,493,488,495
475,496,493,489,495
475,496,493,490,495
475,496,493,490,495
475,496,492,490,495
475,496,493,490,495
475,496,493,489,495
475,496,493,488,495
475,496,493,488,495
475,496,493,487,495
475,496,493,486,494
475,496,493,486,494
475,496,493,486,494
475,496,493,487,494
475,496,493,488,495
475,496,493,489,495
475,496,493,489,495
475,496,493,489,494
475,496,493,489,494
475,496,493,488,495
475,496,493,487,494
475,496,493,487,494
475,496,494,486,494
475,496,493,486,495
475,496,493,486,495
475,496,493,486,494
475,496,493,487,495
475,496,493,488,495
475,496,493,489,495
475,496,493,489,495
475,496,493,489,495
475,496,493,488,495
475,496,493,487,494
475,496,493,486,494
475,496,492,486,494
475,496,493,485,495
475,496,493,485,495
475,496,493,485,495
475,496,493,486,494
475,496,494,487,494
475,496,493,488,495
475,496,493,488,494
475,496,493,488,495
475,496,492,488,495
475,496,493,487,494
475,496,493,487,495
475,496,493,486,495
475,496,493,485,494
475,496,493,485,495
475,496,493,485,495
475,496,493,485,494
475,496,493,486,495
475,496,493,487,494
475,496,493,488,495
475,496,493,488,495
475,496,493,488,495
475,496,493,488,494
475,496,493,487,495
475,496,493,487,494
475,496,493,486,495
475,496,493,485,495
475,496,493,485,495
475,496,493,486,495
475,496,493,487,494
475,496,493,488,495
475,496,494,489,494
475,496,493,490,495
475,496,493,490,494
475,496,493,490,495
475,496,493,489,495
475,496,493,489,495
475,496,493,488,494
475,496,493,488,495
475,496,493,487,495
475,496,493,488,494
475,496,493,488,495
475,496,493,489,495
475,496,493,490,495
475,496,493,491,495
475,496,493,492,494
475,496,493,492,495
475,496,493,492,495
475,496,493,491,494
475,496,493,490,494
475,496,493,489,495
475,496,491,488,495
475,496,493,488,495
475,496,494,488,495
475,496,493,488,495
475,496,493,489,495
475,496,493,489,495
475,496,493,489,495
475,496,493,489,495
475,496,493,489,495
475,496,493,489,495
475,496,493,488,494
475,496,493,487,495
475,496,493,486,495
475,496,493,485,495
475,496,493,485,495
475,496,493,486,495
475,496,493,486,495
475,496,493,487,495
475,496,493,488,495
475,496,493,488,495
475,496,493,488,495
475,496,494,488,495
475,496,493,487,495
475,496,493,486,495
475,496,492,485,495
475,496,492,484,495
475,496,492,484,495
475,496,493,484,495
475,496,494,485,495
475,496,493,486,495
475,496,494,487,495
475,496,493,487,495
475,496,493,488,495
475,496,493,487,495
475,496,493,487,495
475,496,493,486,495
475,496,493,485,495
475,496,493,485,495
475,496,493,484,495
475,496,493,484,495
475,496,493,485,495
475,496,493,485,494
475,496,493,486,494
475,496,493,487,495
475,496,493,488,495
475,496,493,488,495
475,496,493,487,495
475,496,493,487,495
475,496,493,486,494
475,496,493,485,495
475,496,493,485,495
475,496,493,484,494
475,496,493,485,495
475,496,493,485,495
475,496,493,486,495
475,496,493,487,494
475,496,493,488,495
475,496,493,488,495
475,496,493,488,495
475,496,493,488,495
475,496,493,487,495
475,496,493,487,495
475,496,493,486,494
475,496,494,486,495
475,496,493,486,495
475,496,493,486,495
475,496,493,487,495
475,496,493,488,495
475,496,493,489,495
475,496,493,489,496
475,496,493,490,496
475,496,493,489,496
475,496,493,489,495
475,496,493,488,495
475,496,492,487,495
475,496,493,487,494
475,496,493,486,494
475,496,493,487,495
475,496,493,487,495
475,496,495,489,494
475,496,493,489,495
475,496,493,490,495
475,496,493,490,495
475,496,493,490,494
475,496,493,490,494
475,496,493,489,494
475,496,493,488,494
475,496,493,488,494
475,496,493,487,495
475,496,492,487,495
475,496,492,487,495
475,496,492,487,495
475,496,492,488,495
475,496,493,489,495
475,496,493,490,495
475,496,494,490,495
475,496,493,490,495
475,496,493,489,495
475,496,493,488,495
475,496,493,487,495
475,496,492,487,495
475,496,491,486,495
475,496,494,486,495
475,496,493,487,495
475,496,493,488,495
475,496,493,489,494
475,496,493,489,495
475,496,493,490,495
475,496,493,490,495
475,496,493,489,494
475,496,493,488,495
475,496,493,488,495
475,496,493,487,495
475,496,493,486,494
475,496,494,486,495
475,496,493,487,495
475,496,493,487,495
475,496,493,488,494
475,496,493,489,494
475,496,493,489,495
475,496,493,489,495
475,496,493,489,495
475,496,493,489,495
475,496,493,488,494
475,496,493,487,495
475,496,493,487,495
475,496,493,486,495
475,496,493,486,495
475,496,493,487,495
475,496,493,488,495
475,496,493,489,494
475,496,493,489,495
475,496,493,490,495
475,496,493,490,495
475,496,493,489,495
475,496,493,489,495
475,496,493,488,495
475,496,493,487,495
475,496,493,487,494
475,496,493,486,495
475,496,493,487,495
475,496,493,487,495
475,496,493,488,495
475,496,493,489,495
475,496,493,490,495
475,496,493,490,495
475,496,493,490,495
475,496,493,489,495
475,496,494,489,495
475,496,493,488,495
475,496,493,487,495
475,496,493,487,494
475,496,493,486,495
475,496,493,487,494
475,496,493,488,495
475,496,493,489,495
475,496,493,489,495
475,496,493,490,495
475,496,493,490,495
475,496,493,489,495
475,496,493,489,494
475,496,493,488,495
475,496,493,487,494
475,496,493,487,495
475,496,493,486,495
475,496,493,487,494
475,496,494,487,495
475,496,493,488,495
475,496,493,489,494
475,496,494,490,494
475,496,492,490,495
475,496,493,490,495
475,496,493,489,495
475,496,493,488,495
475,496,493,488,495
475,496,493,487,495
475,496,493,486,495
475,496,493,486,495
475,496,493,487,495
475,496,493,487,495
475,496,493,488,495
475,496,493,489,495
475,496,493,490,495
475,496,493,490,495
475,496,493,489,495
475,496,493,489,495
475,496,493,488,495
475,496,493,487,495
475,496,493,487,495
475,496,493,486,495
475,496,493,486,495
475,496,493,486,495
475,496,493,488,495
475,496,493,488,495
475,496,493,489,495
475,496,493,490,494
475,496,493,489,495
475,496,492,489,495
475,496,493,488,495
475,496,493,487,495
475,496,491,486,495
475,496,494,486,495
475,496,494,486,494
475,496,493,486,495
475,496,493,487,495
475,496,493,488,495
475,496,492,488,495
475,496,492,489,495
475,496,493,489,495
475,496,493,489,495
475,496,494,489,495
475,496,494,488,495
475,496,493,487,495
475,496,493,487,495
475,496,493,486,495
475,496,493,486,495
475,496,493,487,495
475,496,493,487,495
475,496,493,488,495
475,496,493,489,494
475,496,493,489,495
475,496,493,489,495
475,496,493,489,495
475,496,493,488,495
475,496,493,488,495
475,496,493,487,495
475,496,493,486,495
475,496,493,486,495
475,496,493,487,494
475,496,493,487,495
475,496,493,488,495
475,496,493,489,495
475,496,493,490,495
475,496,493,490,495
475,496,493,490,495
475,496,493,489,495
475,496,493,489,495
475,496,493,488,495
475,496,493,487,495
475,496,493,487,494
475,496,493,487,495
475,496,494,487,495
475,496,493,488,495
475,496,493,489,495
475,496,493,490,495
475,496,493,490,495
475,496,493,490,495
475,496,493,490,495
475,496,493,489,495
475,496,493,488,495
475,496,493,488,494
475,496,493,487,495
475,496,494,487,495
475,496,492,487,496
475,496,493,487,495
475,496,493,488,495
475,496,493,489,495
475,496,493,490,495
475,496,493,490,495
475,496,493,490,494
475,496,493,490,495
475,496,493,489,495
475,496,493,488,495
475,496,493,488,495
475,496,493,487,495
475,496,492,487,495
475,496,493,487,495
475,496,493,488,496
475,496,493,489,495
475,496,493,490,495
475,496,493,490,495
475,496,493,490,495
474,496,493,490,495
474,496,493,489,495
475,496,493,488,495
475,496,493,488,494
475,496,493,487,494
476,496,493,486,495
475,496,493,487,495
475,496,493,487,496
475,496,493,488,496
475,496,493,489,495
475,496,493,489,495
475,496,493,490,495
475,496,493,490,495
476,496,493,489,495
476,496,493,488,495
475,496,491,487,495
476,496,493,487,495
475,496,494,486,495
475,496,493,486,495
475,496,493,486,495
475,496,493,487,495
475,496,493,488,495
475,496,493,489,495
475,496,493,489,495
475,496,493,489,494
475,496,493,489,495
475,496,493,488,495
475,496,493,487,495
475,496,493,487,495
475,496,493,486,495
475,496,493,486,495
475,496,493,486,495
475,496,493,486,495
475,496,493,487,495
475,496,493,488,495
475,496,493,489,495
475,496,493,489,495
475,496,493,489,495
475,496,493,489,495
475,496,493,488,495
475,496,493,488,495
475,496,493,487,495
475,496,493,486,495
475,496,493,486,495
475,496,493,486,494
475,496,493,487,495
475,496,493,488,496
476,496,493,489,495
475,496,493,489,495
475,496,493,489,495
475,496,493,489,495
475,496,493,489,495
475,496,493,488,495
475,496,493,487,495
475,496,493,487,495
475,496,493,487,495
475,496,492,486,495
475,496,493,487,495
475,496,492,488,495
475,496,493,489,495
475,496,493,490,495
475,496,494,490,495
475,496,493,490,495
475,496,493,490,495
475,496,493,489,495
475,496,494,488,495
475,496,495,488,494
475,496,493,487,495
475,496,493,486,495
475,496,493,487,495
475,496,493,487,495
475,496,493,488,495
475,496,493,489,495
475,496,493,490,495
475,496,493,490,494
475,496,493,490,495
475,496,493,489,495
475,496,493,488,495
475,496,493,488,495
475,496,493,487,495
475,496,493,486,495
475,496,494,486,495
475,496,494,487,495
475,496,493,487,495
475,496,493,488,495
475,496,493,489,495
475,496,493,489,495
476,496,493,490,494
475,496,493,489,495
475,496,493,488,494
475,496,493,488,494
475,496,493,487,495
475,496,493,486,495
475,496,493,486,495
475,496,493,486,495
475,498,493,487,494
475,499,493,488,495
475,500,493,489,495
475,499,493,489,495
475,496,493,490,495
476,493,493,490,495
475,494,493,489,495
475,495,494,489,495
475,496,493,488,495
475,496,493,487,495
475,496,493,487,495
475,496,493,486,495
475,496,493,487,495
475,496,493,488,495
475,496,493,488,495
475,496,493,489,495
475,496,493,490,495
475,496,493,490,495
475,496,493,490,495
475,496,493,489,495
475,496,492,488,495
475,496,490,487,495
475,497,495,487,495
475,498,493,486,495
475,498,493,487,495
475,498,493,487,495
475,497,493,488,495
475,494,493,489,495
475,494,493,490,495
475,496,493,490,495
475,496,493,490,495
475,496,493,490,495
475,496,493,489,495
475,496,493,488,495
475,496,493,487,495
475,496,493,487,495
475,496,493,487,495
475,496,493,487,495
475,496,493,488,495
475,496,493,489,495
475,496,493,490,495
475,496,493,490,495
475,496,493,490,495
475,496,493,490,495
475,496,493,490,495
475,496,493,489,495
475,496,493,488,495
475,496,493,487,495
475,496,493,487,495
475,496,493,487,495
475,496,493,487,495
475,496,493,488,495
475,496,493,489,495
475,496,493,490,495
475,496,493,490,495
475,496,494,490,495
475,496,494,490,495
475,496,494,490,495
475,496,493,488,495
475,496,493,488,495
474,496,493,487,495
475,495,493,487,495
475,495,493,487,495
476,496,493,487,495
476,496,493,488,494
476,496,493,489,495
475,496,493,490,495
475,496,493,490,495
475,496,492,489,495
475,496,493,489,495
475,496,493,488,495
475,496,493,487,495
475,496,493,487,495
475,496,493,486,495
475,496,493,486,495
476,496,493,487,495
475,496,493,488,495
475,496,493,488,495
475,496,493,489,495
475,496,493,490,495
475,496,493,490,495
475,496,493,489,495
475,496,493,489,495
475,496,493,488,495
475,496,493,487,495
476,496,493,486,495
475,496,493,486,495
475,496,493,486,495
475,496,493,487,495
475,496,493,488,495
475,496,493,489,495
475,496,493,489,495
475,496,494,490,494
475,496,493,490,495
475,496,493,489,495
476,496,493,488,495
475,496,493,487,495
476,496,493,487,495
475,496,493,486,495
475,496,493,486,495
476,496,493,486,495
475,496,491,486,495
475,496,494,488,495
475,496,494,489,495
475,496,493,489,495
475,496,493,489,495
475,496,493,489,495
475,496,493,488,495
475,496,493,488,494
475,496,493,487,495
475,496,493,486,495
475,496,493,486,495
475,496,493,486,495
475,496,493,486,495
475,496,493,487,495
475,496,493,488,495
475,496,493,489,494
475,496,494,489,494
475,496,494,489,494
475,496,493,489,495
475,496,492,488,495
475,496,494,487,494
475,496,494,487,494
475,498,493,486,495
475,499,493,486,496
476,499,493,487,494
475,499,494,487,495
475,497,492,488,495
475,493,493,489,495
475,493,493,489,495
475,495,492,490,495
476,495,493,489,495
475,495,493,489,495
475,495,494,488,495
475,495,493,488,495
475,495,493,487,495
475,495,493,487,495
475,496,493,487,495
475,496,493,487,495
475,496,493,488,495
475,496,493,489,495
475,496,493,490,495
475,496,493,490,495
476,496,493,490,495
475,496,493,490,495
475,496,494,489,495
475,496,493,488,495
475,496,493,487,495
475,496,493,487,495
475,496,493,487,495
475,496,493,487,495
475,496,493,487,495
475,496,493,488,495
476,496,493,489,495
475,496,493,490,495
475,496,493,490,495
475,496,493,490,495
475,496,493,489,495
475,496,493,488,495
475,496,493,488,495
475,496,493,487,495
475,496,493,486,495
475,496,493,486,495
476,496,493,487,495
476,496,493,488,495
475,496,493,489,495
475,496,493,489,495
475,496,493,490,495
476,496,494,490,495
476,496,493,489,495
476,496,493,489,495
475,496,493,488,495
476,496,493,487,495
476,496,493,487,495
475,496,493,486,495
475,496,493,487,495
475,496,493,487,495
475,496,493,488,495
475,496,493,489,495
476,496,493,490,495
475,496,493,490,495
475,496,493,490,495
475,496,492,489,495
475,495,492,488,495
476,496,493,488,496
476,496,491,487,496
476,496,493,487,496
476,495,493,486,495
476,496,493,487,494
476,496,492,488,494
476,496,493,488,495
476,496,493,489,494
476,496,494,490,495
476,496,493,490,495
475,496,493,489,495
476,496,493,489,495
476,496,493,488,495
476,495,493,487,495
476,495,493,487,495
476,496,493,486,495
476,496,493,486,495
476,496,493,487,495
476,496,493,488,494
475,496,493,489,494
476,496,493,489,495
476,496,493,489,495
476,496,493,489,495
476,496,493,489,495
476,496,493,488,494
476,496,493,487,495
476,496,493,486,495
476,496,493,486,495
476,496,493,486,495
476,496,493,486,495
476,496,493,487,495
476,496,493,488,495
476,496,493,489,495
476,496,493,489,495
476,496,493,489,494
476,496,493,489,495
475,496,493,488,494
475,496,493,488,495
475,496,493,487,495
475,496,493,486,494
476,496,493,486,494
476,495,493,486,494
476,496,493,486,495
475,496,493,487,494
476,496,493,489,494
475,496,493,489,495
475,496,494,490,495
476,496,493,489,495
475,498,493,489,495
475,499,492,488,495
476,499,492,487,495
476,499,493,487,494
476,498,492,486,495
476,493,493,485,495
476,492,493,486,495
477,494,493,487,495
476,495,493,488,495
476,495,493,489,495
476,495,493,489,495
476,495,493,489,495
476,496,493,489,495
476,496,493,489,495
476,496,493,488,495
476,496,493,487,495
476,496,493,487,495
476,497,493,486,495
476,497,493,486,495
476,497,493,487,495
476,496,493,488,495
476,493,493,489,495
476,494,493,489,495
476,495,493,490,495
476,495,493,490,495
476,495,493,489,495
476,495,493,489,495
476,496,493,488,494
476,496,493,487,494
476,496,493,486,495
476,496,493,486,494
476,496,493,487,495
476,496,493,487,494
476,495,493,488,494
476,496,493,489,495
476,496,493,490,494
476,496,493,490,495
476,496,493,490,495
476,496,493,489,495
476,496,493,488,494
476,496,493,488,495
476,496,493,487,495
476,496,493,486,495
476,496,493,487,495
476,496,493,487,495
476,496,493,488,495
476,496,493,489,495
476,496,491,489,495
476,496,491,490,495
476,496,494,490,495
476,496,493,489,495
476,496,493,489,494
476,496,493,488,494
476,495,493,487,495
476,496,493,487,495
476,496,493,487,494
476,495,494,487,494
476,496,494,488,495
476,495,493,489,495
476,496,493,490,494
476,496,493,490,494
475,496,493,490,495
476,496,493,490,495
476,496,493,490,495
476,496,492,489,495
476,496,492,488,495
476,496,493,487,495
476,496,494,487,495
476,496,493,487,495
476,496,493,487,495
476,496,493,488,495
476,496,493,488,494
476,496,493,489,495
476,496,492,490,495
476,495,493,489,495
476,494,493,489,495
476,494,493,489,495
476,494,493,488,495
476,495,493,487,494
476,496,493,486,495
476,497,493,486,495
476,496,493,486,494
476,496,493,487,495
476,496,493,487,494
476,496,493,488,494
476,496,493,489,494
476,496,493,489,494
476,496,493,489,494
476,495,493,488,494
476,496,493,488,494
476,495,493,487,494
476,496,493,486,494
476,496,493,485,495
476,496,493,486,494
476,496,493,486,495
476,496,493,487,494
476,496,493,488,494
476,496,493,489,494
476,495,493,489,494
476,496,493,489,494
476,496,493,489,494
476,496,493,488,494
476,496,493,488,494
476,495,493,487,494
476,496,493,486,495
476,495,493,486,495
476,496,493,486,495
476,496,493,486,495
476,495,493,487,495
476,495,493,489,495
476,495,493,489,495
476,496,493,490,494
476,496,493,490,495
476,496,493,489,494
476,496,493,488,495
476,495,493,488,494
476,496,492,487,494
476,498,492,486,494
476,499,494,486,495
476,500,493,487,495
476,500,493,487,494
476,498,493,488,495
476,493,494,489,495
476,493,494,490,495
476,495,493,490,495
476,495,493,490,494
476,496,493,489,494
476,496,493,488,495
476,496,493,488,494
476,496,493,487,495
476,495,493,486,495
476,496,493,487,495
476,496,493,487,495
476,496,492,488,495
476,496,493,489,495
476,496,493,489,495
476,496,493,490,494
476,496,493,490,495
476,496,493,489,495
476,496,493,488,495
476,496,493,488,495
476,496,493,487,495
476,496,493,486,495
476,496,493,486,494
476,495,493,486,495
476,496,493,486,494
476,496,493,488,494
476,496,493,488,495
476,496,493,489,495
476,496,493,489,495
476,496,493,489,495
476,496,494,489,494
476,496,493,488,495
476,496,492,487,495
476,496,493,486,495
476,496,493,486,495
476,496,493,486,495
476,496,493,486,494
476,496,494,488,494
476,496,493,488,495
477,496,493,489,495
476,496,493,490,495
476,496,493,490,495
476,496,494,489,495
476,496,493,489,495
476,496,493,488,495
476,496,493,487,495
476,496,493,487,495
476,496,493,486,495
476,496,494,486,494
476,496,493,487,494
476,496,493,488,495
476,496,493,489,495
477,496,493,490,495
476,496,493,490,495
476,496,493,490,495
476,496,493,489,495
476,496,493,489,495
476,496,493,488,494
476,496,494,488,494
476,496,494,487,495
476,496,493,487,494
476,496,493,487,494
476,496,493,488,495
476,496,493,489,494
476,496,493,490,494
476,496,493,490,494
476,496,493,490,494
476,496,493,490,495
476,496,493,489,494
476,496,493,488,494
476,496,493,488,495
476,496,493,487,494
476,496,493,487,494
476,496,493,487,495
476,496,493,487,495
476,496,493,488,495
476,496,493,489,495
476,496,492,490,495
477,496,491,490,495
477,496,494,490,494
476,495,493,489,494
476,496,493,489,494
476,496,494,488,495
476,496,493,487,495
476,496,493,487,494
476,496,493,487,495
476,496,493,487,495
476,496,493,488,495
476,496,493,489,494
476,496,493,489,495
476,496,493,490,494
476,496,493,490,494
476,495,493,489,494
476,496,493,489,494
476,496,493,488,495
476,496,493,487,494
476,496,495,487,494
476,496,493,486,495
476,496,493,486,494
476,496,493,487,494
476,496,493,488,494
476,496,493,489,495
476,496,493,489,494
476,496,493,489,495
476,496,493,489,494
476,496,493,489,495
476,496,492,488,495
477,496,493,487,495
476,496,493,487,495
476,496,493,486,495
476,496,493,486,494
476,496,494,486,494
476,496,493,487,494
476,496,493,488,494
476,496,493,489,495
476,496,493,489,495
476,496,493,489,495
476,496,493,489,495
476,495,493,489,495
477,496,493,488,494
476,496,493,487,495
476,496,493,486,495
476,496,492,486,495
476,496,493,486,495
476,496,493,486,495
476,496,493,487,494
476,496,493,488,495
476,496,494,489,494
476,496,494,490,495
476,496,493,489,494
476,496,493,489,494
476,496,493,488,494
476,496,493,488,494
476,496,493,487,495
476,496,493,486,494
476,496,493,486,494
476,496,493,486,494
476,496,493,487,494
476,496,493,488,495
476,496,493,489,495
476,496,493,489,495
476,496,493,489,494
476,496,493,489,494
476,497,493,489,494
476,499,493,488,494
476,499,493,488,494
476,499,493,487,495
476,499,493,486,494
476,496,493,486,495
477,492,493,486,495
477,494,493,487,495
476,495,493,488,495
477,496,493,489,495
476,496,493,490,495
476,496,493,490,495
477,496,493,489,495
477,496,492,488,495
476,496,494,488,495
477,496,494,487,495
476,496,493,487,495
477,496,493,486,495
477,496,493,487,494
477,496,493,487,495
477,496,493,488,495
477,496,493,489,494
476,496,493,490,494
476,496,493,490,495
477,496,493,490,495
477,496,493,489,495
477,496,493,489,494
476,496,493,488,494
476,497,493,487,494
476,497,493,487,495
476,498,493,486,495
477,498,493,487,494
476,496,493,487,495
477,494,493,488,495
477,495,493,489,495
476,495,493,490,495
476,496,493,490,494
477,496,493,489,494
476,496,493,489,495
476,496,493,488,495
477,496,493,488,495
477,496,494,487,495
477,496,493,486,495
477,496,493,487,495
477,496,494,487,495
477,496,493,488,495
477,496,493,489,495
477,496,495,490,494
477,497,493,490,495
477,499,493,490,495
476,499,493,490,495
477,499,493,489,495
477,498,493,488,495
477,493,493,487,495
477,492,493,487,495
477,494,493,487,495
477,495,493,487,495
477,494,493,487,495
477,494,493,489,494
477,494,493,489,494
477,494,493,490,494
477,495,493,490,495
477,496,493,490,495
477,497,493,489,495
476,497,493,489,494
476,496,493,488,494
477,496,493,487,494
477,496,493,487,495
477,496,493,487,495
477,495,493,487,495
477,495,493,488,495
477,495,493,489,495
477,495,494,490,495
477,495,493,490,494
477,496,493,490,495
477,496,493,490,495
477,496,493,489,495
477,495,493,488,495
476,496,493,487,495
476,496,491,486,495
477,497,494,486,495
477,496,494,487,494
477,496,493,487,494
477,496,493,488,494
477,496,494,489,494
477,497,493,489,495
476,497,493,490,494
476,497,493,489,494
477,497,493,489,494
477,495,493,488,495
477,494,492,487,495
477,496,493,486,495
477,496,493,486,495
476,496,493,486,495
476,495,493,486,494
477,494,493,487,495
476,494,493,488,494
477,494,493,489,495
476,495,493,489,495
476,497,492,489,495
476,499,492,489,494
477,500,493,488,494
477,500,492,487,494
477,500,493,486,494
476,499,493,486,494
477,496,493,485,495
477,492,494,486,495
477,494,493,486,495
477,495,493,487,494
477,496,493,488,495
477,495,494,489,495
477,496,493,489,495
477,496,493,489,495
477,496,493,488,495
477,496,493,488,494
477,496,494,487,494
476,496,493,487,495
476,496,493,486,495
476,495,493,486,495
477,495,493,486,495
476,495,493,487,494
476,496,494,488,494
477,497,493,489,495
477,496,493,490,495
477,496,493,490,495
477,496,493,489,495
477,496,493,489,495
476,496,493,488,494
476,496,493,487,495
476,496,493,487,494
476,496,493,487,495
477,496,493,487,494
477,496,493,487,495
476,496,493,488,495
475,496,493,489,495
475,496,493,490,495
475,496,493,490,495
476,496,491,490,494
476,497,493,490,494
477,496,494,489,494
478,496,493,488,495
477,497,492,487,494
476,498,493,487,495
476,498,493,487,495
477,498,493,487,494
477,497,493,488,494
476,493,493,489,495
476,494,493,490,495
475,495,493,490,495
475,496,493,490,495
476,496,493,490,494
476,496,493,490,495
476,496,493,489,495
476,496,493,488,495
476,496,493,487,494
476,496,493,487,495
476,496,493,487,495
476,498,493,488,495
477,499,493,489,495
477,499,493,490,495
476,499,493,490,495
476,497,492,490,495
476,492,492,490,495
477,494,493,490,495
476,495,493,489,495
477,496,493,488,495
477,496,494,488,494
476,495,493,487,495
476,494,493,487,494
477,494,494,488,495
477,494,493,488,495
477,494,493,489,495
477,496,493,490,495
476,497,493,490,495
476,497,493,491,495
476,496,494,490,494
476,496,493,490,495
476,496,493,489,494
476,496,493,488,494
476,496,493,488,494
476,496,493,487,494
476,496,493,487,494
476,496,493,487,494
476,496,493,488,494
476,496,493,489,495
476,496,493,490,494
476,496,493,490,495
476,496,493,490,494
477,496,493,490,494
477,496,493,489,494
476,496,493,488,495
476,496,493,487,494
476,496,493,487,495
476,496,493,486,494
476,496,493,487,494
476,496,493,487,494
476,496,493,488,494
476,496,493,489,494
476,496,493,489,494
476,496,493,489,494
476,495,493,489,495
476,496,493,489,495
477,496,492,487,494
477,496,494,487,495
476,496,493,486,494
476,496,493,486,495
476,496,493,486,494
476,496,493,486,495
476,496,493,487,495
476,496,493,488,495
475,496,493,489,495
475,496,493,489,495
475,496,493,489,495
474,496,493,489,495
475,496,493,488,494
476,496,493,488,494
476,496,493,487,494
476,496,493,486,495
476,496,493,486,495
476,496,493,486,495
477,496,493,487,495
477,496,493,487,495
478,496,493,489,494
478,496,493,489,495
477,496,493,489,495
476,495,493,489,494
476,496,493,489,495
476,496,493,488,494
476,496,493,487,495
476,496,493,486,495
476,495,493,486,495
476,496,493,486,495
476,496,493,486,495
476,496,493,487,495
476,496,494,488,495
476,496,493,489,494
476,496,493,489,495
476,496,494,490,495
476,496,493,489,495
476,496,493,489,494
477,496,493,488,494
476,495,493,487,495
476,496,493,487,495
476,496,493,486,495
476,496,493,486,494
476,500,494,487,495
475,502,493,488,495
475,502,493,489,495
475,501,493,490,495
476,498,494,490,495
476,489,493,489,495
477,492,493,489,495
478,494,493,489,495
477,495,493,488,495
476,495,493,487,495
476,495,493,487,495
476,496,493,487,495
476,496,493,487,495
476,496,493,488,495
476,496,493,489,495
476,496,493,490,495
476,496,493,490,495
476,496,493,490,495
476,496,493,490,495
476,496,493,489,495
476,496,493,489,495
475,496,493,488,495
475,496,493,487,495
476,496,493,487,495
476,496,493,487,495
476,496,493,487,495
476,496,493,488,494
476,496,494,490,494
476,496,493,490,495
477,496,492,490,495
477,496,492,490,494
476,496,492,489,495
476,496,493,489,494
476,496,493,488,495
476,496,494,488,495
476,496,493,487,495
476,496,493,487,495
475,496,493,487,495
475,496,493,488,495
475,496,493,489,495
475,496,494,490,495
476,496,493,490,494
476,496,493,490,494
477,496,493,490,495
477,496,491,489,495
477,496,493,489,494
476,496,494,488,494
476,496,493,487,495
476,496,493,487,495
476,496,493,487,495
475,496,494,487,495
475,496,494,488,496
475,495,493,489,495
475,496,493,489,495
475,497,493,490,494
477,496,493,490,494
478,496,493,489,495
477,496,493,489,494
477,496,493,488,494
476,496,493,487,495
476,496,493,486,494
476,496,493,486,494
476,496,493,486,495
476,496,493,487,494
476,496,493,488,494
476,496,493,489,495
476,496,493,489,495
476,496,493,489,494
476,496,493,489,494
476,496,493,489,494
476,496,493,488,495
476,496,493,487,495
476,496,493,487,495
476,496,493,486,495
476,496,493,486,495
476,496,493,487,494
476,496,493,488,494
476,496,493,489,494
476,496,493,489,495
476,496,493,490,494
476,497,493,490,494
476,499,493,490,495
476,499,493,489,495
476,499,493,489,495
476,499,494,488,495
476,495,493,487,495
476,492,493,487,495
475,494,493,487,495
476,495,494,488,495
476,496,493,489,495
476,496,493,490,495
476,496,493,490,495
476,496,493,491,495
476,496,493,491,495
476,496,493,490,495
475,496,493,490,495
475,496,493,489,495
476,496,493,489,495
476,496,493,488,494
475,496,494,488,495
475,496,493,488,495
475,496,493,490,495
475,496,493,490,495
475,498,493,491,494
476,498,493,492,494
476,497,494,492,495
475,497,493,492,495
474,494,493,491,495
476,494,494,491,495
475,496,493,490,495
476,496,493,490,495
476,496,493,490,495
477,496,493,490,495
477,496,493,490,495
476,496,493,491,495
476,496,493,492,495
476,496,493,493,495
476,494,493,493,495
476,494,493,493,495
476,493,493,492,495
476,494,493,491,495
476,495,493,490,495
476,497,493,489,495
476,497,493,488,495
476,496,493,487,495
476,496,491,487,495
476,496,491,487,495
476,497,494,488,494
475,497,494,489,495
475,496,493,488,494
475,496,494,488,495
475,496,494,488,495
476,496,493,487,495
476,495,493,486,495
476,496,493,485,495
476,496,493,484,495
476,496,493,484,494
476,496,493,484,494
476,496,493,484,494
476,495,493,485,495
476,496,493,486,495
476,496,493,487,495
476,496,493,487,495
476,496,493,488,495
476,496,493,488,495
475,496,493,487,494
476,496,493,487,494
476,496,493,486,495
475,496,493,486,495
475,496,493,486,495
475,496,493,487,495
475,496,494,488,495
475,496,493,490,495
475,495,493,491,495
476,496,493,492,495
476,496,493,493,494
475,496,493,494,495
475,496,493,493,494
476,496,494,491,494
476,496,493,490,494
476,496,493,488,494
476,496,493,488,495
476,496,493,487,495
475,496,493,487,495
476,496,493,488,495
476,496,493,489,495
474,496,493,489,495
474,496,493,490,494
474,496,493,490,495
474,496,493,489,495
475,496,493,489,494
476,496,494,488,495
477,496,493,487,495
476,496,493,486,494
476,496,493,486,495
476,496,493,486,495
476,495,493,487,495
476,496,493,488,495
476,496,493,489,495
476,496,493,489,494
475,496,493,490,495
475,496,494,490,495
474,496,494,489,495
474,496,493,488,495
475,496,493,487,495
475,497,493,487,495
475,499,493,486,494
476,499,493,487,494
477,499,493,487,494
477,498,493,488,495
476,493,494,489,495
476,493,494,490,495
476,495,493,490,495
476,495,493,490,495
476,496,493,490,495
476,496,493,489,495
476,496,493,489,495
476,495,493,488,495
476,495,493,487,495
476,496,493,487,495
476,496,493,487,495
476,496,493,487,495
476,496,491,488,495
476,496,494,489,495
476,496,494,490,495
477,496,493,490,495
476,496,493,490,494
476,496,493,489,495
476,496,493,488,495
476,496,493,488,495
476,496,493,487,495
476,496,493,486,495
476,496,493,486,495
476,496,493,486,495
476,496,493,487,495
476,496,493,488,495
476,496,493,489,495
476,496,493,489,494
475,496,493,489,495
475,496,493,489,494
475,496,493,488,495
476,496,493,488,495
475,496,493,487,495
476,496,493,486,495
475,496,493,486,494
476,496,493,486,495
476,496,493,487,495
476,496,493,488,495
476,496,493,488,494
476,496,493,489,495
476,496,493,490,495
476,496,493,490,495
476,496,493,489,495
476,496,494,489,495
476,496,493,488,494
476,496,493,487,495
475,496,493,487,495
474,496,493,487,495
474,496,493,487,495
474,496,494,488,495
474,496,493,489,495
475,496,494,490,495
476,496,493,490,495
477,496,493,490,494
476,496,493,490,494
476,496,494,490,494
476,496,493,489,495
476,496,493,488,494
476,496,493,488,494
475,496,493,487,494
476,496,493,487,494
476,496,493,488,495
475,496,493,489,495
475,496,493,490,495
475,496,494,491,495
475,496,493,491,495
475,496,494,491,494
475,496,493,491,494
475,496,493,490,495
475,496,493,489,494
476,496,493,489,495
476,496,493,488,494
475,496,494,488,494
475,496,494,488,494
476,496,493,488,495
476,496,493,489,495
476,496,493,489,495
476,496,494,489,494
476,496,494,489,494
476,496,493,488,495
476,496,493,486,495
476,496,493,485,494
476,496,493,484,495
476,496,493,482,494
476,496,493,481,494
476,496,493,481,494
476,496,493,481,495
476,496,492,481,495
476,496,493,482,495
476,496,494,482,495
476,496,493,482,495
476,496,493,482,495
476,496,493,482,495
475,496,493,481,495
474,496,493,480,495
474,496,493,480,495
475,496,493,479,494
476,496,493,479,494
476,495,493,479,494
477,496,493,480,495
477,496,493,481,495
476,496,493,482,495
476,496,493,482,494
476,496,493,483,494
475,496,494,483,495
476,496,493,483,495
476,496,493,482,495
476,496,493,481,494
476,495,493,481,494
476,496,493,481,494
476,496,493,481,494
476,496,493,481,495
476,496,493,482,494
476,496,493,483,495
476,496,493,484,495
475,496,493,485,495
475,496,493,485,495
476,496,493,485,495
476,496,493,484,495
477,496,493,484,494
477,496,493,483,495
477,496,493,483,494
476,496,493,482,494
476,496,493,483,494
476,496,493,483,494
476,496,493,484,494
476,496,493,486,494
476,496,493,486,494
476,496,493,487,495
476,496,493,487,494
476,496,493,486,494
476,496,493,486,494
476,496,493,485,494
475,496,493,485,494
475,496,494,484,494
475,496,493,484,495
475,496,493,485,495
475,496,493,485,495
475,496,493,486,494
476,496,493,487,494
476,496,493,488,495
476,496,493,488,494
476,496,493,488,494
476,496,493,487,494
476,496,494,487,495
475,496,494,486,495
475,496,493,486,494
475,496,493,485,495
475,496,493,485,494
475,496,493,486,494
475,496,493,487,494
475,496,494,488,494
475,496,494,489,494
476,496,493,489,495
476,496,493,489,495
476,498,493,489,494
478,499,493,488,494
477,500,494,488,494
476,499,493,487,494
476,497,493,486,495
476,493,493,486,495
476,493,494,486,494
476,495,493,487,494
476,496,493,488,495
476,496,493,489,494
476,496,493,490,494
476,496,493,490,495
476,496,493,489,494
476,496,493,489,495
476,496,493,488,495
476,496,493,488,495
476,496,493,487,495
476,496,491,486,495
476,496,494,487,494
476,496,494,487,494
476,496,494,488,495
476,496,493,489,495
476,496,494,490,494
476,495,493,490,494
476,496,493,490,494
476,496,493,490,494
475,496,493,489,494
475,496,493,488,494
474,496,493,488,495
475,496,493,487,495
476,496,493,487,494
476,496,493,487,494
476,496,493,488,494
476,496,493,489,494
477,496,493,490,494
476,496,493,490,494
476,496,493,490,494
476,496,493,490,494
476,496,493,489,494
476,496,494,489,494
476,496,494,488,494
476,496,493,487,494
476,496,493,487,494
476,496,494,487,494
476,496,493,487,494
476,496,493,488,494
476,496,493,489,494
476,496,493,490,494
476,496,493,491,495
476,496,493,491,494
476,496,493,490,494
476,496,493,490,495
476,496,493,489,494
475,496,493,488,494
475,496,493,488,495
475,496,493,487,494
476,496,493,488,494
476,496,493,489,495
475,496,493,489,495
475,496,493,490,495
476,496,494,491,495
476,496,493,491,495
476,496,493,491,494
476,496,493,491,495
478,496,493,490,495
477,496,494,489,494
476,496,494,489,494
476,496,493,488,495
476,496,493,488,494
476,496,493,488,494
476,496,493,489,494
476,496,493,490,494
476,496,493,491,495
476,496,493,491,494
476,496,494,491,494
476,496,494,491,494
476,496,492,490,494
476,496,493,489,494
476,496,494,489,494
476,496,493,488,494
476,496,493,487,494
476,496,494,488,494
476,496,493,488,494
476,496,493,489,494
476,496,493,490,495
476,496,493,490,494
476,496,493,490,494
476,496,493,490,494
476,496,493,490,494
476,496,493,489,494
476,496,493,488,494
476,496,493,487,494
476,496,493,486,494
476,496,494,486,494
476,496,493,487,495
476,496,493,487,495
476,496,493,488,494
476,499,493,489,495
476,499,491,489,495
476,500,494,489,494
476,500,494,489,494
476,496,493,488,495
476,492,493,487,495
476,494,493,487,495
476,494,494,486,495
476,495,494,486,495
476,495,494,486,495
476,495,493,486,495
475,496,494,487,495
475,496,494,488,495
476,496,493,489,495
476,496,493,489,494
477,496,493,489,495
475,496,493,488,495
473,496,493,488,494
474,496,493,487,494
474,496,493,486,494
475,496,493,486,494
476,496,493,486,494
478,496,493,486,494
478,496,493,487,494
477,496,493,488,494
477,496,493,489,494
477,496,493,489,494
476,496,494,489,494
476,496,493,489,494
476,496,493,489,494
476,496,493,488,494
476,496,493,487,494
476,496,493,486,494
476,496,493,486,494
476,496,493,486,494
476,496,493,486,494
476,496,493,487,494
476,496,493,488,495
476,496,493,489,494
476,496,493,489,494
476,496,493,489,494
476,496,493,489,494
476,496,493,488,494
476,496,493,487,494
476,496,493,487,494
476,496,493,486,494
476,496,493,486,494
476,496,493,486,494
476,496,493,487,494
476,496,494,488,494
476,496,493,488,494
476,496,493,489,494
476,496,493,489,494
476,496,493,489,494
476,496,494,489,494
476,496,494,488,494
476,496,493,487,495
476,496,494,487,495
476,496,493,486,495
476,496,493,486,495
476,496,493,486,495
476,496,493,487,495
475,496,493,488,495
475,496,493,489,495
475,496,493,489,494
475,496,494,489,494
476,496,494,489,494
477,496,493,489,494
477,496,493,488,494
477,496,493,487,494
477,496,493,486,494
477,496,493,486,494
476,496,493,486,494
476,496,493,487,494
476,496,494,488,494
476,496,493,489,494
476,496,493,489,495
476,498,494,490,494
476,499,493,490,494
476,500,492,489,495
475,500,492,488,494
475,498,496,488,495
475,493,494,487,495
476,493,493,487,495
476,495,493,487,495
477,495,493,487,495
478,496,493,488,494
477,496,493,489,495
477,496,494,490,495
476,496,493,490,495
476,496,493,490,494
476,496,493,490,495
476,496,493,489,495
476,496,493,489,495
476,496,493,488,494
476,496,493,487,495
476,496,493,487,494
476,496,493,487,494
476,496,493,488,494
476,496,493,488,494
476,496,493,489,494
476,496,493,490,494
476,496,494,491,494
476,496,493,490,495
476,496,493,490,494
476,496,493,489,494
476,496,493,488,494
476,496,493,488,494
476,496,493,487,495
476,496,493,487,494
476,496,493,487,494
476,496,493,488,494
476,496,493,489,494
476,496,493,490,494
476,496,493,490,494
476,496,493,491,494
476,496,493,490,494
476,496,493,490,495
476,496,493,489,494
476,496,493,488,494
476,497,493,487,494
476,497,493,487,494
476,496,493,487,494
476,496,493,488,494
476,496,493,488,494
476,496,493,489,494
476,496,494,490,495
476,496,494,491,494
476,496,493,491,494
476,496,493,490,494
476,496,494,490,494
476,496,493,489,494
476,496,493,488,494
476,496,493,488,494
476,496,493,488,494
476,496,493,488,494
476,496,494,489,494
475,497,495,490,495
475,497,492,491,495
475,499,493,491,495
475,499,493,492,495
476,498,493,491,494
476,497,493,491,495
477,493,493,490,495
476,492,493,489,495
476,495,494,489,494
476,496,493,488,494
476,496,493,489,495
476,496,494,489,495
476,496,493,490,495
477,496,493,491,494
477,496,494,492,495
477,496,493,492,495
477,496,493,493,494
477,496,493,492,494
476,496,493,491,494
476,496,493,491,494
477,496,494,490,495
477,496,492,490,495
476,496,491,489,495
476,496,494,490,494
476,496,494,491,494
476,496,493,492,494
476,496,493,493,494
476,496,493,494,494
476,496,493,495,494
477,496,493,495,494
477,496,493,494,494
476,496,494,493,494
476,496,493,491,494
476,496,493,490,495
476,496,493,489,495
476,496,493,488,494
476,496,493,489,494
476,496,493,489,494
476,496,493,490,494
476,496,493,491,495
476,496,493,491,494
476,496,493,491,494
476,496,493,490,495
476,496,493,490,494
476,497,495,489,494
476,496,493,488,495
475,496,494,488,494
475,496,493,487,495
475,496,493,487,495
476,496,493,488,494
476,496,493,489,494
477,496,494,490,495
478,496,493,490,494
477,496,493,490,494
476,496,493,490,494
476,496,493,490,494
476,496,493,489,494
476,496,493,488,494
477,496,493,487,494
476,496,493,487,494
476,496,493,487,494
476,496,493,487,494
476,496,494,488,494
476,496,493,488,494
476,496,493,489,494
476,496,493,490,495
476,496,493,490,494
476,496,493,489,494
476,496,493,489,494
476,498,493,488,494
476,499,493,487,495
476,500,494,487,495
476,500,494,487,495
476,497,493,486,495
476,492,492,486,495
476,493,493,487,495
476,494,493,489,494
476,494,493,489,495
477,495,493,490,495
477,496,493,489,495
477,496,493,489,494
477,496,493,488,494
476,496,493,487,495
476,496,493,487,494
476,496,493,486,494
476,496,493,486,494
476,496,493,486,494
476,496,493,487,494
476,496,493,488,495
476,496,493,489,495
476,496,493,489,495
476,496,492,489,494
476,497,492,489,494
476,496,494,488,494
477,496,493,487,494
477,496,493,487,495
476,496,493,486,494
476,496,494,486,494
476,496,494,486,494
476,496,493,486,494
476,496,493,487,494
476,496,493,488,494
476,496,492,488,495
476,496,493,489,494
476,496,493,489,494
476,496,493,488,494
476,496,494,488,494
476,496,493,487,494
476,496,493,486,495
475,496,493,486,495
476,496,493,485,495
476,496,493,486,494
476,496,493,487,494
476,496,493,487,494
476,496,493,488,494
476,496,494,489,494
475,497,494,489,495
476,496,493,489,494
476,496,493,488,494
476,496,493,488,494
477,496,493,487,495
478,496,493,486,494
477,496,493,486,494
476,496,493,486,494
476,496,493,486,494
476,496,493,487,494
476,496,493,488,494
476,496,493,489,494
476,499,493,489,494
476,500,493,489,494
476,500,494,489,494
476,499,493,488,494
476,496,493,487,495
476,492,494,487,495
476,493,493,486,494
476,495,494,486,495
475,495,493,486,495
475,495,493,487,495
476,496,493,488,495
476,496,493,489,495
477,496,493,489,495
477,496,493,490,495
478,496,493,489,494
477,496,494,489,494
477,496,493,488,494
476,496,493,487,495
476,496,493,487,494
477,496,493,486,495
476,496,493,486,494
476,496,493,486,495
476,496,493,487,494
477,496,493,488,495
477,496,493,489,495
476,496,493,489,494
477,497,493,489,494
476,496,493,489,495
476,496,494,489,495
476,496,494,488,495
476,496,494,487,494
477,496,494,487,494
476,496,492,486,494
476,497,493,486,494
476,496,494,487,494
476,496,493,488,494
476,496,493,488,494
476,496,493,489,494
476,496,493,490,494
476,496,493,489,494
476,496,493,489,494
476,496,494,488,494
476,496,493,487,494
476,495,493,487,494
476,496,493,486,494
475,496,493,486,495
475,496,493,487,494
475,496,493,487,495
476,496,492,488,495
476,496,492,489,494
477,496,494,490,494
478,496,493,490,494
477,496,493,489,494
476,496,493,489,495
475,496,493,488,494
476,498,493,488,494
476,499,493,487,495
476,500,493,486,494
477,499,493,487,494
477,496,493,487,495
477,492,494,488,495
476,494,493,489,495
477,495,493,489,495
476,496,493,490,494
476,496,493,490,494
476,496,494,489,495
476,496,493,489,495
476,496,493,488,495
476,496,494,487,494
476,496,493,487,494
476,496,493,487,494
476,496,493,487,494
476,496,493,487,494
476,496,493,488,494
476,496,493,489,494
476,496,493,490,494
476,496,493,490,495
476,496,493,490,495
476,496,494,489,494
476,496,493,489,494
476,496,493,488,495
476,496,493,487,494
476,496,493,486,495
477,496,493,486,494
476,496,493,487,494
476,496,493,488,494
476,496,493,489,494
476,496,493,490,495
476,495,494,490,495
476,495,493,490,494
476,495,494,490,494
476,496,493,489,494
477,497,494,488,494
477,497,494,488,494
476,496,493,487,494
476,496,493,487,495
476,496,493,487,494
476,496,493,487,494
476,496,493,488,494
476,496,493,489,494
476,496,493,490,494
476,496,493,490,494
476,496,493,490,495
476,496,493,489,494
477,496,493,488,494
477,496,493,488,494
476,496,494,487,494
475,496,493,487,494
475,496,493,487,494
475,496,493,487,494
476,499,493,488,494
476,499,493,489,494
477,500,494,490,494
478,499,493,490,494
477,496,493,490,494
476,492,493,490,494
476,494,493,489,494
476,495,493,488,494
476,495,494,488,494
476,496,495,488,494
476,496,493,487,494
476,496,493,487,494
476,496,493,488,494
476,496,493,488,495
476,496,493,489,494
476,496,493,490,494
476,496,493,490,494
476,496,493,490,494
476,496,493,490,494
476,496,493,489,494
476,496,493,488,494
476,496,491,487,494
476,496,493,487,494
476,496,494,487,494
476,496,493,487,494
476,496,493,488,494
476,496,493,489,494
476,496,493,490,494
476,496,493,490,495
476,496,493,490,494
476,496,493,490,494
476,496,493,489,495
476,496,493,488,494
477,496,493,488,494
476,496,493,487,494
476,496,493,487,494
476,496,493,487,494
476,496,493,487,495
476,496,493,488,494
476,496,493,489,494
476,496,493,490,494
476,496,494,490,494
476,496,493,490,494
476,496,493,489,494
476,496,493,489,494
476,496,493,488,494
476,496,493,487,494
476,496,493,487,494
476,496,493,486,494
476,496,493,487,494
476,496,493,487,494
476,496,493,488,494
476,496,493,489,494
476,496,493,490,494
476,496,493,490,494
476,496,493,489,494
476,496,493,489,494
476,496,493,488,494
476,496,493,487,494
476,496,493,487,494
476,496,493,486,494
476,496,494,486,494
476,496,493,487,494
476,496,493,488,494
477,496,493,489,494
477,496,493,489,495
477,496,493,490,494
476,496,493,490,494
476,496,493,489,494
476,496,493,488,494
476,496,493,488,494
476,496,493,487,494
476,496,493,486,494
476,496,493,486,494
476,496,493,486,494
476,496,493,487,494
476,496,493,488,494
476,496,493,489,494
476,496,493,489,494
476,496,493,490,494
476,496,492,489,494
476,496,493,489,494
476,496,493,488,494
476,496,493,487,494
476,496,493,486,494
476,496,493,486,494
476,496,493,486,494
476,496,493,487,494
476,496,494,487,494
477,496,492,488,495
476,496,493,489,494
476,496,493,489,494
476,496,493,489,494
476,496,493,489,494
476,496,493,488,494
476,496,493,488,494
476,496,493,487,494
476,496,493,487,494
476,496,492,486,494
476,496,491,486,495
476,496,495,487,494
477,496,493,488,494
477,498,493,489,494
476,500,493,490,494
477,500,493,490,494
478,500,493,489,495
477,498,493,489,494
477,492,493,488,495
476,492,493,487,494
476,494,493,487,495
476,496,493,486,494
476,496,493,486,494
476,496,493,486,495
477,496,493,487,494
476,496,493,488,494
476,496,493,489,494
476,496,494,489,494
476,496,493,489,494
476,496,493,489,494
476,496,493,488,494
476,496,493,487,494
476,496,493,487,494
476,496,493,486,494
476,496,493,486,494
476,496,493,486,494
476,496,493,486,494
476,496,493,487,494
476,496,493,488,494
476,496,493,489,494
476,496,493,489,494
476,496,493,489,494
476,496,493,489,494
476,496,493,488,494
476,496,493,487,495
476,496,493,486,494
476,496,493,486,495
475,496,493,486,495
474,496,493,486,494
475,496,493,487,494
476,496,493,488,494
476,496,493,489,494
477,496,493,489,495
478,496,493,489,494
478,496,493,489,494
477,496,493,488,494
477,496,493,488,494
476,496,493,487,494
476,496,494,486,494
476,496,493,486,494
476,496,492,486,494
476,496,493,486,494
476,496,493,487,494
476,496,493,488,494
476,496,493,489,494
476,496,493,489,494
476,496,493,489,494
476,496,493,489,494
476,496,493,488,494
476,496,493,487,494
476,496,493,487,494
476,496,493,486,494
476,496,493,486,494
476,496,493,486,494
476,496,493,487,494
476,496,493,488,494
476,496,493,489,494
476,496,493,489,494
476,496,493,490,494
476,496,493,489,494
476,496,493,489,494
476,496,493,488,494
476,496,493,487,494
476,496,493,486,494
476,496,493,486,494
476,496,494,486,494
476,496,494,487,494
476,496,493,487,494
476,497,493,488,494
477,499,493,489,494
476,500,493,489,495
476,500,493,490,495
476,500,493,489,494
476,495,493,488,495
476,492,493,487,494
476,495,493,487,494
476,496,493,486,494
476,495,493,486,494
477,496,494,486,494
477,496,493,487,494
476,496,493,488,495
476,496,492,489,495
476,496,491,489,495
476,496,495,490,494
476,496,493,489,494
476,496,493,489,494
476,496,493,488,495
476,496,493,487,495
476,496,493,487,495
476,496,493,486,495
477,496,493,486,495
477,496,493,486,494
477,496,493,487,494
475,496,493,488,494
475,496,493,489,494
475,496,493,490,494
475,496,493,490,494
476,496,493,489,494
477,496,493,489,494
478,496,493,488,494
478,496,493,487,495
477,496,493,487,494
476,496,493,486,494
476,497,493,486,494
476,496,493,487,494
476,496,493,488,494
476,496,493,489,494
476,496,493,489,494
476,496,493,490,494
476,496,493,489,494
476,496,493,489,494
476,496,493,488,494
476,496,493,488,494
476,496,493,487,494
476,496,493,486,494
476,496,493,486,494
476,496,493,487,494
476,496,493,487,494
476,496,493,488,494
476,496,493,489,494
476,496,492,489,494
476,496,492,490,494
476,496,493,489,494
476,496,494,489,494
476,496,494,488,494
476,496,494,488,495
476,496,492,487,495
476,496,493,486,494
476,496,493,486,494
476,496,493,487,494
476,496,493,488,494
476,496,493,489,494
476,496,493,490,494
476,496,493,490,494
476,496,493,490,494
476,499,493,489,494
476,500,493,489,494
476,500,493,488,494
476,499,493,487,494
476,496,493,486,495
476,492,494,486,494
476,495,493,487,494
476,495,494,488,494
476,496,494,489,494
476,496,494,490,494
476,496,493,490,494
477,496,493,490,495
476,496,493,490,494
476,496,494,490,494
476,496,493,489,494
476,496,493,488,494
476,496,493,487,494
476,496,493,487,495
476,496,493,487,494
476,496,493,487,494
476,496,494,489,495
476,496,495,490,494
477,496,493,490,494
476,496,493,491,494
476,496,493,490,494
476,496,493,490,494
476,496,493,489,494
476,496,492,488,494
476,496,493,488,494
476,496,494,487,494
476,494,493,487,494
476,493,493,487,495
476,494,493,488,494
476,494,493,488,494
476,495,493,489,494
476,498,493,490,495
476,499,493,490,494
476,497,494,490,494
477,496,493,489,494
477,496,493,488,494
476,496,493,488,494
476,496,493,487,494
476,496,493,486,494
476,496,493,487,494
476,496,493,487,494
476,496,493,488,494
476,496,493,489,494
476,496,493,489,494
476,496,493,490,494
476,496,493,490,494
476,496,493,490,494
476,496,493,489,494
476,496,493,488,494
476,496,493,487,494
476,496,493,487,494
476,496,493,486,494
476,496,493,487,494
476,496,493,487,494
476,496,493,488,494
476,496,493,489,494
475,496,493,490,494
475,496,493,490,494
476,496,493,490,494
476,496,493,489,494
476,496,493,488,494
477,497,493,488,494
477,499,493,487,494
477,500,493,487,494
476,500,493,487,494
476,499,493,487,494
476,494,493,488,494
476,492,493,489,494
476,495,493,489,494
476,495,493,490,494
476,496,493,490,494
476,496,493,490,495
476,496,492,489,495
476,496,494,488,494
476,496,493,487,494
476,496,493,487,494
477,496,494,487,494
477,496,493,487,494
476,495,494,487,494
476,496,494,488,495
476,496,493,489,494
476,496,493,490,494
476,496,493,490,494
476,496,493,490,494
476,496,493,489,494
476,496,493,488,494
476,496,493,488,494
476,496,493,487,494
476,496,493,487,494
476,496,493,486,494
476,496,493,487,494
476,496,493,488,494
476,496,493,489,494
476,496,493,489,494
476,496,493,490,494
476,496,494,490,494
476,496,493,490,494
476,496,494,489,494
476,496,495,489,494
476,496,492,488,494
476,496,493,487,494
476,496,493,487,494
476,496,491,486,495
476,496,494,487,494
476,496,493,488,494
476,496,493,489,494
476,496,493,490,494
476,496,493,490,494
476,496,493,490,494
476,496,493,489,494
476,496,493,489,494
476,496,493,488,494
476,496,493,487,494
476,496,493,486,495
476,496,493,486,494
476,496,493,487,494
476,496,493,487,494
476,496,494,489,494
476,496,493,489,494
476,496,493,490,494
476,496,493,490,495
476,496,493,490,494
477,496,493,489,494
476,496,493,488,494
476,496,493,488,495
476,496,493,487,495
476,496,493,487,494
476,496,493,487,494
476,496,493,487,494
475,497,493,488,494
476,497,493,489,494
476,496,493,490,494
476,496,493,490,494
476,496,493,490,494
476,496,493,489,494
476,498,493,489,494
477,500,493,488,494
477,500,493,487,494
476,500,493,487,494
476,498,493,486,494
476,493,493,486,494
476,493,493,487,494
476,495,493,488,494
476,496,494,489,494
476,496,493,489,495
476,496,493,490,494
476,496,493,489,494
476,496,493,489,494
477,496,493,488,494
477,496,493,487,494
476,496,493,487,494
476,496,493,486,494
476,496,493,486,494
476,496,493,487,494
477,496,493,487,494
476,496,493,488,494
476,496,493,489,494
476,496,493,489,494
476,496,493,490,494
476,497,493,489,494
476,496,493,488,494
476,496,493,488,494
476,496,493,487,494
476,496,493,486,494
476,496,493,486,494
476,496,493,486,494
476,496,493,487,494
476,496,493,488,494
476,496,493,488,495
476,496,491,489,495
476,496,494,490,494
476,496,494,489,494
476,496,493,489,494
476,496,493,488,494
476,496,493,487,494
476,496,493,486,494
476,496,493,486,494
476,496,493,486,494
476,496,493,486,494
476,496,493,487,494
476,496,493,488,494
476,496,494,489,494
476,496,492,489,494
476,496,493,490,494
476,496,494,489,494
476,496,493,489,494
476,498,493,488,494
476,499,493,487,494
476,500,493,487,494
476,499,493,486,494
476,496,493,486,494
476,492,493,487,494
476,494,493,488,494
476,495,493,488,495
476,496,493,489,494
476,496,493,490,495
476,496,493,489,494
476,496,493,489,494
476,496,493,488,495
476,496,493,487,494
476,496,493,487,494
477,496,493,486,494
476,496,493,486,494
476,496,493,486,494
476,496,493,487,494
476,496,493,488,494
476,496,493,489,494
476,496,493,489,495
477,496,493,489,495
476,496,493,489,495
476,496,493,489,495
476,496,493,488,495
476,496,493,487,494
476,496,493,487,494
477,496,493,486,494
476,496,493,486,494
477,496,493,487,494
477,496,493,488,494
476,496,493,489,494
476,496,493,489,494
476,496,493,490,494
476,496,493,490,494
476,496,493,489,494
476,496,493,488,494
476,497,493,488,494
476,497,493,487,494
476,496,493,486,494
476,496,494,486,494
476,496,493,486,494
476,496,493,487,494
476,496,493,488,494
476,496,493,489,494
476,496,493,490,494
476,496,493,490,494
477,496,493,489,494
476,496,493,489,494
477,496,493,488,494
477,496,493,488,495
477,496,494,487,494
476,496,493,487,494
476,496,493,487,494
476,496,493,487,494
476,496,493,488,494
476,496,493,489,494
476,496,493,490,494
476,496,493,490,494
476,496,493,490,494
476,496,493,490,494
476,496,493,489,494
476,496,491,488,494
476,496,493,487,494
476,496,494,487,494
476,496,494,487,494
477,496,493,487,494
477,496,493,487,494
476,496,493,488,494
476,497,493,489,494
477,500,493,490,494
476,500,493,490,494
476,500,493,490,494
476,498,493,489,494
476,493,493,489,495
476,493,493,488,494
476,495,493,487,495
476,496,493,487,494
476,496,493,487,494
476,496,494,488,494
476,496,495,488,494
476,496,492,489,494
476,496,493,490,494
476,496,493,490,494
476,496,493,490,494
476,496,493,490,495
476,496,493,489,495
476,496,493,489,495
476,496,493,488,494
476,497,493,487,494
476,498,493,487,494
476,499,493,487,494
476,498,493,488,494
476,498,493,489,494
477,496,493,489,494
476,494,493,490,494
476,495,493,490,494
477,496,493,490,495
477,496,494,490,494
476,496,493,489,494
476,496,493,488,494
476,496,493,487,494
476,496,493,487,495
477,496,493,487,494
477,496,493,487,494
477,496,493,488,494
476,496,493,489,494
476,495,493,490,494
476,495,493,490,494
476,495,493,490,494
476,496,493,490,494
476,496,493,489,494
476,496,493,488,494
476,496,493,488,494
476,496,493,487,494
476,496,493,487,494
476,494,493,487,494
476,494,493,487,494
476,494,493,488,494
476,495,493,489,494
476,496,493,490,494
476,497,493,490,494
476,497,493,490,494
476,497,493,489,494
476,496,493,489,494
476,496,493,488,494
476,496,493,487,494
476,496,493,487,494
476,496,493,486,494
476,496,493,487,494
476,496,493,487,494
476,496,493,488,494
476,496,493,489,494
476,496,493,489,494
476,496,493,490,494
476,496,493,489,494
476,496,493,489,494
476,496,493,488,494
476,496,493,487,494
476,499,494,487,494
476,500,493,486,494
476,500,493,486,494
476,499,493,487,494
476,495,492,487,494
477,492,493,488,495
476,494,492,489,495
476,495,491,489,494
477,496,494,490,495
477,496,493,489,494
477,496,493,488,494
477,496,493,488,495
477,496,493,487,494
477,496,493,486,494
476,496,493,486,494
476,496,493,486,494
476,496,493,487,494
476,496,493,488,494
476,496,493,489,494
476,496,493,489,494
476,496,493,489,494
476,496,493,489,494
476,496,493,489,494
476,496,493,488,494
476,496,493,487,494
476,496,493,487,494
476,496,493,486,494
476,496,493,486,494
476,496,493,487,494
477,496,493,488,494
476,496,493,488,494
476,496,493,489,494
476,496,493,490,494
476,496,493,490,494
476,496,493,489,494
476,496,493,489,494
476,496,493,488,494
476,496,493,487,494
476,496,493,486,494
476,496,493,486,494
476,496,495,487,494
476,496,494,487,494
476,496,492,488,494
476,496,493,489,494
476,496,493,490,494
476,496,493,490,494
477,496,493,490,494
477,496,492,489,494
477,496,493,488,494
477,496,493,487,494
477,496,492,486,494
477,496,492,486,494
476,496,493,486,494
476,496,493,486,494
476,496,493,487,495
477,496,493,488,494
476,496,493,489,494
476,495,493,489,494
476,496,493,489,494
476,496,493,489,495
476,496,493,488,494
477,496,493,487,494
477,496,493,487,494
476,496,493,486,494
476,496,493,486,494
476,496,493,486,494
476,496,493,486,494
476,496,493,487,494
476,496,493,488,494
476,496,494,489,494
476,496,493,489,494
476,496,493,489,494
476,496,493,489,494
476,496,493,488,494
476,496,493,487,494
476,496,493,486,494
476,496,493,486,494
476,496,493,486,494
476,496,493,486,494
476,496,493,487,494
476,496,493,487,494
476,496,493,488,494
476,496,493,489,494
477,496,493,489,494
477,498,493,489,494
477,499,493,488,494
477,499,493,487,494
476,499,492,486,494
476,496,493,486,494
476,492,493,485,494
476,494,493,486,494
477,495,493,486,494
476,496,493,487,494
476,496,493,488,494
476,496,493,489,494
476,496,493,489,494
476,496,493,489,494
476,496,493,489,494
476,496,493,488,494
476,496,491,487,494
476,496,494,487,494
476,496,494,486,494
476,496,493,486,494
476,496,493,486,494
476,496,493,487,494
476,496,493,488,494
476,496,493,489,494
476,496,493,490,494
476,496,493,489,494
476,496,493,489,494
476,496,493,489,494
476,496,493,488,494
476,496,493,487,494
476,496,493,486,494
476,496,493,486,494
476,496,493,486,494
476,496,493,486,494
476,496,493,487,494
476,496,494,488,495
477,496,492,489,494
476,496,493,490,494
476,496,493,489,494
476,496,493,489,494
476,496,493,488,494
476,496,493,487,494
476,496,493,487,494
477,496,493,486,494
476,496,493,486,494
476,497,493,486,494
476,496,493,487,494
476,496,493,488,494
476,496,493,489,494
476,496,493,489,494
476,496,493,490,494
476,496,493,489,494
476,496,493,489,495
476,496,493,488,494
476,496,493,487,494
476,496,493,487,494
476,496,493,486,494
476,496,493,486,494
476,496,493,486,494
476,496,493,487,494
476,496,493,488,494
476,496,493,489,494
476,496,493,490,494
476,496,493,490,494
476,496,493,489,494
476,496,493,488,494
476,496,493,488,494
476,496,493,487,494
476,496,493,486,494
476,496,493,486,494
476,496,492,486,494
476,496,493,487,494
476,496,493,488,494
476,496,493,489,494
476,496,493,489,495
476,496,493,490,494
476,496,493,489,494
476,496,493,489,494
476,496,493,488,494
476,496,493,487,494
476,496,493,487,494
476,497,493,486,494
476,499,493,486,494
476,500,494,487,494
476,500,493,487,495
476,499,492,488,494
476,494,491,489,495
476,492,494,489,494
476,494,494,490,494
476,495,493,489,495
476,495,493,489,494
476,496,493,488,494
476,496,493,487,494
476,496,493,487,494
476,496,493,486,494
476,496,493,487,494
476,496,493,487,494
476,496,493,488,494
476,496,493,489,494
476,496,493,489,494
476,496,492,490,494
476,496,493,490,494
476,496,493,489,494
476,496,494,488,494
476,496,493,488,494
476,496,493,487,494
476,496,493,486,494
476,496,493,486,494
476,496,493,486,494
476,496,493,487,494
476,496,493,488,494
476,496,493,489,494
476,496,493,490,494
476,496,493,490,494
476,496,493,490,494
476,496,494,489,494
476,496,493,488,495
476,496,493,487,495
476,496,493,487,495
476,496,493,486,494
476,496,493,486,494
476,496,493,487,494
476,497,493,488,494
476,496,493,489,494
477,496,493,490,494
476,496,493,490,494
476,496,493,490,494
476,496,493,489,494
476,496,493,488,494
476,496,493,488,494
476,496,493,487,494
476,496,493,487,494
476,496,493,486,494
476,496,493,487,494
476,496,493,487,494
476,496,493,488,494
476,496,493,489,494
476,496,493,490,494
476,496,493,490,494
476,497,493,490,494
476,499,493,489,494
476,500,493,488,494
476,500,493,488,494
476,499,493,487,494
476,495,493,486,494
477,492,493,487,495
476,494,493,487,494
476,495,493,488,495
476,496,493,489,494
476,496,493,490,494
476,496,493,490,494
476,496,493,490,494
476,496,493,490,494
476,496,493,489,494
476,496,493,488,494
476,496,494,488,494
476,496,493,487,494
476,496,493,487,494
476,496,493,487,495
476,496,493,488,494
476,496,493,489,494
476,496,493,489,494
476,496,493,490,494
476,496,493,490,494
476,496,493,490,494
476,496,493,490,494
476,496,493,489,494
476,496,493,488,494
476,496,494,488,494
476,496,493,487,494
476,496,493,487,494
476,496,493,487,494
476,496,492,488,495
476,496,492,489,494
476,496,492,490,494
476,496,494,490,494
476,496,493,490,494
476,496,493,490,494
476,496,493,489,494
476,496,493,488,494
476,496,493,487,494
476,496,493,487,494
476,496,493,486,494
476,496,493,486,494
476,496,493,487,494
476,496,493,488,494
476,496,493,489,494
476,496,493,490,494
476,496,493,490,494
476,496,493,490,494
476,496,493,489,494
476,496,493,488,494
476,496,493,488,494
476,496,493,487,494
476,496,493,487,494
476,496,493,487,494
476,496,493,487,494
476,496,493,488,494
476,496,493,489,494
476,496,493,489,494
476,496,493,490,494
476,496,493,490,494
476,496,493,490,494
475,496,493,489,494
475,496,493,488,494
475,496,493,488,494
475,496,493,487,494
476,496,493,486,494
476,496,493,487,494
476,496,493,487,494
476,496,493,488,494
477,496,493,489,494
476,496,493,489,494
476,496,493,490,494
476,496,493,490,494
476,496,493,489,494
476,496,494,489,494
476,496,494,488,494
476,496,492,487,494
476,496,492,486,494
476,496,493,486,494
476,496,493,486,494
476,496,493,487,494
476,496,493,488,494
476,496,493,489,494
476,496,493,489,494
476,496,493,490,494
476,496,493,489,494
476,496,493,489,494
475,496,493,488,494
476,496,493,487,494
476,496,493,486,494
476,496,493,486,494
476,496,493,486,494
476,496,493,487,494
476,496,493,488,494
476,496,493,489,494
476,496,493,489,494
476,496,493,490,495
476,496,493,490,494
476,496,493,489,494
476,496,493,489,494
476,496,493,488,494
476,496,493,487,495
476,496,493,486,494
476,496,493,486,494
476,496,493,487,494
476,496,493,487,494
476,496,493,488,495
476,496,493,489,494
476,496,493,489,494
476,496,493,490,494
476,496,493,489,494
476,496,493,489,494
476,496,493,488,494
476,496,493,487,494
476,496,493,487,494
476,496,493,486,494
476,496,493,486,494
476,496,493,487,494
476,496,493,487,494
476,496,493,488,494
476,496,493,489,494
476,496,493,489,494
476,496,493,489,494
476,496,493,489,494
476,496,493,488,494
476,496,493,487,494
476,496,493,487,494
476,496,493,486,494
476,496,493,486,494
476,496,493,486,494
476,496,493,487,494
476,496,493,488,494
476,496,493,488,494
476,496,494,489,494
476,496,493,489,494
476,496,493,489,494
476,496,493,489,494
476,496,493,488,494
476,496,493,487,494
476,496,493,486,494
476,496,493,486,494
476,496,493,486,494
476,496,493,486,494
476,496,493,487,494
476,496,493,488,494
476,496,493,489,494
476,496,493,489,494
476,496,493,489,494
476,496,493,489,494
476,496,493,488,494
476,497,493,487,494
476,497,493,487,494
476,496,492,486,494
476,496,492,485,494
476,496,494,486,494
476,496,493,486,494
476,496,493,487,494
476,496,493,488,494
476,496,493,489,494
476,496,493,489,494
476,496,493,489,494
476,496,493,489,494
476,496,493,488,494
476,496,493,487,494
476,496,493,487,494
476,496,493,486,494
476,496,493,486,494
477,497,493,486,494
476,499,493,487,494
476,500,493,488,494
476,500,493,489,494
476,500,493,489,494
476,497,493,489,494
476,492,493,489,494
476,494,493,488,494
476,495,493,488,494
476,496,493,487,494
476,496,493,486,494
476,496,493,486,494
476,496,493,486,494
476,496,493,487,495
477,496,493,488,494
476,496,493,488,494
476,496,493,489,494
476,496,493,490,494
476,496,493,489,494
476,496,493,489,494
476,496,493,488,494
476,496,493,487,494
476,496,493,487,494
476,496,493,486,494
476,496,493,486,494
476,496,494,486,494
476,496,493,487,494
476,496,493,488,494
476,496,493,489,494
476,496,493,489,494
476,496,493,490,494
476,496,493,489,494
476,496,493,489,494
476,496,493,488,494
476,496,493,487,494
476,496,493,486,494
476,496,493,486,494
476,496,493,486,494
476,496,493,486,494
476,496,493,487,494
476,496,493,488,494
476,496,493,489,494
476,496,493,489,494
476,496,493,489,494
476,496,493,489,494
476,496,493,488,494
476,496,493,487,494
476,496,493,487,494
476,496,493,486,494
476,496,493,486,494
477,496,493,486,494
476,496,493,487,494
476,496,493,488,494
476,496,493,489,494
476,496,493,489,494
476,496,493,490,494
476,496,493,489,494
476,496,493,489,494
476,496,493,488,494
476,496,493,487,494
476,496,493,487,494
476,496,493,486,494
477,496,493,486,494
477,496,493,487,494
476,496,493,488,494
476,496,493,488,494
476,496,493,489,494
476,496,493,489,494
476,496,493,490,494
476,496,493,489,494
476,496,493,488,494
476,496,493,488,494
476,496,493,487,494
476,496,493,486,494
476,496,493,486,494
476,496,493,486,494
476,496,493,487,494
476,496,493,488,494
476,496,493,489,494
476,496,493,489,494
476,496,493,490,494
476,496,493,489,494
477,496,493,489,494
477,496,493,488,494
477,496,493,488,494
477,496,493,487,494
476,496,493,487,494
476,496,493,486,495
476,496,493,487,494
476,496,493,488,494
476,496,493,488,494
476,496,493,489,494
477,496,493,490,494
477,498,493,490,494
477,500,493,490,494
477,500,493,489,494
477,500,493,488,494
477,498,493,487,494
476,493,493,487,494
476,493,493,486,494
476,495,493,487,494
476,496,493,487,494
476,496,493,488,494
476,496,493,489,494
476,496,493,490,495
477,496,493,490,494
477,496,493,490,494
477,496,493,490,494
476,496,493,489,494
477,496,493,488,494
476,496,493,488,494
476,496,493,487,494
476,496,493,487,494
476,496,493,487,494
476,496,493,488,494
476,496,493,489,494
476,496,493,490,494
476,496,493,490,494
476,496,493,490,494
477,496,493,490,494
477,496,493,489,494
477,496,493,489,494
476,496,493,488,494
476,496,493,487,494
476,496,493,487,494
476,496,493,487,494
476,496,493,487,494
476,496,493,488,494
476,496,493,489,494
476,496,493,490,494
476,496,493,490,494
476,496,493,490,494
476,496,493,490,494
476,496,493,489,494
476,496,493,488,494
476,496,493,487,494
476,496,493,487,494
476,496,493,487,494
476,496,493,487,494
477,496,493,487,494
477,496,493,489,494
476,496,493,489,494
476,496,493,490,494
476,496,493,490,494
477,496,493,490,494
477,496,493,489,494
476,496,493,488,494
476,496,493,488,494
476,496,494,487,494
476,496,493,486,494
476,496,493,486,494
476,496,493,487,494
476,496,493,488,494
477,496,493,489,494
477,496,493,489,494
476,496,493,490,494
476,496,493,489,494
476,498,493,489,494
476,499,494,489,494
476,499,493,488,494
476,500,493,487,494
476,498,493,486,494
477,493,493,486,495
478,493,493,486,494
477,495,493,487,494
477,496,493,488,494
477,496,493,488,494
476,496,493,489,494
476,496,493,489,495
476,496,493,489,494
476,496,493,489,494
476,496,493,488,494
476,496,493,487,494
476,496,493,486,494
476,496,493,486,494
476,496,493,486,494
476,496,493,486,494
476,496,493,487,494
477,496,493,488,494
477,496,493,489,494
476,496,493,489,494
476,496,493,489,494
476,496,493,489,494
476,496,493,488,494
476,496,493,488,494
476,496,493,487,494
476,496,493,486,494
476,496,493,486,494
476,496,493,486,494
476,496,493,487,494
476,496,493,488,494
476,496,493,489,494
476,496,493,489,494
476,496,493,490,494
476,496,493,489,494
476,496,493,489,494
476,496,493,488,494
476,496,493,488,494
476,496,493,487,494
476,496,493,486,494
476,496,493,486,494
476,496,493,486,494
476,496,493,487,494
476,496,493,488,494
476,496,493,489,494
476,496,493,490,494
476,496,493,490,494
476,496,493,489,494
476,496,493,489,494
476,496,493,488,494
476,496,493,487,494
476,496,493,486,494
476,496,493,486,494
476,496,493,486,494
476,496,493,487,494
476,496,493,488,495
476,496,493,488,494
476,496,493,489,494
476,496,493,489,494
476,496,493,489,494
476,496,494,489,494
476,496,493,488,494
476,496,493,487,494
476,496,493,487,494
476,496,493,486,494
476,496,493,486,494
476,496,493,487,494
475,496,493,487,494
475,496,493,488,495
476,496,493,489,495
476,496,493,489,494
476,497,493,490,494
477,500,493,490,494
478,501,493,489,494
477,500,493,488,494
477,499,493,487,494
477,496,493,487,494
477,492,493,486,494
477,494,493,486,494
476,495,493,486,494
476,496,493,487,494
476,496,493,488,494
476,496,493,489,494
476,496,493,489,494
476,496,493,489,494
476,496,493,489,494
476,496,493,488,495
476,496,493,487,494
476,496,493,487,494
476,496,493,486,494
476,496,493,486,494
476,496,493,486,494
476,496,493,487,495
476,496,493,488,494
476,496,493,489,494
476,496,493,489,494
476,496,493,490,494
476,496,493,489,494
476,496,493,489,494
476,496,493,488,494
476,496,493,487,494
476,496,493,487,494
476,496,493,486,494
476,496,493,486,494
476,496,493,486,494
477,496,493,487,494
476,496,493,488,494
477,496,493,489,494
477,496,493,490,494
476,496,493,489,494
476,496,493,489,494
476,496,493,489,494
476,497,493,488,494
476,496,493,487,494
476,496,493,486,494
476,496,493,486,494
476,496,493,486,494
476,496,493,487,494
476,496,493,488,494
476,496,493,489,494
476,496,493,489,494
476,496,493,489,494
476,496,493,489,494
476,496,493,489,494
476,496,493,488,494
476,496,493,487,494
476,496,493,487,494
476,496,493,486,494
476,496,493,486,494
476,496,493,486,494
476,496,493,487,494
476,496,493,488,494
476,496,493,489,494
476,496,493,489,494
476,496,493,490,494
477,496,493,489,495
477,496,493,489,494
476,496,493,488,494
476,496,493,487,494
476,496,493,486,494
476,496,493,486,494
476,496,494,486,494
476,496,493,487,494
476,496,493,488,494
476,496,493,489,494
476,496,493,489,494
476,496,493,490,494
476,496,493,490,494
476,496,493,489,494
476,496,493,488,494
476,497,493,488,494
476,500,493,487,494
476,500,493,487,494
476,500,493,486,494
476,499,493,487,494
476,495,493,487,495
476,492,493,488,494
477,494,493,489,494
477,495,494,490,494
476,495,493,490,494
476,495,493,490,494
476,495,493,489,494
476,495,493,488,494
476,496,493,487,494
476,496,493,487,494
476,496,493,486,494
476,496,494,486,494
476,496,493,487,494
476,496,493,488,494
476,496,493,489,494
476,496,493,489,494
476,496,493,490,495
476,496,493,490,494
476,497,493,489,494
476,497,493,488,494
476,498,493,488,494
476,498,493,487,494
476,496,493,486,494
477,494,493,486,494
477,496,493,487,494
476,496,493,487,494
476,496,493,488,494
476,496,493,489,494
476,496,493,490,494
476,496,493,490,494
476,496,492,489,494
476,496,492,489,494
476,496,493,488,494
476,496,493,488,494
477,496,494,487,494
477,496,495,487,494
476,495,493,487,494
477,495,493,487,494
476,495,493,488,494
476,496,493,489,494
476,496,493,490,494
476,497,493,490,494
476,496,493,490,495
476,496,493,490,494
476,496,493,489,494
477,496,493,488,494
477,498,493,487,494
476,500,493,487,494
476,500,493,487,494
476,500,493,487,495
476,497,493,487,494
475,492,493,488,494
475,491,493,489,494
474,493,493,490,494
476,494,493,490,495
478,495,494,490,494
477,496,494,490,494
477,496,492,488,494
478,496,492,488,495
476,496,492,487,494
476,496,492,486,494
477,495,493,486,494
477,496,493,487,494
476,497,494,488,494
476,497,493,489,494
476,496,493,490,494
476,496,493,490,494
476,496,493,490,494
477,496,493,490,494
476,496,493,489,494
476,496,493,488,494
476,496,493,488,494
477,496,493,487,494
476,496,493,487,494
476,496,493,487,494
476,496,493,488,494
476,496,493,489,494
476,496,493,490,494
476,496,493,490,494
476,496,493,490,494
476,496,493,490,494
476,496,493,489,494
476,496,493,489,494
476,496,493,488,494
476,496,493,487,495
476,496,493,487,494
476,496,494,487,494
476,496,493,487,494
476,496,493,488,494
476,496,493,489,494
476,496,493,490,494
476,496,493,490,494
476,496,493,490,494
476,496,493,490,494
476,496,493,489,494
476,496,493,488,494
476,496,493,488,494
476,496,493,487,494
476,496,493,486,494
476,496,493,487,494
476,496,493,487,494
476,496,493,488,494
476,496,493,489,494
476,496,493,489,494
476,496,493,490,494
476,496,493,490,494
476,496,493,489,494
476,496,493,489,494
476,496,493,488,494
476,496,493,487,494
476,496,493,486,494
476,496,493,486,494
476,496,493,486,494
476,496,493,487,494
476,496,493,488,494
476,496,493,489,494
476,496,493,490,494
475,496,493,490,494
476,496,493,489,494
476,496,493,489,494
476,496,493,488,494
476,496,493,487,494
476,496,493,487,494
476,496,493,486,494
476,496,493,486,494
477,498,493,487,494
476,500,493,488,494
476,500,493,489,494
475,500,493,489,494
475,498,493,489,495
475,493,493,489,495
475,493,493,489,494
476,495,493,489,494
476,495,492,488,494
477,496,494,487,494
478,496,493,487,495
477,496,493,486,494
476,496,493,487,494
476,496,493,487,495
476,496,493,488,494
476,496,493,489,494
476,496,494,490,494
476,496,492,490,494
477,496,493,490,494
477,496,493,489,494
476,496,493,489,494
476,496,493,488,494
476,495,493,487,494
476,495,493,486,495
476,496,493,487,494
476,496,493,487,494
475,497,494,488,494
476,496,493,489,494
476,496,493,490,494
476,496,493,490,494
476,496,493,490,494
476,496,493,490,494
475,497,493,489,495
473,498,493,488,494
472,498,493,487,494
473,498,493,487,495
474,496,493,486,495
475,494,493,487,494
478,495,493,487,495
479,496,493,488,494
479,496,493,489,494
478,496,493,490,494
477,496,493,490,494
476,496,493,489,494
476,496,493,489,494
476,496,493,488,494
476,496,493,487,494
476,495,493,487,494
476,496,493,486,494
476,496,493,486,494
476,496,493,487,494
476,496,493,488,494
476,496,493,488,494
476,496,493,489,494
475,496,493,490,494
476,496,493,490,494
476,496,493,489,494
476,496,493,489,494
476,496,493,488,494
476,496,493,487,494
476,496,493,487,494
476,496,493,486,494
476,496,493,486,494
476,496,493,487,494
476,496,493,488,494
476,496,493,489,494
476,496,493,489,494
475,498,493,490,494
475,499,493,489,494
476,500,493,489,494
476,499,493,488,494
476,498,493,487,494
476,493,493,487,495
476,493,493,486,495
476,495,493,486,495
476,495,493,487,494
476,496,493,487,495
476,496,493,488,495
476,496,493,489,494
476,496,493,490,494
476,496,493,490,494
476,496,493,490,494
476,496,493,489,494
476,496,493,488,494
476,496,493,487,494
475,496,493,487,494
475,496,493,487,495
475,496,493,487,495
475,496,493,487,494
476,496,493,488,495
476,496,493,489,494
474,496,493,489,494
473,496,493,490,494
473,496,493,490,495
474,496,493,490,495
475,496,493,489,494
476,496,493,488,494
478,494,493,487,494
478,494,493,487,495
477,494,493,486,494
476,494,493,487,494
476,496,492,487,494
476,498,492,488,494
476,498,493,489,494
476,497,494,490,494
476,497,494,490,494
476,496,493,490,494
475,496,493,489,494
476,496,493,489,494
475,496,493,488,494
476,496,493,487,494
476,496,493,487,494
476,496,493,487,494
475,496,493,487,494
476,496,493,488,494
476,496,494,489,494
475,496,495,490,494
475,496,493,490,494
475,496,492,490,495
475,496,493,490,494
475,496,493,489,494
475,496,493,488,494
475,496,493,487,495
476,496,493,487,494
476,496,493,487,494
476,496,493,487,494
475,497,493,487,494
475,499,493,488,495
474,500,493,489,495
474,500,493,490,494
474,498,493,490,494
475,494,493,490,495
475,494,493,489,494
476,496,493,488,494
477,497,493,487,494
476,496,492,486,494
477,494,492,486,495
477,494,493,486,495
476,495,493,486,494
476,495,493,487,494
476,494,494,488,494
476,495,493,489,494
476,496,493,489,494
475,497,493,489,494
475,496,493,489,494
475,496,493,488,494
476,496,493,487,494
476,496,493,487,494
476,496,493,486,494
476,496,493,486,494
476,496,493,486,494
476,496,493,487,494
475,496,493,488,494
476,496,494,489,494
475,496,493,489,494
476,496,493,490,494
475,496,493,489,494
475,496,493,489,494
476,496,493,488,494
475,496,493,488,494
476,496,493,487,494
476,496,493,486,494
475,496,493,486,494
475,496,493,487,494
476,497,493,487,494
476,496,493,488,494
476,496,493,489,494
476,496,493,490,494
476,496,493,490,494
476,496,493,489,494
476,496,493,489,494
476,496,492,488,494
476,496,492,487,494
476,496,493,487,494
475,496,493,486,494
474,496,494,487,494
474,496,494,487,494
475,496,494,488,495
475,496,493,489,494
475,496,493,490,494
475,496,493,490,494
477,496,493,490,494
476,496,493,490,494
476,496,493,489,494
475,496,493,488,494
476,496,493,487,494
475,496,493,487,494
475,496,493,487,494
475,497,493,487,494
474,499,493,488,494
474,500,493,489,495
474,499,493,489,494
473,496,493,490,495
475,490,493,490,495
476,491,493,490,494
477,493,493,489,494
476,494,493,488,495
475,496,492,487,494
476,496,493,487,494
477,497,493,487,494
476,497,493,487,494
476,497,493,487,495
476,496,493,488,494
476,496,493,489,494
475,496,493,489,494
476,496,493,490,494
475,496,493,490,494
476,496,492,489,494
476,497,493,489,494
476,498,494,488,494
475,498,493,487,494
475,498,493,487,494
476,498,493,486,494
475,496,493,487,495
475,494,493,487,494
476,495,493,488,494
476,496,493,489,494
476,496,493,490,494
476,496,493,490,494
476,496,493,490,494
476,496,493,489,494
475,496,493,488,494
475,496,493,487,494
475,496,494,487,494
475,496,494,486,494
475,496,492,486,495
476,496,493,487,495
476,496,493,488,494
475,496,493,489,494
476,496,493,490,494
475,496,493,490,494
475,496,493,490,494
475,496,493,489,494
476,496,493,489,494
475,496,493,488,494
474,496,493,487,495
474,496,493,487,495
475,496,493,486,494
475,496,493,487,494
476,496,493,487,494
477,496,493,488,494
477,496,493,489,494
476,496,493,490,495
476,496,493,490,494
475,496,493,490,494
474,496,493,489,495
474,496,493,488,494
475,497,493,488,494
475,499,494,487,494
475,500,493,487,494
476,500,493,487,494
476,498,493,487,494
475,493,493,487,495
474,493,493,489,494
474,495,493,489,494
475,496,493,490,494
477,496,493,490,494
476,496,493,490,494
476,496,493,489,495
477,496,493,488,494
476,496,493,487,494
475,496,493,487,494
475,496,493,486,495
476,496,493,487,494
476,496,493,487,494
476,496,493,488,494
475,495,493,489,494
475,495,493,490,494
474,495,493,490,494
474,496,493,490,494
475,497,493,490,494
475,496,493,489,494
475,496,493,488,494
476,496,493,487,494
477,496,493,487,494
476,495,493,487,494
476,496,493,487,494
476,496,493,488,494
475,496,493,489,494
476,496,493,489,494
476,495,493,490,494
475,494,492,490,494
475,495,493,489,495
476,495,493,489,494
475,496,493,488,494
475,497,493,488,494
475,497,493,487,494
476,497,493,486,494
475,496,493,486,494
475,496,493,487,494
475,496,493,488,494
475,496,493,489,494
475,496,493,490,494
475,496,494,490,494
475,496,494,490,494
475,496,492,489,494
475,496,493,489,494
475,496,493,488,494
475,496,493,487,494
475,496,493,487,494
475,496,493,487,494
475,496,493,487,494
475,496,493,487,494
474,496,493,489,495
475,496,493,489,494
475,496,493,490,494
475,496,493,490,494
476,496,493,490,494
476,496,493,489,494
475,496,493,488,494
475,496,493,488,494
476,496,493,487,495
476,496,493,486,494
475,496,493,486,494
475,496,493,487,494
475,497,493,488,494
475,496,493,489,494
475,496,493,489,494
475,496,493,490,494
475,496,493,489,494
474,496,494,489,494
474,496,493,489,494
474,496,493,488,494
474,496,493,487,494
475,496,493,486,494
475,496,493,486,494
476,496,493,487,494
476,497,493,487,494
476,499,493,488,494
476,500,493,489,494
475,500,493,490,494
475,499,493,490,494
475,494,493,489,494
475,493,493,489,494
476,495,493,488,494
475,495,493,487,494
476,496,493,487,494
476,496,493,486,494
475,496,493,486,494
475,496,493,487,494
475,496,494,488,494
476,495,493,488,494
475,495,493,489,494
475,495,493,490,494
475,496,493,489,494
475,496,493,489,494
475,496,493,488,494
475,495,493,488,494
476,496,493,487,494
475,496,493,486,494
475,497,493,486,494
475,499,493,486,494
474,497,493,487,495
475,495,493,488,494
475,496,493,489,494
475,496,493,489,495
475,496,493,490,495
475,496,493,489,494
475,496,493,489,494
475,496,493,488,494
475,496,493,487,494
475,496,493,487,495
474,496,493,486,494
474,496,493,486,494
474,496,493,486,494
475,496,493,487,494
476,496,493,488,494
477,496,493,489,494
477,496,493,489,494
476,496,493,489,494
476,496,493,489,494
476,496,493,489,494
476,496,493,488,494
475,496,493,487,494
475,496,493,486,494
475,496,493,486,494
475,496,493,486,494
475,496,493,487,494
475,496,493,488,494
476,496,493,489,494
475,496,493,489,494
475,496,493,490,494
475,496,493,490,494
475,496,493,489,494
475,496,493,489,494
475,496,493,488,494
475,496,493,487,494
475,496,493,487,494
475,496,493,486,494
475,496,493,487,494
475,496,493,488,494
475,496,493,489,494
474,496,494,490,494
474,499,493,490,494
474,499,493,490,495
474,499,493,490,494
475,499,493,489,494
475,496,492,488,494
476,492,493,487,494
477,494,493,487,494
475,495,493,487,494
475,496,493,487,494
475,496,493,487,494
475,496,493,488,494
475,496,493,489,494
475,496,493,490,494
475,496,493,490,494
475,496,493,490,494
475,496,493,490,494
475,496,493,489,494
475,496,494,489,494
475,496,493,488,494
475,495,493,487,494
475,496,493,487,494
475,496,493,487,494
475,497,493,488,494
474,496,493,489,494
473,496,493,490,494
473,496,493,490,494
474,496,493,490,494
474,496,493,490,494
474,496,492,489,494
476,496,493,488,494
476,496,493,488,495
476,495,493,487,494
475,494,494,487,494
476,495,494,487,494
476,496,493,487,494
476,498,493,488,494
476,500,493,489,494
475,499,493,490,494
475,495,493,490,494
476,494,493,490,494
475,496,493,490,494
475,496,493,489,494
475,496,493,488,494
475,496,493,487,495
475,496,493,487,494
475,496,493,486,494
475,496,493,487,494
476,496,493,487,494
476,496,493,488,494
476,496,492,489,494
475,496,493,490,494
475,496,493,490,494
476,496,493,489,494
475,496,493,489,494
475,496,493,488,494
475,496,493,487,494
475,496,493,487,494
475,496,493,486,494
475,497,493,486,494
475,499,493,487,494
475,500,493,488,494
475,500,493,488,494
475,499,493,489,494
475,494,493,490,495
475,493,493,490,494
475,495,493,489,494
474,496,493,489,494
474,496,493,488,494
474,496,493,487,495
474,496,493,487,494
475,496,493,486,494
475,496,493,487,494
476,496,493,487,494
476,496,493,488,494
475,496,493,489,494
475,496,493,490,494
475,496,493,490,494
475,496,493,490,494
475,496,493,489,494
476,496,493,488,494
475,496,493,488,494
475,496,493,487,494
475,496,493,486,494
474,496,493,486,494
474,496,493,486,494
475,496,493,487,494
475,496,493,489,494
475,496,494,489,494
475,496,492,490,494
475,496,493,490,495
475,496,493,489,494
475,496,493,489,494
475,496,493,488,494
476,496,492,487,494
476,497,493,486,494
475,497,492,486,494
475,496,493,486,494
475,496,493,487,494
475,496,493,488,494
475,496,493,489,494
475,496,493,489,494
475,496,493,490,494
475,496,493,489,494
475,496,493,489,494
475,496,493,488,494
475,496,493,487,494
475,496,493,487,494
475,496,494,487,494
475,496,493,486,494
475,496,493,487,494
475,496,493,487,494
474,496,493,488,494
474,496,493,489,494
474,496,493,490,494
474,496,493,490,494
475,496,493,489,494
476,496,493,489,494
477,496,493,488,494
476,496,493,487,494
476,496,493,487,494
475,496,493,486,494
475,496,493,486,494
475,496,493,487,494
475,498,493,488,494
474,499,493,489,494
474,500,493,490,494
475,498,493,490,494
475,496,493,490,494
475,492,493,489,494
476,492,493,488,494
476,494,493,488,494
475,497,493,487,494
475,497,492,486,494
475,497,491,486,494
475,497,495,487,494
474,496,493,487,494
475,496,493,488,494
475,496,493,489,494
475,496,492,490,493
475,496,492,489,494
475,496,491,489,494
476,496,494,489,494
476,496,494,488,494
475,496,493,487,495
475,496,492,487,494
475,496,493,486,494
475,496,493,486,494
475,496,493,487,494
475,496,493,487,494
475,496,493,489,494
475,496,493,489,494
475,496,493,490,494
475,496,493,490,494
475,496,492,489,494
475,496,492,488,494
475,496,492,487,494
475,496,493,487,494
475,496,493,486,494
475,496,493,486,494
475,496,493,486,494
475,496,493,487,494
475,496,493,488,494
475,496,493,489,494
475,496,494,490,494
475,496,493,490,494
475,496,493,489,494
474,496,493,489,494
474,496,493,488,494
474,496,493,487,494
475,496,493,487,494
475,496,493,486,494
475,496,493,486,494
476,496,493,487,494
476,496,493,488,494
475,496,493,488,494
475,496,493,489,494
475,496,493,490,494
475,496,493,490,494
475,496,493,489,494
475,496,493,489,494
475,496,493,488,494
475,496,493,487,494
475,496,493,487,494
475,496,493,486,494
476,496,494,487,494
475,496,492,487,494
475,496,493,488,494
475,496,493,489,494
475,496,493,490,494
475,496,493,490,494
475,497,493,489,494
474,497,493,489,494
474,496,493,488,494
474,496,493,487,494
474,496,493,487,494
475,496,493,486,494
475,496,493,486,494
476,496,493,486,494
477,496,493,487,494
476,496,493,488,494
475,496,493,489,494
476,496,493,489,494
476,496,493,489,494
475,496,493,489,493
475,496,493,488,494
475,496,493,488,494
475,496,493,487,494
475,496,493,486,494
475,496,493,486,494
475,496,493,486,494
475,496,493,487,494
475,496,493,488,493
475,496,495,489,494
475,496,492,489,494
475,496,492,489,494
475,496,492,489,494
475,496,492,489,494
475,496,494,488,494
475,496,493,487,494
475,496,493,486,494
475,496,493,486,494
475,496,493,486,494
475,496,493,486,494
475,496,493,487,494
475,496,493,488,494
475,496,493,489,494
475,496,493,489,494
474,496,493,489,494
474,496,493,489,494
474,496,493,488,494
474,496,494,488,494
475,496,494,487,494
475,496,494,486,494
475,496,492,485,494
475,496,493,486,495
475,496,493,486,494
475,496,493,487,494
476,496,492,487,494
476,496,493,489,494
477,496,493,489,494
476,496,493,489,494
475,496,493,488,494
475,496,493,488,494
475,496,493,487,494
475,496,493,486,494
475,496,493,485,494
475,496,493,485,494
475,496,493,486,494
475,496,493,486,494
475,496,493,487,494
475,496,493,488,494
475,496,493,489,494
475,496,494,489,494
475,496,494,489,494
474,496,492,488,494
475,498,492,487,494
475,500,493,487,494
475,500,493,486,494
476,500,493,486,494
476,498,493,486,494
475,494,493,486,494
476,493,493,487,494
476,495,493,488,494
475,496,494,489,494
475,496,493,490,494
475,496,492,489,495
475,496,493,489,494
475,496,493,488,494
475,496,493,487,494
476,496,493,487,494
475,496,493,486,494
474,496,493,486,494
474,496,493,486,494
474,496,493,487,494
475,496,493,488,494
475,496,493,489,493
475,496,494,489,494
476,496,494,490,493
475,496,493,490,494
475,496,493,489,494
475,496,493,488,494
475,495,493,487,494
475,494,492,487,494
476,494,493,486,495
476,494,493,486,494
476,494,490,486,494
475,496,492,487,494
475,499,495,489,494
475,499,494,489,494
475,497,493,490,494
475,497,494,490,494
475,496,493,489,494
475,497,493,489,494
475,496,493,488,494
475,497,493,487,494
475,497,493,487,494
475,497,493,486,494
475,497,493,487,494
475,496,493,487,494
475,496,493,488,494
475,496,493,489,494
475,496,493,490,494
475,496,493,490,494
475,496,493,490,494
475,496,493,489,494
475,496,493,488,494
475,496,493,488,494
475,496,493,487,494
475,496,493,486,494
475,496,493,486,494
475,496,493,487,494
475,496,493,487,494
475,496,493,488,494
475,496,493,489,494
475,496,493,489,494
475,496,493,490,494
475,496,493,489,494
475,496,493,489,494
475,496,493,488,494
474,496,493,487,494
473,496,493,487,494
474,496,493,486,494
475,496,493,487,494
475,496,493,487,494
476,496,493,488,494
476,496,493,489,494
475,496,493,489,494
475,496,493,490,494
475,496,493,490,494
475,496,493,489,494
475,500,493,489,494
477,501,493,488,494
476,501,493,487,494
477,502,493,487,494
477,498,493,486,494
476,490,493,486,494
475,490,493,487,494
475,493,494,488,494
475,495,493,489,494
475,497,493,489,494
475,497,493,489,494
475,497,493,489,494
475,496,493,489,494
475,496,493,488,494
475,496,493,487,494
475,496,493,486,494
475,496,493,486,494
475,496,493,486,494
475,496,493,486,494
475,496,493,487,494
475,496,493,488,494
475,496,493,489,494
475,496,493,489,494
475,496,493,489,494
475,496,493,489,493
475,496,492,488,494
475,497,494,488,494
475,497,494,487,494
475,496,493,486,494
475,496,493,486,494
476,496,493,486,494
475,496,492,487,494
475,496,491,488,494
475,496,494,489,494
475,496,493,489,494
475,496,493,489,494
475,496,493,489,494
475,496,493,488,494
475,496,493,488,494
475,496,493,487,494
475,496,493,486,494
475,496,493,486,494
475,496,493,486,494
475,496,493,486,494
475,496,493,487,494
475,496,493,488,493
474,496,494,489,494
474,496,493,489,495
474,496,493,490,494
474,496,493,489,494
475,496,493,488,494
476,498,493,488,494
477,500,493,487,494
476,500,493,487,494
476,500,493,486,494
475,498,493,486,494
475,493,493,487,494
475,494,493,488,494
475,495,493,489,494
476,496,493,489,494
476,496,493,490,494
476,496,493,489,494
476,496,493,489,494
475,496,493,488,494
476,496,493,487,494
476,496,493,486,494
476,496,493,486,494
475,496,493,486,494
475,496,493,486,494
475,496,494,487,494
475,496,493,488,494
475,496,493,489,494
474,496,493,490,494
474,496,493,490,494
474,496,493,489,494
474,496,493,489,494
475,496,493,488,494
476,496,493,487,494
477,497,493,486,494
478,496,494,486,494
477,496,493,486,494
476,496,493,487,494
475,496,493,488,494
475,496,493,489,494
475,496,493,489,494
475,496,493,490,494
475,496,493,489,494
475,496,493,489,494
475,496,493,488,494
474,496,493,488,494
474,496,493,487,494
474,496,493,486,494
475,496,493,486,494
475,496,493,487,494
476,496,493,487,494
477,496,492,488,494
476,496,493,489,494
475,497,495,490,493
475,496,491,489,494
476,496,493,489,494
476,496,493,489,494
476,496,492,488,494
475,496,493,487,494
476,496,493,486,494
476,496,493,486,494
475,496,493,486,494
475,496,493,487,494
475,496,493,488,494
475,496,493,489,494
475,496,493,489,494
475,496,492,489,495
475,496,491,489,494
475,496,495,489,494
475,496,493,488,494
475,496,494,488,494
474,496,493,487,495
475,496,493,487,494
475,496,493,486,494
475,496,493,486,494
475,496,493,487,494
476,496,493,488,494
477,496,493,489,494
476,495,493,489,494
475,496,493,490,494
475,496,493,489,494
475,496,493,489,494
476,496,493,488,494
475,497,493,487,494
476,501,493,487,494
476,503,493,486,494
474,504,492,486,494
474,496,492,486,494
474,494,492,487,495
475,493,494,488,494
476,495,495,490,494
477,495,494,490,494
477,496,493,490,494
477,496,493,489,494
477,496,493,489,494
477,496,493,488,494
476,496,493,487,494
475,496,493,486,494
476,496,493,486,494
476,496,493,486,494
476,496,493,487,494
476,496,493,488,494
475,496,493,489,494
475,496,493,489,494
475,496,493,489,494
475,496,493,489,494
475,496,493,489,494
475,496,493,488,494
475,496,493,487,494
475,496,493,487,494
474,496,493,486,494
474,496,493,486,494
476,496,492,486,494
476,496,493,487,494
477,496,493,488,494
477,496,494,489,494
476,496,493,489,494
476,496,494,490,494
476,495,492,489,494
476,495,493,489,494
475,495,493,488,494
475,495,493,487,494
476,497,493,486,494
475,498,493,486,494
475,498,493,486,494
475,497,493,487,494
475,496,493,488,494
475,496,493,489,494
475,496,493,489,494
476,496,493,490,494
477,496,493,489,494
475,496,493,489,494
475,496,493,488,494
475,496,493,488,494
476,497,493,487,494
475,497,493,486,494
475,497,492,486,494
475,500,493,487,494
475,500,493,488,494
476,500,493,488,494
476,499,493,489,494
476,496,493,490,495
476,492,493,490,494
476,494,495,490,494
476,495,493,489,495
477,496,493,488,494
476,496,493,487,494
475,496,493,487,494
476,496,493,486,494
476,496,493,486,494
476,496,493,487,494
476,496,493,488,494
476,496,493,489,494
476,496,492,489,494
476,496,493,490,494
476,496,494,490,494
476,496,493,489,494
475,496,493,488,494
475,496,493,488,494
475,496,493,487,494
475,497,493,486,494
475,496,493,486,494
474,496,493,487,494
475,496,493,487,494
475,496,494,488,494
475,496,493,489,494
476,496,493,490,494
476,496,493,490,494
475,496,493,489,494
475,496,493,489,494
475,496,493,488,494
475,496,493,487,494
474,496,493,487,494
474,496,493,486,494
475,496,493,486,494
476,496,493,487,494
477,496,493,488,494
477,496,493,489,494
477,496,493,489,494
476,496,493,490,494
475,496,493,490,494
476,496,493,489,494
475,496,493,489,494
475,496,493,488,494
476,496,493,487,494
475,496,493,486,494
475,496,493,486,494
475,496,493,486,494
475,496,493,487,494
476,496,493,488,494
476,495,493,489,494
476,495,493,489,494
476,495,493,490,494
476,496,494,490,494
476,497,494,489,494
475,498,494,489,494
476,499,493,488,494
475,499,493,487,494
475,498,493,487,494
475,497,493,487,494
475,497,493,487,494
475,494,493,488,494
476,496,493,489,494
476,496,493,490,494
476,497,493,490,494
475,499,493,490,494
475,500,493,490,494
476,500,493,489,494
476,499,494,488,494
476,494,493,487,494
476,493,493,487,494
475,495,493,487,495
473,496,493,487,494
474,496,493,488,494
474,496,493,489,494
475,496,493,490,494
475,496,494,490,494
476,496,493,490,494
476,496,493,490,494
476,496,493,490,494
478,497,493,489,494
477,497,493,488,494
476,497,493,487,494
476,496,493,487,494
476,496,493,487,494
476,496,493,487,494
475,496,493,488,494
475,496,493,489,494
476,496,493,489,494
475,496,493,490,494
475,496,493,490,494
475,496,493,489,494
476,496,493,489,494
476,496,493,488,494
475,496,493,487,494
475,496,493,486,494
475,496,493,486,494
475,496,493,486,494
475,497,493,487,494
475,497,492,487,494
476,496,493,489,494
475,496,495,490,494
475,496,493,490,494
475,495,493,489,494
475,494,493,489,494
476,494,493,488,494
475,495,493,487,494
476,496,493,486,494
475,497,493,486,494
474,497,493,486,494
473,496,493,486,494
474,497,493,487,494
475,497,493,488,494
475,498,493,489,494
476,500,493,489,494
477,500,493,489,494
476,500,493,489,494
476,499,493,488,494
477,495,493,487,494
477,493,493,486,494
476,495,493,486,494
476,496,493,485,494
476,496,493,485,494
476,496,493,486,494
476,496,493,487,494
476,496,493,487,494
476,496,493,488,494
476,496,493,488,494
476,497,493,488,494
476,498,494,488,494
475,498,493,487,494
475,498,493,487,494
475,497,493,486,494
475,494,493,485,494
476,494,493,485,494
476,496,493,485,494
476,496,493,486,494
476,496,493,487,494
476,496,493,488,494
476,496,493,488,494
476,496,493,488,494
476,496,493,488,494
476,496,493,487,494
476,496,493,487,494
476,496,493,486,494
476,496,493,485,494
475,496,493,485,494
476,496,493,485,494
475,496,493,485,494
475,496,493,486,494
476,496,493,487,494
476,496,493,488,494
475,496,493,488,495
476,496,492,488,495
476,496,492,487,495
475,496,493,487,495
474,496,494,486,495
473,496,493,486,495
474,496,493,485,494
474,496,493,485,494
475,496,493,485,494
478,496,493,486,494
478,496,493,487,494
477,496,493,487,494
476,496,493,488,494
476,496,493,488,494
475,496,493,488,494
475,496,493,488,494
476,496,493,487,494
477,496,493,486,494
477,496,493,486,494
476,498,493,485,494
476,499,493,485,494
476,500,493,486,494
475,500,493,487,494
475,495,493,487,494
476,491,493,488,494
476,492,493,489,495
477,493,492,488,494
476,495,494,488,495
476,496,492,487,494
476,498,492,487,494
475,497,493,486,494
475,496,493,485,494
476,496,493,485,494
476,496,493,485,494
475,496,493,486,494
475,496,493,487,494
475,496,493,488,494
475,496,493,489,494
476,496,493,489,494
476,496,493,489,494
476,496,493,488,494
476,496,493,487,494
476,496,493,487,494
475,496,493,486,494
475,496,493,485,494
476,496,493,486,494
476,496,493,486,494
476,496,493,487,494
476,496,492,487,494
476,496,492,488,494
475,497,493,489,494
475,498,494,489,494
475,499,493,489,494
476,498,493,488,494
476,498,493,487,494
476,496,493,486,494
476,494,493,486,494
475,496,494,486,494
475,495,494,486,494
476,496,493,486,494
476,496,493,487,494
476,496,493,488,494
476,496,493,489,494
476,496,493,489,494
476,496,493,489,494
476,496,493,488,494
476,496,493,488,494
475,496,493,487,494
475,496,493,486,495
475,496,493,486,494
475,496,493,486,494
475,496,493,486,495
475,496,493,487,494
475,498,493,488,494
475,499,493,489,494
475,500,493,489,494
475,500,494,490,494
476,495,493,489,494
477,492,493,488,494
477,495,494,488,495
476,495,493,487,494
476,496,493,486,495
476,496,493,486,494
476,496,493,486,494
476,496,493,487,494
476,496,493,487,494
476,496,493,488,494
476,496,493,489,494
475,496,493,489,494
475,496,493,489,494
476,496,493,489,494
475,496,493,488,495
474,496,493,487,494
474,496,493,487,494
474,496,493,486,494
475,496,493,486,494
476,496,493,487,495
477,496,493,487,494
478,496,493,488,494
476,496,493,489,494
476,496,493,489,494
476,496,493,490,494
476,494,494,490,494
477,495,494,489,494
476,495,493,488,494
475,495,493,488,494
475,497,493,487,494
475,498,493,486,494
476,498,492,486,494
476,497,492,487,494
476,497,493,487,494
476,497,492,488,494
476,496,493,489,494
476,496,495,490,494
475,496,493,490,494
475,496,493,489,494
475,496,493,488,494
476,496,492,488,495
476,496,493,487,494
476,496,493,486,494
476,496,493,486,494
475,496,493,486,494
475,496,493,487,494
474,497,493,488,494
475,497,493,489,494
474,496,493,490,494
475,496,493,490,494
475,496,493,490,494
476,497,493,489,494
477,497,493,488,494
476,497,492,487,494
475,497,493,487,494
474,499,493,486,494
474,499,493,486,494
475,498,491,486,494
475,498,494,488,494
475,495,493,488,494
477,495,493,489,494
477,497,493,490,494
477,497,493,490,494
479,497,493,490,494
477,495,493,489,494
476,494,493,488,494
476,496,493,487,494
476,496,493,487,494
476,496,493,486,494
475,496,493,487,494
476,496,493,487,494
476,496,493,488,494
476,496,493,489,494
476,496,493,489,494
475,496,493,490,494
475,496,493,490,494
475,496,493,489,494
476,496,493,488,494
476,496,493,488,494
476,494,493,487,494
475,494,493,486,494
476,495,493,486,495
476,495,493,487,494
475,497,493,488,494
475,498,493,489,494
476,497,491,489,494
476,497,493,490,494
476,497,493,490,495
476,496,493,490,494
475,496,493,489,494
476,496,493,488,494
476,496,494,488,494
475,496,493,487,494
475,496,493,486,494
475,496,493,487,494
474,496,493,487,494
475,496,493,488,494
475,497,493,489,494
476,497,493,489,494
476,497,493,490,494
476,498,493,490,494
476,499,493,489,494
475,500,493,489,494
474,500,493,488,494
475,498,493,487,494
475,494,493,486,495
475,493,493,486,494
476,495,493,487,494
478,496,493,487,494
477,496,493,488,494
477,496,493,489,494
477,496,493,489,495
476,496,493,489,494
475,495,493,489,494
475,496,494,489,494
475,496,493,488,494
475,497,493,487,494
476,496,493,486,494
476,496,493,486,494
476,496,494,486,494
476,496,492,486,494
476,496,493,487,494
476,496,493,488,494
475,496,493,489,494
475,496,493,489,494
475,496,493,489,494
475,496,493,489,494
476,496,493,488,494
477,496,493,487,494
477,496,493,487,494
476,496,493,486,494
476,496,493,486,494
475,496,493,486,494
475,496,493,487,494
475,496,493,488,494
475,496,493,489,494
475,496,493,489,494
475,496,493,490,494
475,496,493,489,494
476,496,493,489,494
476,497,493,488,494
476,496,493,488,494
476,496,493,487,495
476,495,493,486,494
476,496,493,487,494
475,496,493,487,494
475,496,493,488,494
473,497,493,489,494
473,499,493,489,494
474,496,493,490,495
475,496,493,490,494
476,496,493,490,494
477,496,493,489,494
479,496,493,488,494
477,496,493,487,494
476,496,493,487,494
476,496,493,486,494
475,496,493,487,494
475,496,494,487,494
475,496,493,488,494
475,496,493,489,494
476,496,493,490,494
475,497,493,490,494
476,499,493,490,495
476,500,493,489,494
477,500,493,489,495
476,499,493,488,494
476,494,493,487,495
476,492,493,487,494
476,495,493,487,494
476,495,493,487,494
476,496,493,488,494
476,496,493,489,494
476,496,493,489,495
476,496,493,490,494
476,496,493,490,495
475,496,493,490,494
475,497,493,489,494
475,496,494,488,494
475,496,493,487,494
475,496,493,487,494
475,496,493,487,494
475,496,493,487,494
476,496,493,487,494
475,496,493,488,494
476,496,493,489,494
476,496,493,490,494
477,496,493,490,494
476,497,493,490,494
475,496,493,490,494
475,496,493,489,494
475,496,493,488,494
475,496,493,487,495
475,496,493,486,494
476,496,493,487,494
475,496,493,487,494
475,496,493,487,494
476,496,493,488,494
476,496,493,489,494
476,496,493,490,494
476,496,493,490,494
475,496,493,489,494
475,496,493,489,494
475,496,493,488,494
475,496,493,487,494
476,496,493,486,494
476,496,493,486,494
475,496,493,486,494
475,496,493,487,495
474,496,493,488,494
473,496,493,489,494
474,496,493,489,494
475,496,493,490,494
475,496,493,490,494
476,496,493,489,494
478,496,493,489,494
477,496,493,488,494
476,496,493,487,494
477,496,493,486,494
477,496,493,486,494
476,496,494,487,494
476,496,493,487,494
476,496,493,488,494
476,496,493,489,494
475,496,493,490,494
476,496,493,490,494
475,496,493,489,494
476,496,493,489,494
475,496,493,488,494
475,496,493,487,495
475,497,493,487,494
475,498,493,486,494
476,498,493,486,494
476,498,493,487,494
476,495,492,487,495
476,494,493,488,494
476,496,493,489,494
475,496,493,490,494
476,496,493,490,494
476,496,494,489,494
476,496,493,489,494
476,496,493,488,494
476,496,493,487,494
476,497,493,486,494
476,497,493,486,494
475,496,493,486,494
476,496,493,487,494
475,496,493,488,494
475,496,493,489,494
476,496,493,489,494
476,496,493,489,494
476,496,493,489,494
476,496,493,489,494
475,496,493,488,494
476,496,493,487,494
475,496,493,487,494
475,496,493,486,494
475,496,493,486,494
475,496,493,487,494
475,496,493,488,494
476,496,494,489,494
476,496,492,489,494
476,496,492,490,494
476,497,493,490,495
476,496,493,489,494
476,496,493,489,494
475,496,493,488,495
475,496,493,487,494
475,496,493,487,494
475,496,493,486,494
476,496,493,486,494
476,496,493,487,494
477,496,493,488,494
476,496,493,488,494
475,496,493,489,494
475,496,493,489,495
476,496,493,489,495
476,496,493,489,494
476,496,493,488,494
477,496,493,487,494
476,496,493,486,494
475,496,493,486,494
476,496,493,486,495
475,496,493,486,494
476,496,493,487,494
476,496,493,488,494
476,497,493,489,494
476,496,493,489,494
475,497,493,489,494
475,496,493,489,494
476,497,493,489,494
475,496,493,488,494
475,496,494,487,494
475,498,493,487,494
475,499,493,486,494
476,500,493,487,495
476,501,493,487,494
476,500,493,488,494
476,494,493,489,495
476,493,493,490,494
476,493,493,490,495
475,491,493,490,495
474,494,493,490,494
474,496,494,489,494
475,498,493,488,494
476,497,493,487,494
477,497,493,487,494
478,497,493,487,494
477,497,493,487,494
476,496,493,488,494
476,496,493,488,494
476,496,493,489,494
476,496,493,490,494
475,496,494,490,494
476,496,493,490,495
476,496,493,489,495
476,496,493,488,494
476,498,493,488,494
476,497,493,487,494
476,496,493,486,494
476,496,493,486,494
476,496,493,487,494
476,496,493,488,494
476,496,493,489,494
475,496,493,489,494
475,496,493,490,494
475,496,493,490,494
475,496,493,489,494
475,496,493,489,494
476,497,493,488,494
477,497,495,488,494
477,497,494,487,494
476,496,493,486,494
475,496,493,487,494
475,496,493,487,494
475,496,493,488,494
474,496,493,489,495
474,496,493,490,495
475,496,493,490,495
475,496,493,490,495
475,496,493,489,494
475,496,493,488,494
477,496,493,487,494
477,497,493,487,494
476,499,493,486,494
476,499,493,486,494
476,501,493,487,494
476,501,493,488,494
475,496,493,489,494
475,494,493,489,494
475,496,493,490,495
476,493,493,490,495
476,494,493,489,495
477,494,493,489,495
477,494,492,488,495
475,494,492,487,495
474,495,495,487,495
475,496,494,487,495
475,496,494,487,494
475,498,493,488,494
476,497,493,488,494
477,497,493,489,495
476,496,492,489,495
476,496,492,489,495
475,496,493,490,494
475,497,493,489,494
476,497,493,488,494
476,497,493,488,494
476,496,493,487,494
476,496,494,487,494
477,496,493,486,494
477,496,493,487,494
477,496,491,487,495
477,496,493,489,494
476,497,494,489,494
476,496,493,490,494
476,496,493,490,494
475,496,493,489,495
476,496,493,489,494
475,496,493,488,494
474,497,494,488,494
475,499,494,487,494
476,500,495,487,495
476,500,491,486,495
476,496,492,487,495
476,493,493,488,495
477,495,493,489,494
476,496,493,489,495
475,496,492,490,495
474,497,491,489,494
474,498,494,489,495
475,498,492,488,494
475,496,493,487,494
476,493,492,487,495
478,492,493,486,495
477,494,491,486,495
477,495,493,487,494
476,496,493,488,494
476,499,494,489,494
476,498,492,490,495
476,496,492,490,495
475,496,492,490,494
475,496,493,490,495
475,496,493,490,494
476,496,493,489,494
475,496,493,488,494
476,496,493,487,494
475,497,493,487,494
475,496,493,487,494
475,496,491,487,495
475,497,493,488,494
475,496,493,489,495
475,496,493,490,494
475,496,493,490,494
475,496,494,490,495
476,496,493,490,494
477,496,492,489,495
477,496,492,488,494
475,497,493,487,494
476,497,493,487,494
475,497,492,486,494
476,497,493,487,494
476,497,493,487,494
476,496,493,488,494
476,496,493,489,494
476,496,494,490,494
475,496,493,490,495
474,497,493,490,495
474,497,493,489,494
475,496,493,488,495
475,496,493,488,494
476,496,491,486,494
477,497,492,486,494
478,497,494,487,494
476,497,494,487,494
475,497,492,487,494
475,496,493,489,494
475,496,491,489,494
475,496,494,490,494
475,496,493,490,495
475,496,491,489,495
476,496,492,488,495
476,498,491,487,495
476,499,493,487,494
476,501,493,486,494
476,500,492,486,494
476,498,493,486,494
475,493,493,487,495
476,493,492,488,495
476,495,493,489,494
476,496,492,489,495
476,496,492,490,494
475,496,494,490,494
476,496,493,489,494
476,496,493,488,494
475,496,493,488,494
476,496,493,487,494
476,496,493,487,494
475,496,493,487,494
475,496,492,487,495
475,496,493,488,494
476,496,493,489,494
476,496,493,490,494
476,496,493,490,495
476,497,493,490,494
476,497,493,490,494
476,496,493,489,494
475,496,492,488,494
475,496,495,488,494
475,496,494,487,494
475,497,493,487,494
476,497,493,488,495
476,497,493,488,494
475,496,493,489,494
476,497,493,490,495
474,497,493,490,494
473,496,493,491,495
473,496,494,491,495
475,496,493,490,494
475,496,493,489,494
476,496,493,488,495
478,496,493,488,494
478,496,493,487,494
476,497,493,487,494
475,497,493,487,494
475,498,493,488,494
476,497,491,489,494
475,496,493,490,494
475,496,494,491,494
476,496,493,490,495
477,497,493,490,494
476,498,493,489,494
476,499,494,489,494
475,498,493,488,494
476,497,493,487,495
476,493,493,487,495
476,494,493,487,494
476,496,494,488,494
475,496,492,488,494
476,496,493,489,494
476,496,493,490,494
476,496,493,490,494
476,496,493,490,494
475,496,493,490,494
475,496,493,489,494
475,496,493,488,495
475,496,493,487,494
475,496,493,486,494
475,496,494,487,494
476,497,494,487,494
476,496,492,487,495
475,496,493,488,494
475,496,493,489,494
475,496,493,490,494
476,496,493,490,494
475,496,493,489,494
476,496,493,489,494
475,496,493,488,494
475,496,494,488,494
476,496,492,486,495
475,496,493,486,494
475,496,493,486,494
475,496,493,487,495
474,496,492,487,495
473,496,493,488,494
473,497,494,489,494
474,496,494,490,494
475,497,493,489,494
475,498,493,489,494
477,498,492,488,494
478,498,493,488,494
478,497,493,487,495
476,494,493,486,495
476,494,493,486,494
475,496,492,486,494
476,496,493,487,494
475,496,493,488,494
476,496,493,488,495
477,495,492,489,495
478,495,493,489,495
477,495,493,489,494
476,496,492,488,494
476,498,493,488,495
476,500,492,487,495
476,500,493,486,494
476,499,493,486,494
476,496,493,486,494
476,494,493,486,494
476,495,493,487,495
475,496,493,488,494
476,496,493,489,494
476,496,493,489,494
476,496,493,489,494
476,496,493,489,494
476,496,493,488,494
476,496,493,487,494
476,496,493,487,494
476,496,493,486,494
475,496,493,486,494
476,496,493,486,494
476,496,493,487,494
476,496,491,487,495
476,496,494,489,494
475,496,493,489,494
475,496,493,489,494
475,496,493,489,494
475,496,493,489,494
476,496,493,488,494
476,496,493,487,495
475,496,494,487,494
475,496,493,486,495
475,496,493,486,494
475,496,493,487,494
475,496,493,488,494
476,496,493,488,494
477,496,493,489,494
477,496,493,490,494
475,496,493,490,494
475,496,493,490,494
476,496,493,489,494
475,496,493,488,494
475,496,493,487,494
475,496,493,487,494
476,496,493,486,494
475,496,493,487,494
476,496,493,487,494
476,496,493,488,494
476,496,492,489,494
476,496,493,490,494
475,497,495,490,494
475,496,493,490,494
475,496,494,490,494
474,496,493,489,495
475,496,493,488,494
475,496,493,487,494
476,496,492,487,494
476,496,493,487,494
476,496,494,487,495
477,496,495,488,494
477,496,492,489,494
476,496,493,489,494
476,496,493,490,494
476,496,493,490,494
475,496,493,490,494
475,496,491,489,495
476,496,493,488,494
476,496,493,488,494
475,496,493,487,495
476,496,492,486,494
476,496,494,487,494
476,496,493,487,494
475,496,490,488,495
475,495,493,489,495
475,496,494,490,494
475,498,493,490,494
476,500,493,490,495
476,502,493,490,495
477,501,493,489,494
476,496,493,488,495
476,496,493,487,495
476,494,493,487,495
476,493,493,487,494
476,495,493,487,494
475,496,493,488,494
476,496,493,489,494
476,496,493,490,494
476,496,493,490,494
475,496,493,490,494
476,496,493,490,494
476,496,493,490,494
476,496,493,489,494
476,496,493,488,495
476,496,493,487,494
475,496,493,487,494
475,496,493,487,494
476,496,492,487,494
475,496,493,488,494
475,496,495,489,494
475,496,495,490,494
475,496,492,490,495
475,496,492,490,495
474,496,491,489,495
476,496,494,489,494
476,496,493,488,494
476,496,493,487,494
476,496,493,487,494
476,496,493,486,494
476,496,493,487,494
476,496,493,487,495
476,496,493,488,494
475,496,493,489,494
475,496,493,490,494
475,496,493,490,494
475,496,493,490,494
475,496,493,489,494
475,496,493,488,495
475,496,493,487,494
475,496,493,487,494
476,496,493,486,494
476,496,493,486,495
476,496,493,487,494
476,496,493,488,494
476,496,493,488,494
476,496,493,489,494
475,496,493,490,494
475,496,493,490,494
475,496,493,489,494
475,496,493,489,494
476,496,493,488,494
475,496,494,487,494
475,496,493,487,494
475,496,493,486,494
476,496,492,486,494
475,496,495,487,494
475,496,494,488,495
474,496,492,489,495
473,496,494,490,495
474,496,493,490,494
475,496,493,489,494
475,497,492,489,494
477,499,493,488,494
480,500,493,488,494
478,498,493,487,494
477,496,492,486,494
476,494,494,486,494
476,494,494,487,494
476,495,493,488,494
476,496,493,488,494
476,496,493,489,494
476,496,493,490,494
476,496,493,490,495
476,496,493,490,494
476,496,493,489,494
475,496,493,488,494
476,496,493,487,494
476,496,493,487,495
476,496,493,486,494
475,496,492,487,494
476,496,493,487,494
476,496,494,489,494
476,496,493,489,494
476,496,492,490,494
476,496,493,490,494
476,496,493,490,494
476,496,493,490,494
475,496,493,489,495
476,496,493,488,494
475,496,493,487,494
476,496,493,487,494
475,496,493,487,494
475,496,493,487,494
475,496,493,488,494
475,496,493,489,494
476,496,493,490,494
476,496,493,490,494
476,496,493,490,494
476,496,493,490,494
475,496,493,490,494
475,496,493,489,494
476,496,493,488,494
476,496,491,487,494
476,496,495,487,494
475,497,494,487,494
475,496,495,488,494
476,496,493,489,494
475,496,493,489,494
475,496,492,490,494
476,496,491,490,494
476,496,493,490,494
475,496,492,489,494
474,496,493,489,494
473,496,493,488,495
474,496,493,487,495
475,497,493,487,494
475,499,493,487,494
476,499,493,487,494
477,499,492,487,495
477,498,493,488,494
476,494,493,489,495
476,494,495,490,494
476,495,494,490,494
477,496,493,490,494
476,496,493,489,494
476,496,493,488,494
476,496,493,488,494
475,496,493,487,494
475,496,493,486,494
475,496,493,487,494
475,496,493,487,494
476,496,493,488,494
475,496,493,489,494
475,496,493,489,494
475,496,493,490,495
475,496,493,490,494
476,496,493,490,494
476,496,493,489,494
476,496,493,488,494
476,496,493,487,494
476,497,494,487,494
476,496,493,487,494
475,496,493,487,494
476,496,493,487,494
475,496,493,488,494
475,496,493,489,494
475,496,493,490,494
476,496,493,490,494
475,496,493,489,495
476,496,493,489,495
476,496,492,488,494
475,496,493,487,494
475,496,493,486,494
475,496,493,486,494
475,496,493,486,494
475,495,493,486,494
475,495,493,487,495
475,496,496,489,494
475,497,492,489,494
475,497,493,489,494
475,499,492,489,495
476,499,493,489,494
476,495,493,488,495
475,495,493,487,495
475,496,493,487,494
475,496,494,486,494
476,496,494,486,494
476,496,493,486,494
476,496,492,487,494
476,496,493,488,494
476,496,493,489,494
476,496,493,489,494
475,496,493,490,494
476,496,493,489,494
475,496,493,489,494
476,496,493,488,494
475,496,493,487,494
475,496,493,487,494
475,496,493,486,494
475,496,493,486,494
475,496,493,487,494
476,496,493,487,494
476,496,493,488,494
475,496,493,489,494
475,496,493,490,494
475,496,493,490,494
476,496,493,490,494
476,496,493,489,494
476,496,493,488,494
475,496,493,487,494
475,496,493,487,494
476,496,493,487,494
476,496,493,487,494
476,496,493,488,495
476,496,492,488,494
475,496,494,489,493
475,497,494,490,494
476,496,494,490,494
476,496,493,490,494
476,496,493,490,494
476,496,494,489,494
476,496,493,488,494
476,496,493,487,494
476,496,493,487,494
476,496,493,487,494
476,496,491,487,494
476,496,493,488,494
475,497,494,489,494
476,499,493,490,494
476,500,492,490,494
476,500,494,490,495
475,499,493,490,495
474,496,493,489,494
475,492,491,487,494
475,494,490,487,496
476,495,495,487,495
475,495,493,486,495
476,496,493,487,494
475,496,493,487,495
475,496,493,488,494
475,496,494,489,494
477,496,494,490,494
477,495,493,490,494
478,495,493,490,495
477,496,493,490,494
476,497,493,489,494
475,496,493,488,495
475,495,493,487,495
475,495,493,487,494
475,495,494,487,494
476,495,494,487,494
476,496,494,488,494
476,497,493,489,494
475,497,493,489,494
476,496,493,490,494
477,496,493,490,494
476,496,493,490,494
476,497,493,489,495
475,497,493,488,494
474,497,493,488,495
474,496,493,487,494
474,496,493,487,494
475,497,493,487,494
475,501,493,487,494
477,501,494,488,494
477,501,494,489,494
477,501,494,490,494
476,495,494,490,494
476,491,494,490,494
476,493,493,489,495
476,495,493,489,494
475,496,493,488,494
476,496,493,487,495
476,496,493,486,495
475,496,495,487,494
476,496,494,487,495
476,496,492,487,495
476,496,493,488,494
476,496,493,489,495
475,496,493,489,494
476,496,493,490,494
475,496,493,489,494
475,496,493,489,494
476,496,493,488,494
475,496,493,488,494
476,496,493,487,494
476,496,493,486,494
476,496,493,486,494
475,496,493,487,494
475,496,493,488,494
476,496,493,488,494
476,496,493,489,494
475,496,494,490,494
475,496,493,490,494
475,496,494,490,494
475,496,493,489,493
475,496,494,488,494
475,496,492,487,494
476,496,493,487,494
476,496,493,486,494
476,496,492,486,495
476,496,492,487,495
475,496,492,488,495
475,496,493,489,495
475,496,491,489,495
475,497,491,490,494
476,497,495,490,494
476,497,495,490,494
476,496,491,488,494
477,496,491,487,495
476,496,494,487,494
476,496,493,487,494
476,496,493,486,494
475,496,493,487,495
475,496,493,488,494
475,496,493,489,494
473,496,494,490,494
473,496,493,490,494
474,496,493,490,494
475,496,493,490,494
476,496,493,489,494
477,496,493,488,494
478,496,493,488,494
476,496,493,487,495
476,496,493,487,494
476,496,493,487,494
476,496,493,487,494
477,498,493,488,494
476,500,494,489,494
475,500,494,490,494
475,500,494,490,494
475,498,493,490,494
476,492,493,489,494
476,491,493,489,495
476,493,493,488,494
477,495,493,487,494
476,496,493,487,494
475,499,492,486,495
476,500,493,487,494
476,498,493,487,494
476,495,493,488,494
476,495,493,489,495
477,496,493,490,494
476,496,493,490,494
476,496,493,489,495
476,496,493,489,494
475,496,493,488,494
475,496,494,488,494
475,496,493,487,494
475,496,495,487,494
475,496,492,486,495
476,496,492,487,494
476,496,493,488,494
476,496,493,489,495
476,496,493,489,494
476,496,493,490,494
474,496,494,490,495
474,496,494,489,495
474,496,492,489,494
475,496,493,488,495
475,496,493,487,494
476,496,493,487,495
478,496,493,486,494
477,496,493,487,494
476,496,494,488,494
476,496,493,489,494
476,496,493,489,494
476,496,493,490,494
475,496,494,490,494
476,496,493,490,494
476,496,493,489,494
476,496,493,488,494
476,496,493,488,495
476,496,493,487,494
475,496,493,486,494
475,496,492,486,495
475,496,491,487,494
475,497,494,488,494
475,496,493,489,495
475,496,493,489,494
475,496,493,490,494
475,496,494,490,494
475,496,493,489,494
476,496,493,489,494
476,496,493,488,494
475,496,493,487,494
475,496,492,486,494
476,496,493,486,494
476,496,493,487,494
476,496,493,487,494
476,496,493,488,495
476,495,493,489,495
476,496,493,489,494
476,496,493,489,494
475,496,493,489,494
475,496,493,489,494
475,496,493,488,494
476,497,493,487,494
475,496,493,487,494
475,498,493,486,494
475,499,493,486,494
476,500,493,487,494
476,500,493,487,494
476,498,493,488,494
476,494,493,489,495
476,493,493,489,494
476,495,493,490,494
475,496,494,489,494
474,496,493,489,494
474,496,493,488,494
474,496,493,487,494
476,496,493,487,494
477,496,493,486,495
478,496,493,486,494
477,496,493,487,494
476,496,493,488,494
476,496,493,489,494
476,496,493,489,494
476,495,493,489,495
475,495,493,489,494
475,495,494,489,494
476,495,493,488,495
476,496,492,487,494
475,497,493,487,494
475,497,494,486,494
476,496,493,486,494
476,496,493,487,494
475,496,493,487,494
475,496,493,488,494
476,496,493,489,494
476,496,493,489,494
475,496,493,490,494
