Sensor0,Sensor1,Sensor2,Sensor3,Sensor4

494,492,490,808,495
494,497,494,861,494
493,496,491,826,493
493,498,496,664,493
493,494,493,451,493
493,496,493,288,496
493,493,496,211,493
494,497,495,190,494
493,494,492,215,493
494,494,494,282,493
494,493,493,395,493
494,496,491,539,492
494,493,490,723,494
494,494,491,851,494
494,496,494,848,495
494,493,495,773,495
493,496,495,571,496
493,495,492,382,495
493,497,493,250,492
493,497,492,195,492
493,497,494,193,494
494,495,490,235,494
493,495,495,329,493
494,496,492,458,491
494,493,492,605,495
494,496,492,790,495
494,493,494,862,493
494,494,493,835,495
493,495,492,696,495
493,497,493,483,494
493,497,494,320,494
493,496,494,220,494
493,496,493,186,493
493,496,492,207,493
494,496,494,267,495
494,494,491,381,493
494,493,492,526,494
494,493,493,692,492
494,494,491,839,495
494,495,493,852,494
494,495,491,789,494
493,494,493,602,495
493,495,495,412,495
493,496,494,256,495
493,494,495,193,493
493,494,491,190,495
493,496,491,224,493
494,496,493,310,494
494,495,492,439,495
493,494,492,587,494
494,493,491,769,492
494,496,492,861,494
494,495,494,837,495
493,497,493,719,494
493,497,493,509,495
493,494,495,337,494
493,493,492,226,495
493,494,494,184,496
493,496,493,201,495
493,495,493,254,495
493,495,494,361,492
494,493,491,492,495
494,495,491,667,494
494,492,491,825,495
494,492,494,859,493
494,497,493,811,493
493,497,491,632,494
494,496,492,420,496
493,494,492,272,493
493,493,495,207,496
494,496,491,187,495
493,493,494,220,493
494,496,491,300,494
494,495,490,413,493
494,496,494,560,495
494,494,492,747,494
494,496,492,861,496
494,496,490,847,496
493,493,494,749,493
493,494,493,544,495
493,496,492,365,495
493,497,496,234,496
493,497,491,190,494
493,493,494,197,495
493,493,491,245,492
494,494,491,346,493
494,496,494,479,492
494,493,492,633,495
494,496,494,809,495
494,495,494,859,494
493,492,490,824,497
493,498,493,666,494
493,494,492,457,493
493,494,492,293,495
493,498,492,210,492
493,497,492,187,494
493,494,492,214,495
494,494,491,281,495
494,495,491,397,495
493,495,492,541,493
494,492,494,725,496
493,495,490,853,494
493,495,490,849,495
493,496,494,773,494
493,498,495,570,493
493,496,492,378,496
493,497,491,245,494
493,496,493,191,493
493,493,494,198,492
493,492,493,233,495
494,496,495,329,493
494,496,491,458,495
494,493,494,608,494
494,494,493,793,495
494,496,490,864,493
493,494,490,832,494
493,495,493,696,495
493,495,494,482,495
493,496,492,317,493
493,495,494,219,495
493,493,494,185,493
493,494,494,207,493
493,493,492,268,492
494,495,493,380,494
494,494,490,521,495
494,493,493,692,495
494,494,493,837,495
494,493,494,854,495
494,493,495,790,493
493,497,495,604,493
493,496,495,405,495
493,494,494,258,493
493,494,492,194,493
493,497,492,191,494
493,496,492,223,495
493,495,492,311,495
494,493,493,436,495
494,495,492,587,493
494,492,490,769,495
494,496,491,862,496
494,493,492,843,493
494,496,492,724,497
493,494,495,511,494
493,494,494,335,495
493,493,491,228,496
493,494,493,185,493
493,494,494,204,493
493,495,490,257,492
494,496,491,364,493
494,494,491,495,495
494,496,493,670,493
494,494,492,827,496
494,495,492,859,493
493,495,492,812,494
494,495,493,634,494
493,493,494,426,496
493,494,493,265,496
493,497,494,201,496
493,497,490,191,494
493,494,492,217,495
493,495,491,296,495
494,496,490,416,494
494,496,492,563,495
494,492,492,748,496
494,495,492,857,493
494,496,490,845,493
494,495,495,745,495
493,497,494,541,494
493,494,494,360,496
493,497,494,238,496
493,495,494,188,496
493,492,495,202,492
493,493,490,243,495
493,495,493,347,493
493,495,493,476,492
494,493,493,633,492
494,492,493,809,496
494,494,490,862,496
494,496,492,823,496
493,495,494,664,497
493,497,492,453,495
493,496,495,290,492
494,497,491,209,495
493,494,491,184,496
494,495,494,212,495
494,497,492,283,492
493,495,494,399,493
493,494,493,542,495
493,492,493,723,495
494,496,491,854,497
493,496,494,853,493
493,494,495,773,497
493,495,495,573,496
493,497,494,383,494
493,496,492,245,494
493,494,491,190,495
494,494,491,198,495
493,497,491,237,495
493,496,495,332,493
494,492,491,452,495
494,495,494,610,492
494,495,489,795,493
494,494,493,860,496
494,493,493,834,496
493,494,494,693,497
493,494,496,474,494
493,494,494,310,496
493,496,494,221,493
493,493,493,185,493
494,496,495,208,495
493,493,494,272,495
493,496,492,382,494
494,493,493,518,496
494,494,492,698,495
494,496,493,841,493
494,495,491,857,497
494,494,494,792,494
493,497,493,602,497
493,497,495,401,496
493,496,495,256,493
493,497,495,198,493
493,496,493,193,493
493,495,495,226,494
493,493,494,314,495
493,495,493,432,493
494,495,494,582,495
494,492,491,770,493
494,493,492,864,495
494,494,494,841,494
494,497,493,721,496
493,495,493,510,494
493,495,493,332,494
493,493,495,229,493
493,494,493,187,494
493,494,494,203,493
493,495,492,257,494
493,495,491,364,495
493,494,492,493,493
494,494,491,670,495
494,492,490,830,494
494,494,491,857,496
494,495,491,809,495
493,494,491,633,496
493,495,492,424,495
493,495,493,271,496
493,495,495,204,493
493,496,493,191,496
494,497,492,222,493
493,494,492,298,493
493,494,492,416,495
493,494,491,562,494
494,493,493,750,494
494,494,491,862,496
494,496,491,846,494
494,493,494,747,496
493,498,494,537,494
494,495,495,355,495
493,496,495,238,496
493,498,493,191,493
493,495,494,202,494
493,494,494,246,493
494,496,493,349,494
494,494,491,476,493
494,495,491,642,494
494,494,493,812,493
494,495,490,864,496
494,497,493,826,494
493,498,492,661,496
493,495,493,456,495
493,496,495,294,496
493,493,495,211,493
493,496,492,186,492
493,496,493,213,493
494,497,491,286,495
494,493,492,405,494
494,496,493,553,495
494,495,490,724,494
494,495,490,852,495
494,497,493,851,496
493,497,492,770,496
493,496,492,568,497
493,498,493,384,496
493,496,496,245,495
493,497,495,192,495
493,493,494,193,495
493,493,494,234,494
493,497,493,329,495
494,494,490,457,493
494,496,493,610,495
494,496,491,792,493
494,493,493,864,493
493,494,491,830,496
494,495,493,692,496
493,498,492,477,495
493,497,495,311,496
493,496,494,217,492
493,495,494,183,494
493,494,491,208,495
493,493,494,271,494
494,495,491,379,494
493,496,491,523,493
493,496,490,697,493
494,496,491,839,493
494,494,494,855,495
493,496,495,787,496
493,498,494,596,495
493,496,495,405,495
493,497,493,255,494
493,496,494,195,493
493,497,492,189,495
493,494,494,222,495
494,496,492,315,495
494,494,494,441,495
493,496,493,591,494
494,493,491,770,494
493,494,490,863,494
493,495,493,837,496
493,497,493,717,496
493,496,495,507,497
493,495,495,334,495
493,497,495,224,496
493,494,495,183,493
494,497,494,203,493
493,495,491,256,494
494,496,491,365,493
494,496,493,502,493
493,495,494,667,495
494,493,493,828,493
494,497,492,857,496
494,495,492,807,495
493,494,496,628,495
493,497,494,424,497
493,495,493,268,495
493,496,493,201,496
493,494,493,187,495
493,494,493,218,496
493,494,495,299,495
493,494,492,420,494
494,494,491,567,494
494,495,491,751,494
494,496,491,862,494
493,496,492,844,495
493,495,492,746,496
493,496,494,538,496
493,495,493,362,496
493,496,495,234,496
493,494,495,185,494
493,496,491,196,495
493,494,494,244,494
493,495,492,346,494
494,494,493,489,495
494,495,492,642,495
494,493,491,815,493
494,496,491,862,495
494,496,492,821,496
493,495,494,658,496
493,496,495,455,495
493,496,493,294,495
493,496,495,208,496
493,496,494,183,493
493,494,492,211,493
493,496,493,283,495
493,494,491,402,493
493,494,491,552,495
494,494,492,721,495
494,495,493,850,495
494,495,493,848,495
493,495,494,769,496
493,496,494,567,496
493,496,494,384,495
493,496,494,244,495
493,495,493,189,494
493,494,494,195,493
493,495,493,232,493
493,494,492,331,494
493,495,492,464,495
494,494,491,615,494
494,495,492,792,495
494,495,493,863,495
493,496,493,831,496
493,495,492,688,496
493,497,493,481,496
493,496,494,320,496
493,496,494,215,494
493,496,492,184,493
493,496,493,206,494
493,494,494,271,494
493,495,493,383,493
494,495,492,531,494
494,494,492,695,494
494,494,491,839,495
494,495,492,852,495
494,496,494,786,496
493,496,493,597,496
493,496,494,411,495
493,497,494,255,494
493,495,494,193,494
493,495,494,189,494
493,494,495,222,494
494,495,494,313,494
494,494,492,447,494
493,494,493,599,494
494,495,492,773,494
493,494,492,861,495
494,496,494,837,495
493,495,494,716,497
493,497,493,509,496
493,496,494,340,495
493,495,494,222,495
493,495,493,182,494
493,496,492,199,494
493,496,493,256,494
493,496,494,364,494
493,495,492,509,494
494,494,492,669,494
494,493,491,825,496
494,493,493,855,495
494,494,492,805,495
493,496,493,627,496
493,496,494,430,495
493,496,494,272,495
493,496,492,201,495
493,495,493,188,493
493,494,491,216,494
493,494,494,300,495
494,495,493,424,494
493,494,492,574,494
494,493,492,746,494
494,495,492,857,496
494,495,492,842,495
493,496,493,740,497
493,496,495,535,496
493,496,494,364,496
493,496,493,232,494
493,496,493,185,494
494,496,494,197,494
493,495,493,245,495
493,495,492,347,494
494,494,493,490,494
494,495,492,640,494
494,495,492,812,494
494,495,491,859,495
494,496,492,821,495
493,496,493,657,495
493,496,494,458,496
493,496,493,295,495
493,496,492,205,494
493,495,493,184,494
493,495,492,212,495
493,494,493,283,494
493,496,492,405,494
494,495,492,555,495
494,495,491,724,495
494,494,492,852,494
494,495,492,845,494
494,496,493,766,494
493,496,493,564,495
493,496,493,385,495
493,496,494,241,495
493,495,492,187,494
493,495,495,192,493
493,494,492,234,495
494,494,494,330,493
494,494,491,468,494
494,495,492,619,494
494,495,491,793,494
494,495,491,859,495
493,495,492,830,496
494,496,492,686,496
494,496,494,478,496
493,496,494,318,495
493,496,492,214,495
493,496,493,183,493
493,495,492,206,495
493,495,492,268,494
493,494,493,384,494
494,494,492,532,493
494,494,492,695,494
494,495,491,839,496
493,496,493,850,495
493,496,492,783,496
493,497,494,594,496
493,496,494,409,496
493,496,493,251,496
493,494,493,193,496
493,494,493,188,494
493,495,493,223,494
493,496,492,314,494
494,495,493,446,493
494,495,492,597,494
494,493,491,774,494
494,494,492,862,495
494,495,492,836,494
494,495,493,713,496
493,497,494,508,495
493,496,493,339,495
493,496,494,221,495
493,495,493,181,495
493,494,492,201,494
493,494,494,255,495
494,496,492,364,493
494,494,492,508,495
494,494,491,670,494
494,495,492,829,495
494,495,492,853,495
493,495,493,803,495
493,496,493,625,495
493,495,493,431,495
493,495,494,272,495
493,494,494,199,494
493,495,494,188,493
493,496,493,217,494
494,494,492,299,493
494,494,492,427,495
494,495,491,576,495
494,494,491,749,495
494,494,492,857,495
494,495,493,840,494
494,495,493,741,495
493,496,493,534,495
493,496,493,362,495
493,495,495,231,495
493,495,494,186,494
493,494,493,197,494
493,496,492,243,494
493,494,494,345,494
494,495,492,491,495
494,495,491,640,494
494,494,492,811,494
494,494,493,859,495
494,495,492,820,496
493,497,494,655,495
493,496,493,456,496
493,495,494,294,496
493,494,493,205,494
493,494,494,185,496
493,496,493,210,493
494,494,491,285,493
494,495,493,405,494
494,495,492,554,494
494,494,491,724,495
494,494,492,853,496
494,495,493,847,496
494,495,492,763,495
493,496,493,564,495
494,496,493,385,495
493,495,493,239,495
493,495,493,187,495
493,494,492,194,494
493,495,492,234,493
494,493,492,330,494
494,495,491,469,493
494,493,491,620,493
494,493,491,795,494
494,494,490,860,496
494,495,493,829,494
494,495,492,685,494
493,498,494,478,496
493,496,494,313,495
493,495,493,213,495
493,494,492,181,493
493,496,492,207,495
493,494,492,272,494
494,493,492,382,494
494,493,492,531,494
494,494,492,699,495
494,494,491,842,496
494,495,493,852,496
494,496,492,784,496
493,495,494,592,497
493,495,495,402,496
493,496,494,252,496
493,494,493,193,495
493,495,493,189,493
494,496,492,226,493
494,494,493,317,494
494,495,491,448,494
494,494,493,598,494
494,494,491,774,495
494,493,492,862,495
494,496,491,839,496
494,495,493,712,497
494,495,494,506,495
493,495,494,339,495
493,496,493,222,495
493,495,492,183,494
494,493,492,203,493
493,493,493,257,494
494,494,492,368,494
494,494,492,514,493
494,495,491,671,495
494,494,492,826,494
494,494,492,855,494
494,494,492,803,495
493,496,495,624,495
493,496,493,433,496
493,496,495,275,495
493,495,493,199,495
493,495,493,187,494
493,494,492,216,493
493,496,493,298,495
494,494,492,428,495
494,494,492,577,496
494,494,492,750,496
494,495,492,856,497
494,495,492,840,496
493,494,492,737,495
494,496,495,532,495
494,496,494,358,495
493,496,494,229,495
493,495,493,185,495
493,497,493,198,495
493,494,493,245,494
493,493,492,346,494
494,494,491,490,494
494,494,491,644,494
494,494,491,815,495
494,495,493,856,494
494,495,491,818,497
494,494,493,653,495
493,496,493,453,496
493,496,493,293,495
493,495,493,206,495
493,494,494,186,494
493,495,494,213,494
494,494,491,286,495
493,495,492,407,494
494,495,492,557,495
494,494,492,728,494
494,494,491,852,494
494,495,492,846,495
494,495,493,765,497
493,495,494,560,496
493,496,494,385,496
493,496,494,241,494
493,496,493,189,495
493,494,494,194,495
493,494,493,233,493
494,494,492,332,495
494,495,493,473,494
494,493,493,622,494
494,494,491,794,495
494,496,492,860,495
494,496,492,829,496
493,496,494,682,496
494,496,495,480,496
494,496,493,316,497
493,495,494,212,496
493,495,493,183,494
493,494,493,207,494
493,496,491,270,495
494,494,491,384,494
494,494,492,533,494
494,494,492,699,495
494,493,493,841,496
494,495,493,850,496
494,495,493,782,495
494,496,494,592,495
493,496,493,405,494
493,496,493,250,495
493,495,492,192,495
493,496,493,189,494
493,494,492,223,495
494,496,493,315,493
494,495,492,449,494
494,494,492,601,494
494,495,492,775,495
494,494,492,861,495
494,494,492,836,496
493,495,493,711,496
493,497,494,502,495
493,495,494,337,495
493,495,493,221,495
493,495,494,182,495
494,496,493,203,494
493,494,493,256,495
494,493,491,368,494
494,494,493,514,494
494,494,492,672,494
494,493,492,828,495
494,495,493,855,496
494,495,493,803,496
493,495,494,621,496
493,496,494,428,495
493,496,493,272,496
493,495,494,198,494
493,496,493,187,493
493,495,493,219,493
494,496,492,301,494
494,495,493,428,493
494,494,492,578,494
494,495,493,750,495
494,496,491,859,496
494,494,494,842,496
494,496,493,736,495
493,496,494,530,495
493,495,495,359,495
493,496,494,229,494
493,495,493,184,493
493,496,494,196,496
493,495,491,245,495
493,494,493,350,494
494,494,494,491,494
493,494,491,642,494
494,494,492,817,494
494,495,491,859,495
494,495,492,819,496
493,496,492,652,496
493,496,494,449,495
493,497,493,287,495
493,496,494,205,494
493,494,494,186,495
493,495,491,212,494
494,493,494,285,493
494,495,493,407,494
494,495,491,556,494
494,493,491,730,494
494,494,492,853,495
494,494,492,847,495
494,494,493,761,496
493,496,493,558,496
493,496,494,381,495
493,496,494,239,494
493,496,494,189,494
493,494,493,193,494
493,495,492,233,494
494,496,492,334,494
493,494,492,474,496
494,495,493,623,495
494,494,493,795,496
494,494,492,861,495
494,495,493,829,496
493,495,492,681,495
493,496,494,477,494
493,495,493,315,495
493,495,493,210,495
493,495,492,180,494
493,495,493,207,493
493,496,491,270,495
494,495,492,389,494
494,494,492,537,494
494,494,492,699,495
494,494,490,841,495
494,494,492,851,495
494,495,493,779,496
493,496,492,588,495
493,495,494,407,495
493,495,494,249,495
493,496,492,191,494
493,494,493,187,494
493,496,491,225,495
494,496,492,316,495
494,494,493,448,494
494,494,492,599,494
494,494,492,778,496
494,494,493,863,494
494,495,493,836,495
494,495,492,709,497
493,496,493,500,496
493,495,494,333,495
493,495,493,218,494
493,496,493,181,495
493,496,492,204,494
493,496,493,258,494
494,495,492,368,495
494,495,492,512,494
494,495,492,674,494
494,495,491,831,495
494,496,493,855,495
494,495,492,799,496
493,495,493,619,495
493,496,494,426,496
493,496,494,267,494
493,495,492,199,495
493,495,492,188,495
493,494,493,217,494
493,496,494,302,495
494,495,493,433,494
494,495,492,581,494
494,495,490,751,494
494,493,491,859,496
494,494,492,840,496
494,496,492,735,496
493,497,493,529,495
493,495,493,360,495
493,496,493,227,494
493,495,492,184,494
494,495,492,198,494
493,495,493,247,494
494,494,494,350,494
494,494,493,494,494
494,495,492,645,494
494,494,491,814,494
494,495,492,859,496
494,494,491,819,496
493,495,493,649,496
493,496,493,450,496
493,496,494,291,495
493,495,493,205,494
493,496,494,182,495
493,494,493,212,493
493,495,493,287,493
494,495,492,407,495
494,494,492,556,495
494,493,491,730,494
494,493,491,854,496
494,496,492,846,495
494,496,493,762,496
493,495,492,559,495
493,496,493,379,496
493,495,493,238,495
493,495,494,187,494
493,494,494,194,495
493,495,493,237,496
494,495,494,334,494
494,495,492,473,494
494,495,492,624,493
494,495,491,797,494
494,494,492,862,495
494,494,492,829,496
494,495,494,679,495
493,496,493,476,494
493,496,494,313,495
493,495,493,212,494
493,495,494,183,496
493,495,492,208,495
494,496,492,272,494
494,493,492,392,494
494,494,492,540,495
494,494,491,703,495
494,495,493,842,496
494,495,493,850,496
494,495,493,779,497
494,495,493,587,497
493,495,493,404,496
493,496,494,248,494
493,495,494,190,493
493,496,493,189,493
493,495,493,226,493
494,496,491,319,493
494,494,492,451,494
494,494,491,601,495
494,494,491,778,494
494,495,492,860,495
494,495,494,836,496
494,494,493,707,497
494,495,493,500,495
494,495,494,335,495
493,495,493,219,495
493,495,492,182,495
493,495,493,204,495
494,496,492,257,492
494,497,493,367,495
494,494,491,510,494
494,495,491,676,495
494,494,492,831,495
494,494,493,855,494
494,495,493,800,495
493,495,493,619,496
493,496,493,421,495
493,496,494,264,495
493,496,494,199,495
493,494,494,187,494
493,495,492,221,494
494,494,492,304,494
494,495,493,430,495
494,494,492,579,495
494,494,492,757,495
494,494,492,860,495
494,495,492,842,494
494,495,493,735,495
493,495,492,528,496
494,495,494,356,495
493,495,493,227,494
493,495,493,185,495
493,494,492,198,494
493,495,491,248,493
494,494,492,353,493
494,495,491,497,494
494,495,491,649,494
494,494,491,815,496
494,495,492,858,495
494,496,491,817,495
493,496,493,648,495
493,495,493,453,496
493,496,493,292,495
493,495,494,203,494
493,495,494,185,494
493,495,493,213,494
494,494,494,288,495
493,494,492,413,495
494,494,492,561,494
494,495,491,731,494
494,495,491,853,496
494,496,493,845,495
494,495,493,758,496
493,496,494,555,496
493,496,493,379,496
493,496,493,238,495
493,495,494,188,495
493,494,494,195,494
493,495,492,236,496
493,493,493,335,494
494,495,492,472,494
494,495,492,623,494
494,494,492,797,493
494,495,492,862,494
494,493,491,826,494
494,495,494,678,496
493,495,495,469,496
493,494,495,307,496
493,497,491,211,493
493,494,494,184,493
494,495,494,210,493
493,496,494,273,495
494,496,493,387,494
494,493,492,535,494
494,495,491,707,494
494,493,492,844,494
494,494,492,849,496
494,495,493,781,496
493,494,493,588,496
493,496,495,398,495
493,496,494,249,494
493,496,492,192,493
493,496,495,192,494
493,496,493,226,494
493,494,492,320,495
494,494,492,455,495
494,494,491,604,494
494,494,491,778,496
494,494,491,861,496
494,494,493,835,496
494,495,492,705,497
493,496,493,503,497
493,496,493,337,496
493,495,494,217,494
493,495,494,182,494
493,495,492,202,495
494,496,491,259,494
494,494,492,375,494
494,494,492,518,494
494,494,491,674,495
494,494,492,828,495
493,495,492,852,496
494,494,492,796,496
493,496,492,614,496
493,496,493,424,496
493,496,493,268,495
493,495,493,198,494
493,496,494,184,493
493,494,492,219,494
494,493,493,304,494
494,495,492,430,494
494,495,493,580,494
494,494,492,756,494
494,493,492,858,495
494,495,492,841,495
493,494,492,733,496
493,496,494,524,495
493,495,493,352,495
493,495,494,227,495
493,495,493,184,495
494,496,493,198,495
493,497,493,249,494
494,495,494,352,494
494,494,492,492,494
494,494,492,651,495
494,494,492,820,495
494,494,492,859,496
493,495,492,818,496
493,496,495,647,496
493,496,494,450,496
493,494,493,288,495
493,495,492,203,494
493,495,492,186,495
494,496,495,213,493
494,494,491,289,495
494,493,494,413,495
494,494,492,562,494
494,494,491,732,494
494,494,491,853,494
494,494,492,845,495
494,494,492,758,496
493,496,494,552,496
493,495,494,379,495
493,496,493,237,494
493,495,493,188,493
493,494,493,195,493
493,495,493,238,494
494,495,492,336,494
494,494,492,475,495
494,494,492,624,495
494,493,492,797,495
494,495,493,861,494
494,494,492,827,495
493,496,493,675,495
493,496,493,471,495
493,495,493,308,495
493,496,493,211,493
493,494,493,182,495
493,495,493,206,494
494,495,492,276,493
494,494,491,391,495
494,494,492,540,494
494,494,492,708,494
494,494,490,844,495
493,495,492,849,494
493,496,493,778,496
493,496,494,584,495
493,496,494,402,495
493,496,495,248,495
493,496,492,190,495
493,494,491,188,493
493,495,493,228,494
494,496,493,319,493
494,495,493,455,494
494,494,492,606,494
494,493,492,780,495
494,495,491,860,495
494,495,491,835,495
493,496,493,704,496
493,497,494,497,496
493,496,493,332,494
493,496,494,218,495
493,494,493,181,495
493,495,493,205,495
493,495,493,261,496
494,496,492,372,496
494,495,492,517,495
494,494,493,680,493
494,495,490,831,494
494,494,492,854,495
493,495,493,795,495
494,496,493,615,495
493,496,493,420,495
493,496,494,265,494
493,495,494,196,494
494,496,494,187,493
494,494,494,219,495
494,495,493,304,494
494,495,492,432,493
494,494,492,582,494
494,494,491,755,495
494,495,491,859,495
494,495,493,839,496
493,495,492,730,495
493,496,494,524,495
493,496,495,354,494
493,495,493,227,494
493,495,493,184,494
493,494,492,199,494
493,497,494,249,494
494,495,494,353,494
494,495,493,497,494
494,494,492,650,494
494,494,492,819,495
494,494,492,856,495
493,496,492,815,495
493,496,493,646,496
493,496,492,449,495
493,496,493,288,495
493,494,493,203,495
493,496,493,184,494
493,495,492,212,493
494,494,492,289,494
494,495,492,412,494
494,494,492,561,494
494,494,491,734,495
494,493,493,853,496
494,494,492,845,496
494,495,493,758,497
493,495,492,552,495
493,496,494,377,494
493,496,492,235,493
493,496,493,187,494
493,494,492,194,493
493,495,492,236,495
494,495,492,336,494
494,495,492,476,494
494,495,492,626,494
494,493,490,799,495
494,495,492,859,495
494,495,493,828,495
493,495,493,674,496
493,497,493,470,494
493,496,494,308,495
493,495,493,210,494
493,496,492,183,493
493,496,493,207,493
493,494,493,276,493
494,494,492,393,494
494,495,492,541,494
494,495,492,705,494
494,495,492,845,494
494,494,492,851,495
494,496,492,783,495
493,496,493,622,495
493,496,493,452,495
493,496,493,293,494
493,496,493,175,495
493,494,492,174,494
494,494,491,213,493
494,495,492,337,494
494,495,492,495,494
494,495,491,641,494
494,495,491,766,495
494,496,492,839,495
493,495,491,814,495
493,495,492,701,496
493,496,494,532,495
493,495,494,369,495
493,495,493,222,495
493,496,492,151,494
493,496,492,178,494
493,495,492,247,494
494,494,492,398,495
494,495,492,552,494
494,493,491,697,494
493,495,491,802,495
494,494,493,828,495
494,495,492,776,496
493,496,492,628,495
493,496,493,455,496
493,496,493,297,495
493,495,493,174,495
493,495,494,159,493
493,495,493,195,494
493,494,492,306,494
494,494,491,466,493
494,494,490,617,493
494,494,491,747,495
494,496,490,828,495
493,494,492,815,494
493,496,492,719,495
493,495,493,551,495
493,495,493,386,495
493,495,493,237,494
493,496,492,151,495
493,494,492,172,495
493,495,492,229,494
494,494,491,376,494
494,495,493,532,493
494,495,492,678,494
494,494,492,786,494
493,493,492,830,495
494,496,492,792,495
493,496,494,650,496
493,494,492,480,495
493,496,493,318,495
493,496,493,187,494
493,495,493,155,493
493,495,493,189,493
494,494,493,285,494
494,494,493,444,494
494,494,492,595,494
494,493,492,731,494
494,495,492,827,494
494,494,492,819,495
494,495,491,741,495
493,496,493,578,496
493,496,494,412,494
493,495,494,255,495
493,495,492,155,494
493,494,493,169,493
493,496,494,220,493
493,494,493,352,494
493,495,491,512,494
494,495,492,659,494
494,494,492,775,495
494,496,493,832,495
494,494,491,803,495
493,496,493,675,495
493,495,493,502,495
493,496,494,342,494
493,495,493,201,494
493,494,494,152,493
493,494,492,184,492
493,495,493,265,494
494,494,491,422,494
494,495,491,575,494
494,494,491,714,494
494,495,491,814,494
494,495,492,822,495
494,495,492,758,495
493,495,492,600,495
493,496,493,431,495
493,495,493,276,495
493,495,493,160,493
493,496,493,164,493
493,496,491,203,493
494,495,492,330,493
493,494,492,491,494
494,494,491,638,494
494,495,492,761,494
494,495,492,834,494
493,495,492,810,494
493,495,493,696,496
493,495,493,527,495
493,495,493,365,494
493,496,492,219,494
493,496,493,152,493
493,495,493,178,494
494,495,491,247,494
494,495,492,397,494
494,494,492,550,495
494,494,492,695,494
494,494,492,803,495
494,496,492,824,495
494,495,493,774,496
493,496,494,625,495
493,496,494,455,494
493,496,493,294,494
493,495,495,172,493
493,495,492,159,495
493,494,493,196,493
493,494,493,307,493
494,495,492,465,494
494,494,493,616,494
494,494,491,745,494
494,494,491,831,493
494,495,492,815,494
494,495,492,720,495
493,496,493,551,495
493,496,493,384,495
493,496,492,234,495
493,496,493,154,493
493,496,492,173,493
493,496,491,231,493
494,494,492,375,493
494,494,493,532,494
494,494,493,679,494
494,494,492,792,493
494,494,492,829,494
493,495,493,791,495
493,495,493,649,495
493,495,493,477,496
493,496,494,315,496
493,495,493,185,494
493,495,493,157,494
493,494,494,191,493
494,496,493,288,493
494,494,491,444,494
494,494,491,594,493
494,494,492,730,494
494,493,492,827,494
493,494,492,821,496
494,495,492,740,495
493,496,493,574,495
493,495,494,409,495
493,495,493,254,493
493,495,493,157,493
493,495,492,169,494
493,495,493,219,494
493,494,493,352,493
494,494,492,511,494
494,494,492,657,494
494,495,492,770,493
494,495,492,832,494
493,493,492,803,495
494,495,493,672,496
493,495,494,501,495
493,496,493,339,495
493,496,493,199,494
493,495,494,154,493
493,494,492,185,495
494,495,492,267,494
493,495,492,422,495
494,494,492,575,495
494,494,492,715,494
494,494,492,819,495
494,495,491,822,495
493,496,493,759,495
493,495,492,600,496
493,495,493,431,495
493,495,495,272,495
493,495,494,159,493
493,495,493,164,493
493,494,495,205,493
494,495,492,330,494
494,494,492,489,494
494,494,491,637,494
494,493,491,760,495
494,495,492,833,495
494,495,492,811,494
493,495,494,698,495
493,496,493,523,495
493,496,493,362,494
493,497,493,217,495
493,495,493,152,494
493,495,494,181,492
493,495,493,250,494
494,494,491,399,494
494,494,492,553,494
494,494,491,697,494
494,493,492,802,495
493,495,493,827,496
494,496,494,774,496
493,496,493,622,494
493,496,493,452,493
493,495,494,294,494
493,495,494,170,493
493,496,492,161,494
494,493,493,197,494
493,495,492,310,494
494,495,493,469,493
494,494,491,617,494
494,495,491,748,494
494,495,493,832,496
494,495,494,816,493
494,495,492,719,495
493,495,494,551,494
493,495,493,384,495
493,495,494,233,495
493,495,493,153,493
493,496,492,174,493
493,495,493,235,492
494,495,493,374,493
494,493,493,530,492
494,494,491,675,494
494,494,492,792,495
494,496,492,830,495
493,495,493,792,494
493,496,494,650,494
493,496,494,477,494
493,496,494,314,494
493,495,494,183,494
493,494,494,158,493
493,495,494,191,494
494,494,492,288,494
494,494,492,444,494
494,494,492,595,494
494,495,491,733,494
493,493,490,827,495
494,495,492,818,495
494,495,492,740,497
493,495,494,573,496
493,495,493,407,494
493,496,494,252,494
493,494,492,157,493
493,495,494,169,494
494,494,493,221,495
494,495,491,353,494
494,494,492,512,494
494,495,491,659,494
494,494,492,771,494
494,494,491,831,495
494,494,492,803,495
493,495,493,672,496
493,497,492,497,496
493,496,495,337,493
493,497,492,196,495
494,494,495,156,493
493,494,495,187,493
494,495,492,268,494
494,494,492,423,493
494,495,491,577,493
494,494,492,715,494
494,495,491,821,494
494,494,492,823,495
494,494,493,758,496
493,496,493,598,494
493,496,493,431,494
493,495,492,271,495
493,494,494,158,493
493,494,493,164,494
493,496,492,206,493
493,495,493,331,493
494,494,492,491,494
494,495,492,638,494
494,494,492,761,492
494,495,492,833,495
494,494,492,809,495
493,495,493,696,495
493,496,492,524,495
493,496,493,361,495
493,495,493,215,494
493,495,494,156,495
493,494,492,180,495
494,495,493,250,495
494,494,492,400,494
494,494,491,554,494
494,494,492,699,495
494,495,494,805,495
494,494,491,826,495
494,495,493,774,495
493,495,493,622,495
493,495,494,450,494
493,494,494,291,495
493,494,493,169,494
493,497,492,162,493
493,496,493,195,493
494,494,491,311,493
494,494,493,469,495
494,495,492,618,494
494,493,493,749,494
494,494,491,833,495
494,495,492,815,496
493,495,492,719,495
493,495,494,547,496
493,495,494,382,494
493,495,494,233,494
493,495,492,155,494
493,495,492,173,493
494,493,492,234,494
494,494,491,379,494
494,495,493,534,494
494,493,492,680,496
494,493,491,793,495
494,495,492,829,495
494,495,492,791,494
493,495,493,646,494
493,495,493,475,493
493,494,494,314,495
493,496,494,183,494
493,495,493,158,493
493,494,494,192,493
494,495,492,289,494
494,494,492,446,494
494,493,492,597,494
494,495,492,733,495
494,494,492,830,494
494,493,492,820,494
494,495,493,738,495
493,496,494,572,496
493,496,494,407,496
493,495,493,251,494
493,495,494,158,494
493,495,493,169,493
493,494,492,222,493
494,494,492,356,493
494,494,492,514,494
494,494,493,663,493
494,494,493,777,496
494,494,492,832,495
494,494,493,801,495
493,495,494,671,494
493,496,492,498,495
493,496,493,336,495
493,495,494,198,494
493,495,493,156,493
494,496,493,183,494
494,493,491,269,494
494,494,492,426,494
494,495,493,579,494
494,493,491,716,494
494,494,492,821,494
494,494,493,824,495
494,495,493,757,496
493,495,493,596,495
493,495,494,428,494
493,496,495,270,494
493,495,494,158,494
493,494,492,166,494
493,495,494,209,494
494,493,492,333,494
494,493,492,493,493
494,493,492,640,493
494,494,492,761,494
494,494,492,834,494
494,496,492,808,495
494,496,492,693,496
493,494,493,521,496
493,495,495,361,494
493,496,493,214,494
493,496,495,153,495
493,494,492,177,494
493,494,492,252,494
493,494,492,402,493
494,494,493,557,494
494,494,492,699,494
494,493,492,806,494
494,494,494,826,494
494,494,493,773,495
493,496,493,622,495
493,494,494,451,493
493,494,492,289,493
493,496,494,168,493
493,494,492,162,493
493,496,491,198,493
493,495,491,310,493
494,494,492,471,494
494,494,492,619,493
494,495,491,750,494
494,495,492,834,494
494,494,491,815,495
494,495,493,717,494
493,496,492,546,495
493,496,493,380,494
493,496,493,231,495
493,495,492,155,495
493,495,494,173,494
494,496,493,233,493
494,494,492,380,493
494,494,493,535,495
494,494,492,681,495
494,493,491,791,495
494,495,491,829,495
493,494,492,790,494
493,494,492,646,496
493,495,494,472,495
493,495,494,313,494
493,496,494,184,494
493,496,493,158,495
494,493,492,193,493
494,495,493,291,494
494,494,491,449,494
494,493,492,597,494
494,494,492,732,494
494,495,493,830,495
494,496,492,819,495
493,494,493,737,495
493,494,493,569,495
493,494,493,404,494
493,495,493,249,493
493,496,493,155,493
493,494,493,170,493
494,495,493,221,494
494,494,492,356,493
494,493,492,514,495
494,493,492,662,495
494,494,492,775,495
494,493,492,831,494
494,495,492,802,495
493,495,493,669,494
493,495,494,498,494
493,495,493,335,495
493,494,493,195,494
493,494,492,154,493
494,495,493,185,493
494,494,493,271,493
494,495,493,426,493
494,493,492,578,494
494,494,491,717,494
494,494,492,822,494
494,494,493,823,495
493,495,492,756,494
493,495,494,594,495
493,496,493,427,495
493,496,495,268,494
493,494,495,158,494
493,496,493,166,495
493,495,493,207,494
494,493,492,335,494
494,494,493,494,494
494,494,491,641,494
494,493,491,763,494
494,493,492,832,495
494,494,493,809,494
493,495,493,694,495
493,496,493,522,495
493,495,494,358,495
493,495,493,213,495
494,494,491,155,493
493,494,492,179,495
493,494,493,253,495
494,494,493,403,495
493,494,492,557,494
494,494,492,699,494
494,495,491,805,495
494,496,493,827,493
494,495,493,772,494
493,495,492,618,495
493,496,494,449,495
493,495,494,289,494
493,496,494,167,494
493,497,495,160,493
493,494,494,197,495
494,495,493,313,494
494,495,493,472,494
494,495,492,621,493
494,495,492,750,495
494,493,491,834,494
494,494,493,816,495
494,495,493,715,495
493,496,493,547,495
493,496,493,380,496
493,495,494,231,494
493,495,493,152,494
493,494,493,176,494
494,496,492,234,494
494,494,491,381,494
494,494,493,537,494
494,494,493,683,495
494,493,491,797,495
494,495,492,831,495
494,495,493,790,495
493,495,493,644,494
493,495,493,471,494
493,496,493,308,494
493,495,492,180,494
493,494,494,157,494
493,494,494,191,495
494,495,492,292,494
494,494,491,449,494
494,494,491,601,494
494,494,491,735,493
494,494,492,830,495
494,494,492,820,495
494,495,492,736,495
493,495,492,569,495
493,496,493,403,494
493,496,494,250,493
493,496,494,156,494
493,495,492,170,494
493,495,491,224,493
494,494,492,359,494
494,494,492,517,494
494,494,492,663,494
494,494,491,776,495
494,494,491,831,495
494,494,493,801,495
493,495,494,668,494
493,495,493,495,494
493,495,493,334,494
493,496,493,195,494
493,495,493,156,495
493,494,492,184,494
493,493,492,272,494
494,495,493,428,494
494,494,493,580,494
494,495,493,719,494
494,494,491,823,494
494,494,493,822,494
493,496,493,756,496
493,496,493,595,496
493,494,493,427,494
493,496,493,268,495
493,494,494,159,493
493,496,493,167,495
494,495,493,208,495
494,494,492,334,495
494,494,492,495,494
493,495,491,643,494
494,494,491,763,495
494,495,492,835,495
494,495,491,811,494
493,495,493,693,494
493,495,493,520,494
493,496,493,356,493
493,495,494,211,494
493,495,494,156,494
493,496,494,181,495
494,494,492,253,493
494,495,493,405,493
494,494,492,558,494
494,495,491,702,494
494,495,491,806,494
494,494,493,826,495
493,495,493,771,494
493,494,493,618,494
493,495,493,447,495
493,496,493,288,494
493,495,494,169,494
493,494,493,161,495
493,493,491,200,494
494,495,493,316,494
494,493,493,474,494
494,494,492,623,494
494,494,492,750,495
494,496,492,834,495
494,496,492,814,495
493,495,492,713,495
493,495,494,543,495
493,495,493,378,495
494,496,493,230,495
493,495,494,153,494
493,494,494,173,493
494,494,493,236,494
494,493,491,381,493
494,494,493,536,494
494,494,492,681,494
494,495,492,795,494
494,493,492,830,495
494,495,493,789,495
494,495,493,642,496
493,496,493,469,495
493,496,494,310,494
493,496,494,179,494
493,494,494,159,493
493,496,492,194,495
494,494,493,293,495
494,494,493,449,495
494,494,492,601,494
494,495,492,735,495
494,495,491,830,494
494,495,492,820,494
494,495,493,736,493
494,495,492,568,494
493,495,494,401,493
493,495,493,247,494
493,495,494,158,495
494,496,494,170,493
494,493,493,225,494
493,494,492,361,494
494,494,492,519,493
494,494,492,665,494
494,494,492,780,493
494,494,491,833,495
494,494,492,801,494
493,495,493,665,495
493,495,493,494,495
493,495,493,332,494
493,495,493,196,494
493,495,493,157,494
493,495,494,187,495
494,494,492,274,493
494,494,493,429,494
494,494,492,581,494
494,494,492,719,494
494,494,494,821,496
494,495,491,822,495
494,495,493,754,496
493,495,493,591,495
493,495,493,425,494
493,496,493,268,495
493,495,493,157,495
493,495,494,165,492
494,494,492,207,495
493,495,492,336,494
494,495,492,494,493
494,494,493,642,494
494,495,492,763,495
494,494,491,833,493
494,494,493,809,495
493,495,493,691,495
493,495,492,517,494
493,495,493,356,495
493,495,494,210,494
493,495,494,153,494
493,494,492,181,494
493,495,491,254,494
494,493,492,405,493
494,495,492,559,495
494,494,493,701,495
494,494,492,807,495
494,495,492,825,495
494,494,492,769,495
493,494,493,615,495
493,496,492,446,494
493,496,493,287,495
493,496,495,166,493
493,494,492,162,494
493,494,492,200,494
494,495,494,315,493
494,494,491,476,494
493,495,492,624,494
494,494,492,750,495
494,495,492,833,494
494,494,491,814,495
493,496,493,713,495
493,495,493,543,495
493,495,493,377,494
493,496,494,228,495
493,496,493,155,494
493,495,493,175,493
494,494,493,238,494
494,494,492,384,494
494,493,492,538,493
494,495,491,683,493
494,495,493,796,494
494,494,492,829,495
494,494,492,789,495
493,495,493,642,496
493,495,493,470,495
493,496,493,310,495
493,495,493,181,495
493,495,493,159,494
493,496,493,195,493
494,495,493,296,493
494,494,491,452,493
494,494,491,601,493
494,494,492,736,494
494,496,491,830,495
494,494,491,818,495
494,494,493,733,496
493,495,493,566,496
494,496,493,402,495
493,496,494,248,494
493,494,495,156,494
493,496,492,171,495
493,495,493,223,494
494,494,493,360,493
494,495,491,517,493
494,495,494,665,494
494,494,492,781,494
494,495,491,831,494
494,494,491,800,495
493,495,492,665,495
493,495,493,494,496
493,496,493,331,495
493,496,494,193,494
493,495,493,157,493
493,495,492,188,494
494,493,493,273,493
494,494,493,430,494
494,495,492,584,494
494,494,492,720,495
494,494,491,823,495
494,495,492,821,494
494,495,493,754,495
493,496,494,592,494
493,496,494,423,495
493,496,493,266,495
493,496,494,158,495
493,494,493,167,494
493,496,494,208,494
494,494,492,340,494
493,494,492,500,494
494,493,491,645,494
494,493,493,762,495
494,493,492,835,496
493,495,494,809,495
493,495,493,689,495
493,496,493,516,496
493,496,493,354,495
493,496,494,212,495
493,495,494,156,494
493,494,492,181,494
493,495,492,256,494
493,494,491,408,493
494,494,493,560,494
494,493,492,703,494
494,494,491,808,494
494,495,492,825,495
494,495,493,768,495
493,495,493,616,494
493,496,493,446,494
493,495,493,287,495
493,494,493,164,495
493,496,494,160,495
493,496,492,199,494
493,495,493,317,493
494,494,492,475,493
494,494,493,624,493
494,494,492,750,495
494,495,491,834,495
494,495,493,814,496
494,495,493,711,495
493,496,494,541,496
493,495,494,376,495
494,496,494,228,494
493,496,492,154,494
494,493,495,176,493
493,495,493,239,493
494,494,492,383,494
494,494,493,540,494
494,494,492,685,494
494,494,492,795,495
494,495,492,829,494
493,495,493,787,496
493,495,493,639,495
493,496,493,468,494
493,496,493,306,495
493,495,493,181,495
493,496,493,160,494
493,495,493,194,494
494,495,492,296,494
494,494,491,455,494
494,494,491,602,494
493,494,493,737,493
494,495,493,829,494
494,494,493,818,495
494,494,491,732,496
493,497,492,564,495
493,496,493,399,495
493,496,493,247,496
493,495,494,157,493
494,494,492,171,494
493,495,493,226,494
494,494,492,362,494
494,494,492,519,494
494,494,492,665,494
494,494,491,780,495
494,495,491,831,496
494,495,493,800,495
494,495,492,663,495
493,495,493,493,495
493,495,494,330,495
493,495,493,194,494
493,497,493,156,494
493,495,493,188,494
494,493,492,276,493
494,494,491,429,494
494,494,491,583,493
494,493,492,721,493
494,494,490,822,494
494,495,491,822,495
494,494,492,754,494
494,496,492,590,494
493,496,494,423,495
493,495,493,265,495
493,495,494,156,493
493,495,493,165,493
493,494,493,211,493
494,494,492,339,493
494,495,493,498,495
494,493,491,647,493
494,493,492,763,493
494,494,491,834,494
494,494,492,808,495
494,494,492,687,495
493,494,493,516,494
493,495,493,352,495
493,496,494,209,495
493,495,493,154,495
493,493,494,180,494
494,495,492,258,493
494,494,492,409,494
494,494,492,563,494
494,493,491,704,496
494,495,492,809,494
494,495,491,824,494
493,494,493,768,495
493,495,493,613,495
493,496,492,443,495
493,496,493,285,495
493,495,493,165,494
493,494,493,163,493
493,495,494,199,494
494,496,491,317,495
494,495,491,476,494
494,494,492,624,495
493,495,492,751,496
494,495,491,835,497
494,495,492,815,496
494,494,493,710,495
493,495,492,539,495
493,495,493,376,493
494,496,492,226,494
493,494,493,154,494
493,494,493,174,495
494,494,493,241,493
494,495,492,386,494
494,493,492,540,494
494,494,492,687,494
494,494,492,797,495
494,496,492,828,495
494,494,493,787,494
493,496,493,640,495
493,496,493,467,495
493,496,493,306,495
493,495,493,179,494
493,495,492,159,493
493,494,494,193,494
493,495,492,297,494
494,494,492,456,494
494,494,491,605,494
494,495,492,738,495
494,494,491,830,495
494,495,493,819,495
494,494,491,731,496
493,496,493,562,495
493,496,493,398,494
493,496,494,243,494
493,496,493,154,494
493,495,493,170,493
493,494,494,227,494
494,495,493,365,493
494,494,492,521,494
494,495,491,668,495
494,494,492,781,495
494,495,492,830,494
493,494,492,800,495
494,495,493,662,495
493,496,493,491,494
493,496,495,328,494
493,496,493,192,494
493,493,492,156,493
493,494,493,188,493
493,494,492,277,495
494,494,492,434,494
494,494,492,585,494
494,494,491,721,495
494,495,491,824,494
494,495,492,820,494
493,495,493,752,495
493,496,493,589,496
493,495,493,423,495
493,495,492,263,493
493,496,494,159,493
493,494,492,165,493
494,496,492,211,493
494,494,493,340,494
494,495,492,498,495
494,494,491,646,494
494,494,492,766,494
494,495,494,834,496
494,495,491,808,494
493,496,494,685,496
493,496,493,513,496
493,496,492,350,495
493,497,493,205,495
493,496,494,154,492
494,497,494,181,494
494,496,493,258,493
494,494,493,409,494
494,496,491,561,493
494,494,492,704,495
494,493,493,811,495
494,495,492,826,495
494,497,494,765,496
493,497,493,575,495
493,495,493,370,495
493,496,494,242,493
493,496,494,184,493
494,493,494,188,491
494,494,494,228,493
494,496,492,308,495
494,496,492,425,494
494,493,494,575,493
494,492,490,772,496
494,495,493,862,494
494,495,494,834,495
494,493,493,712,497
493,494,494,498,494
494,496,494,309,495
493,493,495,228,492
494,497,492,183,496
493,495,494,201,493
494,493,493,258,495
494,497,494,363,495
494,494,490,480,495
493,491,491,674,493
494,496,493,831,495
493,495,492,859,496
494,496,492,810,497
494,494,494,628,496
493,496,495,413,495
493,495,493,271,496
493,494,492,205,494
493,496,491,190,490
494,495,492,227,491
494,495,493,299,495
494,494,491,427,492
494,495,492,586,493
494,495,490,750,495
494,496,493,856,496
494,495,491,836,494
494,494,494,743,495
493,494,494,544,494
493,497,492,372,494
493,495,493,230,493
493,496,491,184,494
493,494,494,193,494
493,495,498,243,493
494,495,491,346,494
494,494,493,488,493
494,495,493,646,493
494,493,491,814,494
494,495,492,859,494
493,494,492,820,495
493,495,493,655,495
493,495,494,454,495
493,496,493,297,494
493,495,493,204,494
493,495,492,182,494
493,496,492,212,493
494,494,492,286,493
494,495,492,430,493
494,495,492,578,494
494,494,491,714,493
494,493,493,845,495
494,495,492,839,495
493,495,493,764,496
493,497,494,588,496
493,496,493,417,494
493,495,493,253,495
493,495,494,174,495
493,495,493,183,493
493,494,492,225,495
494,494,493,338,494
494,494,491,487,495
494,495,492,631,494
494,493,491,778,493
494,496,491,849,495
494,496,494,818,496
493,496,494,675,494
493,497,494,472,496
493,497,495,309,496
493,496,494,206,493
493,497,494,176,495
493,497,493,204,493
493,498,492,268,496
494,496,493,378,493
494,494,490,512,493
494,492,490,698,492
494,493,490,840,493
494,492,490,850,497
494,495,494,784,495
494,495,495,592,494
494,494,495,387,493
493,495,493,255,492
493,498,492,196,496
493,496,493,191,492
493,497,492,226,496
494,493,493,314,492
493,492,493,436,493
494,496,493,588,491
494,492,489,776,495
494,496,492,863,495
494,496,494,837,495
494,497,492,714,496
493,497,496,505,496
493,494,492,337,496
493,493,494,223,494
493,494,494,186,496
493,496,492,206,496
494,496,491,257,491
493,497,493,367,493
494,494,493,515,494
494,494,492,672,495
494,494,492,829,494
494,495,493,855,495
494,495,492,805,494
493,495,493,625,494
493,496,493,431,494
493,495,493,274,495
493,495,493,199,492
493,497,493,185,494
493,493,493,219,493
494,495,492,301,493
494,495,493,429,494
494,493,492,577,494
494,495,493,748,493
494,495,491,857,494
494,495,492,841,495
494,495,492,738,496
493,496,494,532,495
493,496,493,362,495
493,496,495,230,495
493,495,495,186,494
493,495,492,196,494
493,494,491,245,494
493,493,493,348,494
493,493,492,487,494
494,494,491,640,495
494,494,492,814,493
494,495,492,860,494
494,495,493,818,494
493,494,493,655,495
493,495,493,453,496
493,496,494,291,495
493,494,493,207,493
493,496,493,185,494
493,495,494,211,492
493,494,491,286,493
494,495,491,404,493
494,494,491,554,493
494,494,492,727,494
494,494,490,854,494
493,494,492,846,493
494,496,493,766,494
493,495,494,561,496
493,496,493,382,495
493,496,493,240,494
493,494,493,188,495
493,494,494,192,496
494,494,493,236,494
493,494,492,332,494
494,494,493,470,494
494,494,492,620,493
494,495,492,794,495
494,494,493,860,494
494,494,492,829,495
493,497,493,684,495
493,496,493,477,495
493,495,492,315,494
493,495,493,214,495
493,494,493,181,493
493,495,492,207,494
493,495,493,271,494
494,495,493,387,494
494,494,491,535,494
493,494,491,699,493
494,494,492,839,494
494,495,491,848,494
494,496,492,781,495
493,496,493,591,495
493,496,493,408,494
493,496,494,252,494
493,496,495,193,493
493,496,493,191,494
493,493,493,223,493
493,494,491,316,493
493,495,491,448,494
494,495,493,597,495
494,495,492,772,491
494,494,492,861,493
494,494,491,835,495
494,494,492,709,495
493,495,493,502,495
493,495,493,331,495
493,495,492,221,494
493,494,492,182,495
493,494,494,201,495
493,495,492,257,494
494,495,492,365,494
494,494,491,506,493
494,495,491,673,495
494,493,492,831,494
494,495,491,854,495
494,495,492,805,494
493,495,493,624,495
493,496,493,427,495
493,496,492,269,495
493,495,492,199,495
493,495,493,190,494
494,496,491,219,494
493,494,493,302,494
494,495,492,428,494
494,494,492,579,494
494,494,491,751,494
494,494,491,858,496
494,494,492,841,494
493,495,492,738,494
493,496,494,530,495
493,496,493,362,494
493,496,494,228,495
493,494,493,185,494
493,495,493,197,494
493,496,491,245,495
493,494,492,350,492
494,494,493,494,494
494,494,492,645,494
494,495,491,814,495
494,494,490,859,493
494,494,493,818,494
493,495,494,650,495
493,496,495,450,494
493,496,493,291,495
493,496,494,207,492
493,495,493,183,494
493,494,495,215,495
494,496,491,285,491
494,494,492,400,493
494,494,494,551,495
494,496,491,731,495
494,496,490,854,496
494,497,492,850,496
494,495,493,763,496
493,496,493,562,495
493,496,493,373,495
493,496,494,243,494
493,496,493,192,495
493,495,492,197,494
493,493,491,237,493
494,494,493,336,493
493,494,493,468,493
494,493,492,619,493
494,493,491,800,493
494,494,491,862,495
493,494,491,831,496
493,495,493,682,497
493,496,493,479,495
493,496,493,316,493
493,494,493,211,495
493,494,492,183,493
493,495,493,206,493
493,495,492,273,494
494,494,492,399,494
494,494,492,546,493
494,494,491,697,493
494,493,491,840,494
494,495,492,848,494
494,495,492,780,495
493,496,493,592,494
493,496,493,410,495
493,496,493,252,493
493,494,495,189,493
493,494,493,188,493
493,494,492,223,492
493,494,493,316,493
494,495,492,449,493
494,494,492,599,493
494,492,491,774,493
494,495,491,861,495
494,494,493,836,495
493,494,492,708,496
493,495,494,496,495
493,495,494,329,494
493,495,493,222,495
493,495,494,183,494
493,494,493,205,495
493,494,493,257,493
494,494,492,366,493
493,494,491,507,494
494,495,492,674,492
494,493,490,832,495
494,494,492,856,495
493,496,492,803,496
493,495,494,622,495
493,495,493,425,494
493,496,493,268,494
493,496,493,201,494
493,495,493,189,493
493,494,494,219,494
494,495,492,301,493
494,495,493,432,494
494,494,492,581,494
494,493,491,755,495
494,493,493,858,494
493,495,492,841,495
494,494,493,735,496
493,495,493,533,495
493,494,494,362,495
493,496,495,227,494
493,495,491,184,493
493,496,493,196,494
493,493,491,245,493
494,495,492,352,493
494,494,492,496,493
494,495,493,645,492
494,494,492,816,494
494,495,493,858,496
494,495,491,818,495
493,495,494,651,496
493,495,494,449,495
493,495,494,285,494
493,496,494,206,492
493,496,491,185,494
493,493,495,214,495
493,494,493,289,492
494,494,492,401,492
494,494,492,548,494
494,494,491,730,494
494,495,493,855,495
494,496,491,844,494
494,494,492,758,495
493,497,493,555,494
493,496,493,363,495
493,495,493,244,493
493,496,493,190,493
493,496,493,197,494
493,497,493,238,493
494,495,494,337,494
494,494,492,451,494
494,495,493,621,494
494,493,492,800,495
494,496,492,864,495
494,494,492,830,495
493,495,492,680,494
493,497,494,465,494
493,495,494,289,495
493,497,495,215,493
493,494,494,185,496
493,496,490,211,495
494,495,491,277,494
494,496,495,390,495
494,496,494,527,492
494,492,492,712,493
494,492,493,850,496
494,493,492,853,493
494,497,490,781,497
493,495,494,591,493
493,497,492,406,496
493,494,492,252,492
493,494,494,191,495
493,494,492,194,493
494,494,494,229,492
494,494,490,318,493
494,494,492,462,494
494,495,493,610,495
494,493,492,778,493
494,493,491,860,494
493,494,491,834,495
493,495,494,705,496
493,495,492,506,496
493,496,493,336,495
493,495,494,217,493
493,494,493,182,493
493,496,495,201,494
493,495,492,259,493
493,496,493,368,492
494,496,492,512,494
494,494,490,676,493
494,495,491,830,494
494,494,494,852,496
493,497,494,799,493
493,495,493,618,494
493,497,493,417,494
493,496,494,262,494
493,495,494,197,493
493,495,494,186,492
493,495,493,220,493
494,494,492,302,494
494,496,493,424,494
494,494,492,574,494
494,495,491,757,493
494,495,491,862,494
493,496,493,843,495
493,495,493,735,494
493,495,493,527,494
493,496,494,357,493
493,496,493,229,494
493,496,495,185,495
493,495,493,200,493
493,494,491,248,494
493,495,493,351,494
494,495,492,497,494
494,494,491,647,493
494,493,491,815,494
494,496,491,856,495
493,495,492,818,495
493,495,492,648,495
493,496,493,453,495
493,496,493,291,494
493,494,493,203,495
493,497,493,184,493
493,494,493,214,494
494,494,492,287,495
494,494,491,411,494
494,494,491,560,494
493,494,492,730,493
494,496,492,854,494
494,497,491,845,493
493,494,494,760,496
493,495,492,554,494
493,495,493,374,495
493,496,493,239,495
493,496,495,189,494
493,494,492,195,495
493,494,492,237,495
493,494,494,336,494
494,495,493,467,493
494,494,492,619,493
494,492,491,796,493
494,496,493,862,494
493,494,491,827,494
493,497,493,677,496
493,496,493,469,495
493,495,493,308,495
493,495,494,215,493
493,497,493,184,493
493,495,491,210,493
493,494,492,276,494
493,495,491,389,494
494,494,492,536,493
494,494,491,707,493
494,494,493,846,494
494,496,493,851,494
493,495,492,780,495
493,495,493,587,496
493,496,493,404,494
493,496,492,250,493
493,494,491,192,495
493,495,493,191,494
493,494,491,228,494
494,495,494,320,493
494,494,492,455,493
494,495,492,606,493
494,496,491,779,494
494,496,492,860,494
493,494,493,834,494
493,495,493,707,496
493,497,493,500,495
493,496,494,334,495
493,495,493,218,494
493,495,494,183,493
493,496,492,205,494
493,495,491,257,492
493,494,492,370,493
494,494,491,514,493
493,494,492,677,494
494,494,492,831,494
494,496,492,852,495
493,495,492,797,493
493,497,494,616,494
493,497,494,418,496
493,497,494,261,494
493,494,492,200,493
493,494,492,189,493
493,494,493,222,493
494,494,492,305,493
494,493,493,426,494
494,494,492,574,494
494,493,491,758,494
494,495,492,860,494
494,495,492,842,494
494,496,493,733,496
493,495,493,522,494
493,496,493,352,495
493,497,494,229,494
493,496,492,187,494
493,494,494,199,494
493,496,493,248,494
493,494,492,355,494
494,494,492,499,493
494,493,493,647,495
494,496,490,818,494
494,495,493,859,494
493,494,491,816,495
493,496,492,647,495
493,496,494,455,495
493,495,494,292,494
493,494,493,201,495
493,494,494,184,493
493,496,493,212,492
493,495,492,288,493
493,494,493,414,494
494,494,492,562,494
494,495,493,732,494
494,495,492,854,494
493,495,491,845,495
493,495,493,758,495
493,495,493,552,494
493,496,493,377,493
493,496,493,236,494
493,496,492,186,493
493,496,493,193,493
493,494,493,237,494
493,494,492,336,493
493,495,493,472,494
494,494,491,622,494
494,495,491,801,495
494,494,492,860,494
493,494,492,827,495
493,496,493,674,494
493,497,493,468,494
493,494,492,304,495
493,494,492,212,496
493,496,494,185,494
493,496,493,210,494
493,493,491,278,494
493,494,491,390,494
494,494,491,534,493
494,492,493,710,494
494,493,492,845,494
494,495,493,851,495
494,496,494,780,494
493,496,492,584,493
493,495,492,395,493
493,494,492,251,494
493,497,493,193,494
493,494,493,194,492
493,495,491,229,493
493,496,491,324,493
494,495,492,449,493
494,493,491,602,493
494,494,492,785,494
494,492,492,862,493
494,494,491,836,493
493,496,492,706,496
493,495,494,495,494
493,495,492,330,494
493,494,492,222,495
493,496,493,185,493
494,495,492,206,493
493,495,492,263,493
494,495,491,373,494
494,494,493,513,495
494,493,490,684,495
494,495,492,833,494
494,493,491,854,494
493,496,493,796,493
493,496,491,617,494
493,497,494,420,494
493,494,493,261,494
493,496,493,196,494
493,496,493,188,494
493,493,492,220,493
494,495,491,307,493
494,494,491,431,493
494,494,491,581,494
493,494,493,758,493
494,494,490,861,496
494,496,493,842,494
493,497,493,730,494
493,495,494,523,494
493,495,493,349,495
493,495,493,228,494
493,495,494,184,495
493,494,492,199,495
493,496,493,249,493
494,495,493,354,493
494,494,491,494,494
494,494,492,653,495
494,494,492,820,493
494,494,492,859,494
493,495,492,817,495
493,495,492,646,495
493,495,493,444,494
493,496,493,285,494
493,494,492,204,494
493,493,491,184,493
493,496,492,215,494
493,494,493,292,493
494,495,492,413,494
494,495,491,562,493
494,493,491,735,495
494,495,492,855,494
493,495,492,845,494
494,494,492,756,495
493,496,493,554,495
493,496,493,379,495
493,496,493,237,495
493,494,492,188,495
493,495,494,193,494
493,495,492,239,494
494,495,491,335,494
494,494,491,477,493
494,494,492,626,492
494,494,492,801,493
494,495,490,860,494
494,494,492,827,495
493,495,493,673,494
493,496,493,468,495
493,496,493,307,494
493,495,493,208,494
493,496,493,181,493
493,496,493,207,494
493,494,492,273,495
494,495,492,390,493
494,494,493,541,494
494,494,492,711,493
494,494,492,845,494
493,496,494,847,495
494,494,493,776,495
493,495,492,581,495
493,495,493,395,494
493,496,493,246,493
493,494,494,190,495
493,495,492,190,493
493,494,494,228,494
494,496,491,322,494
493,494,492,455,494
493,494,493,606,494
494,493,491,783,494
494,493,491,862,495
494,494,491,835,495
493,495,493,703,496
493,496,493,493,496
493,496,494,330,495
493,495,494,218,494
493,495,494,182,494
493,493,493,203,494
493,495,493,260,493
493,495,493,372,494
494,494,492,518,494
494,494,491,681,493
494,494,491,832,495
494,495,492,853,494
493,494,493,795,494
493,494,493,611,495
493,495,494,421,494
493,496,493,265,495
493,494,493,195,495
493,494,493,188,494
493,494,494,220,495
493,495,493,306,494
493,495,492,433,494
494,494,491,584,493
494,493,492,760,493
494,495,492,858,494
494,496,491,840,495
493,494,492,729,494
493,497,493,521,494
493,496,493,350,495
493,495,493,226,493
493,495,494,182,493
493,495,493,199,492
493,493,493,249,493
494,494,492,354,493
494,495,492,497,494
493,495,492,655,493
494,495,491,821,494
493,495,493,857,494
493,494,492,814,495
493,496,492,643,495
493,496,493,443,495
493,496,493,283,495
493,495,493,203,495
493,495,492,185,493
493,495,494,213,494
493,496,492,291,494
494,494,492,412,493
493,495,492,561,493
494,495,493,736,494
494,495,492,853,494
494,495,492,845,495
493,496,492,753,496
493,496,493,548,495
493,496,493,375,494
493,496,493,237,494
493,496,494,188,493
493,494,493,194,493
493,495,492,240,493
493,494,492,339,494
493,495,492,477,493
494,495,492,628,495
494,494,492,799,494
494,495,491,860,495
493,494,492,826,495
493,496,492,672,496
493,496,493,468,494
494,497,494,308,494
493,496,492,209,493
493,494,493,184,494
493,494,492,210,492
493,495,492,276,492
493,495,492,394,493
494,495,491,543,494
494,495,491,712,494
494,495,492,847,494
494,494,493,848,495
493,495,492,775,495
493,495,493,580,495
493,495,493,397,494
493,496,494,245,493
493,493,493,189,494
493,495,492,190,493
493,496,493,228,493
493,495,492,322,493
494,495,492,456,493
494,493,492,605,494
494,493,492,783,494
494,494,492,861,494
494,495,492,833,494
493,495,493,700,494
493,496,494,493,495
493,496,493,328,494
493,495,493,216,494
493,494,493,181,494
493,494,493,203,493
493,495,493,263,494
494,494,491,373,494
494,494,492,519,493
494,494,493,681,493
494,495,490,832,494
494,496,492,854,495
493,495,492,794,495
493,495,493,610,495
493,497,492,418,494
493,495,494,262,494
493,495,493,197,495
493,495,492,188,493
493,495,493,220,494
493,494,492,306,494
493,495,493,437,494
494,494,491,586,494
494,494,492,760,494
493,494,492,858,495
493,494,492,840,494
493,495,492,728,495
493,497,494,522,495
493,495,493,353,494
493,496,493,225,494
493,495,492,183,495
493,495,493,198,494
493,496,494,251,494
494,494,492,357,493
494,495,492,501,494
494,494,491,654,494
494,493,492,823,494
494,494,492,856,495
494,494,490,814,493
493,494,492,641,494
493,496,493,444,494
493,496,493,284,494
493,495,495,203,494
493,495,494,186,494
494,494,492,214,493
493,493,493,292,495
494,494,492,413,494
493,494,492,561,494
494,493,491,737,495
494,495,492,854,495
494,495,492,844,494
494,494,493,754,496
493,497,492,548,494
493,495,492,370,494
493,495,493,235,494
493,494,492,189,493
493,496,493,196,495
493,494,492,241,495
493,495,492,340,494
494,494,491,477,493
494,494,491,629,494
494,495,491,802,495
494,495,492,859,495
494,496,493,826,495
493,496,494,670,496
493,496,494,465,495
493,496,494,303,495
493,496,494,210,492
493,496,493,183,493
493,494,492,208,493
493,494,492,278,493
494,494,492,396,494
494,494,492,545,494
494,494,491,710,495
494,494,492,847,495
494,495,492,848,495
493,494,492,774,495
493,496,493,578,495
493,495,493,400,493
493,496,493,244,494
493,495,494,190,494
493,495,492,191,494
493,495,494,228,493
494,496,492,321,493
493,495,492,459,493
494,495,491,609,493
494,495,490,783,493
493,495,492,861,494
493,494,492,833,496
493,496,493,699,494
493,496,493,494,494
493,495,493,329,495
493,496,494,215,493
493,496,494,182,492
493,497,493,204,494
494,495,493,263,494
494,494,492,375,494
494,494,492,518,494
494,494,492,686,493
494,494,490,834,495
494,494,493,853,496
493,495,493,794,496
493,496,493,609,496
493,495,494,413,494
493,495,493,258,493
493,495,493,197,493
493,495,493,187,494
493,495,495,223,493
494,496,494,307,493
494,496,491,433,493
494,494,492,586,494
494,495,492,762,494
494,494,492,860,495
494,495,492,839,493
493,496,493,728,495
493,495,493,516,495
493,495,493,346,495
493,496,492,227,495
493,496,494,184,493
493,495,494,201,494
494,495,493,250,494
494,495,492,358,494
494,494,492,500,493
494,495,493,656,495
494,494,491,823,494
494,494,491,857,495
493,495,492,813,495
493,496,494,639,495
493,495,493,444,494
493,496,493,287,495
493,495,493,201,495
493,494,494,186,493
493,494,491,216,493
494,495,493,292,493
494,495,493,419,493
494,494,492,567,494
494,494,490,735,493
494,495,491,854,494
494,495,492,842,494
493,496,495,750,494
493,497,492,548,496
493,496,492,372,495
493,495,494,233,493
493,496,494,186,495
493,495,493,195,494
494,494,493,238,494
494,495,492,338,493
494,494,492,476,494
494,494,491,627,493
494,493,491,803,494
494,494,492,858,495
494,495,492,825,495
493,495,493,669,495
493,496,493,462,494
493,496,493,299,493
493,495,493,209,494
493,496,494,183,494
493,495,491,209,494
493,496,492,279,494
494,495,492,394,494
494,494,492,543,494
494,494,492,715,495
494,494,491,847,495
493,494,492,849,495
493,495,493,774,495
493,496,493,575,495
493,496,492,394,494
493,496,493,246,494
493,496,493,188,493
493,495,494,192,493
493,494,494,230,494
494,494,493,325,493
494,495,492,464,493
494,494,492,613,494
494,494,491,782,494
494,494,493,861,495
494,496,494,832,495
493,495,493,697,494
493,496,493,493,495
493,495,493,329,495
493,495,493,216,496
493,495,494,179,496
493,494,492,204,494
493,495,492,264,493
494,495,491,376,493
494,494,491,522,493
494,495,491,684,494
494,494,491,833,494
494,494,492,851,494
494,495,492,790,496
494,496,493,606,495
493,496,493,414,495
493,495,494,256,494
493,496,493,195,492
493,495,494,189,495
493,494,492,221,494
494,494,493,308,494
494,494,492,436,494
494,494,491,586,493
494,494,491,763,494
494,493,492,860,495
494,494,491,839,495
493,496,493,725,495
493,495,493,515,494
493,496,494,345,494
493,495,493,223,493
493,495,494,184,493
493,495,493,201,494
493,494,492,252,493
493,494,491,359,493
494,494,491,503,494
494,494,492,660,493
494,493,491,824,495
494,495,492,857,494
494,496,492,813,494
493,494,493,637,495
493,495,494,442,495
493,495,492,283,494
493,494,493,202,494
493,496,492,184,494
493,494,493,214,493
493,494,492,294,494
494,494,492,422,494
494,494,493,570,494
494,493,492,740,494
494,493,490,855,494
494,494,493,844,494
494,494,493,750,496
493,496,493,545,495
493,496,493,374,496
493,495,492,233,493
493,495,492,185,494
493,494,493,196,493
494,495,492,240,493
494,495,492,339,492
494,493,492,481,493
494,493,492,632,494
494,493,492,806,494
494,494,493,860,493
494,494,493,823,495
493,494,493,664,494
493,496,493,464,494
493,495,493,302,494
493,495,494,207,493
493,494,492,184,494
493,494,493,210,493
494,496,491,278,494
494,494,493,395,493
493,494,492,544,494
494,494,491,716,493
494,494,491,849,494
494,494,493,847,494
494,494,494,772,495
493,495,492,574,495
493,495,493,393,495
493,494,493,244,493
493,495,492,189,493
493,494,492,192,493
493,496,492,231,493
494,493,492,326,494
494,494,492,462,493
494,494,492,613,494
494,493,493,786,494
494,493,491,859,494
493,495,492,832,495
493,495,493,696,495
493,495,494,489,494
493,495,494,325,494
493,496,493,216,494
493,494,494,183,493
493,494,492,203,493
494,495,494,266,494
493,495,492,379,494
494,494,493,525,492
494,494,491,687,494
494,493,491,832,495
494,495,492,851,495
494,494,492,789,495
493,495,493,602,494
493,495,494,417,494
493,495,493,260,494
493,495,493,195,493
493,496,494,188,494
493,495,493,221,493
494,494,492,309,494
494,493,492,438,493
494,494,492,590,494
494,493,492,762,493
494,493,492,859,493
494,494,491,839,495
493,494,492,721,495
493,494,493,514,495
493,496,494,346,494
493,495,493,222,493
493,495,495,182,495
493,496,492,200,494
494,494,492,250,493
494,495,492,358,494
494,495,492,503,494
494,494,492,659,494
494,494,491,826,493
494,495,493,857,495
494,495,492,810,495
493,495,494,636,494
493,495,493,437,494
493,496,493,277,494
493,495,493,202,494
493,496,493,186,494
494,494,492,216,494
493,494,493,293,494
494,495,493,419,493
494,494,491,567,494
494,494,491,742,494
494,494,492,857,495
494,493,493,843,495
494,494,492,750,495
493,495,493,543,494
493,496,493,369,494
493,495,493,234,493
493,494,495,186,494
494,495,492,194,493
494,497,491,241,494
494,496,493,342,494
494,494,492,481,494
494,495,493,633,492
494,495,492,806,493
494,495,493,859,494
494,494,492,823,494
493,495,491,661,495
493,496,494,458,495
493,496,494,298,494
493,495,494,209,496
493,494,494,183,495
493,495,493,212,493
494,495,493,280,493
494,494,492,396,494
494,494,492,545,494
494,494,492,718,494
494,493,491,852,495
494,496,493,849,493
494,495,492,772,495
493,496,492,571,494
493,496,494,391,494
493,496,495,246,494
493,494,494,189,494
493,494,494,195,495
493,493,493,230,495
494,495,493,327,492
494,495,493,463,494
494,494,492,614,495
494,493,490,788,494
494,493,492,863,493
494,496,494,834,495
493,496,493,693,494
493,497,492,486,494
493,495,493,323,495
493,495,492,213,492
493,494,492,182,493
493,496,494,205,493
493,496,492,265,493
494,495,493,377,493
494,494,492,522,494
494,495,493,691,495
494,494,491,837,496
494,496,491,853,495
493,495,491,787,496
493,495,493,600,496
494,498,494,406,494
493,498,493,258,495
493,493,496,195,495
493,497,493,187,493
493,494,492,223,492
494,497,494,311,492
493,495,491,431,493
494,495,493,580,494
494,494,490,768,492
494,496,491,861,496
494,493,491,841,495
494,496,493,724,495
493,495,494,509,494
493,496,493,333,494
493,495,493,228,493
493,497,494,187,492
493,494,493,203,492
493,495,491,257,495
494,495,494,360,492
494,493,491,500,494
494,493,492,665,493
494,495,490,829,493
494,494,492,857,494
494,495,492,812,495
493,495,492,635,496
493,496,494,440,494
493,496,493,282,494
493,495,493,203,495
493,494,494,186,493
493,496,492,218,492
493,495,493,295,493
493,494,492,429,495
494,494,491,576,493
494,494,492,743,493
494,495,491,854,494
494,495,492,842,494
493,495,493,745,495
493,496,494,549,495
493,495,493,374,494
493,495,493,230,493
493,494,495,185,493
493,495,493,195,494
493,495,492,240,494
494,494,492,341,493
494,494,492,484,494
494,494,492,636,493
494,493,492,806,493
494,495,491,858,494
494,494,492,821,495
493,495,492,661,495
493,496,493,457,495
493,496,494,293,493
493,495,494,209,493
493,496,491,185,494
493,494,493,211,494
493,495,493,282,493
494,495,493,397,494
494,494,493,546,493
494,494,492,721,493
494,493,492,852,495
494,495,493,849,495
493,495,493,770,496
493,495,494,571,496
493,495,493,389,496
493,496,493,245,494
493,496,491,190,493
494,494,494,193,493
493,497,492,233,493
494,494,492,328,493
494,494,492,466,494
494,494,492,617,493
494,495,492,788,494
494,495,493,862,494
493,495,492,831,493
494,494,492,692,496
493,496,493,490,495
493,495,494,327,494
493,496,493,213,494
493,494,495,181,494
493,495,493,206,492
493,494,492,265,493
493,495,492,380,493
494,494,491,528,494
494,494,492,688,495
494,493,492,836,494
494,495,491,851,495
493,496,493,786,495
493,496,493,600,496
493,496,494,412,495
493,496,493,254,494
493,495,493,190,495
493,494,494,189,494
493,494,492,221,495
494,495,493,310,494
494,494,492,439,493
494,494,492,591,494
494,494,491,769,493
494,494,492,860,494
494,495,492,838,495
493,494,492,721,496
493,496,494,510,496
493,495,494,339,494
493,494,493,223,494
493,495,494,184,494
493,494,493,200,494
493,496,492,253,494
493,495,492,361,493
494,493,492,506,493
494,494,490,663,494
494,495,492,826,494
494,495,492,855,494
494,495,493,809,495
493,496,493,631,496
493,495,494,434,495
493,496,494,278,494
493,496,493,203,493
493,494,492,187,494
493,495,492,215,494
493,494,492,297,493
494,494,492,423,494
494,494,492,570,494
494,494,492,742,493
494,494,492,855,495
493,495,492,843,494
494,496,492,745,495
493,495,493,539,494
493,495,492,369,494
493,495,493,232,494
493,495,494,184,493
493,495,493,197,495
493,496,493,244,493
494,494,493,343,494
493,495,492,486,494
494,494,492,639,494
494,495,490,810,494
494,495,492,858,494
493,495,493,823,495
493,496,492,661,495
493,496,493,460,494
493,496,494,298,494
493,494,494,205,493
493,495,494,184,493
493,497,491,212,493
493,495,492,281,494
493,496,493,401,494
494,495,491,551,494
494,495,491,722,493
494,494,492,851,494
494,495,493,848,496
494,496,494,772,496
493,497,492,566,494
493,498,492,386,494
493,496,494,242,495
493,496,495,189,496
493,496,494,194,495
493,494,491,233,493
493,495,493,329,493
493,494,492,459,493
494,495,492,609,492
494,494,492,790,494
494,496,492,861,493
494,496,493,831,493
494,495,492,689,496
493,497,493,477,496
493,497,493,313,494
493,495,494,216,495
493,496,495,186,494
493,495,491,208,494
494,494,494,270,493
494,495,491,382,494
494,494,492,521,495
494,494,491,693,493
494,494,493,840,493
494,496,491,854,494
494,497,491,788,494
493,497,494,600,495
494,495,492,406,494
493,495,493,255,493
493,495,492,196,494
493,496,493,190,495
493,494,491,226,492
494,496,494,315,494
494,495,493,442,495
494,493,491,591,495
494,496,490,771,494
494,495,493,862,495
494,496,491,839,493
493,496,494,718,496
493,495,494,508,494
493,497,494,338,494
493,497,494,223,494
493,497,493,181,495
493,497,491,202,495
493,495,491,254,495
493,496,491,362,494
494,494,492,501,493
494,494,492,669,493
494,493,493,829,495
494,494,492,855,494
493,493,493,810,495
493,495,492,630,495
493,496,494,428,496
493,497,493,269,495
493,495,491,203,494
493,497,492,188,494
493,494,492,219,494
493,497,492,299,493
494,494,491,418,493
494,495,493,566,494
494,496,493,750,492
494,495,492,857,495
494,496,493,843,495
494,496,493,746,497
493,496,494,536,495
493,495,493,360,496
493,495,493,234,493
493,497,493,189,494
494,497,493,198,494
494,496,492,246,492
494,497,492,349,493
494,494,491,482,493
494,494,492,635,493
494,495,492,811,495
494,495,492,860,494
494,495,492,822,494
493,497,496,660,494
493,496,495,455,496
493,496,493,294,495
493,497,495,207,493
493,497,494,183,492
493,495,493,211,495
493,494,492,283,495
493,496,494,398,494
494,494,493,547,494
494,494,492,724,493
494,495,490,854,495
494,495,492,850,494
494,494,494,770,493
493,497,494,568,494
493,497,494,385,494
493,496,495,245,493
493,495,494,191,495
493,497,492,194,495
493,495,493,235,494
493,496,494,329,493
494,495,492,463,492
494,495,493,614,494
494,493,491,794,493
494,493,491,862,496
494,496,491,832,493
493,497,493,689,494
493,495,494,479,495
493,496,493,315,495
493,494,493,215,495
493,495,491,183,494
493,496,494,209,495
493,497,494,270,494
494,494,492,382,494
494,494,493,527,493
494,493,491,696,492
494,493,491,839,493
494,495,493,851,494
494,494,491,784,494
493,496,493,594,496
493,495,494,405,495
493,495,493,252,494
493,497,493,194,493
493,494,493,190,496
493,497,494,223,493
494,496,494,317,492
494,493,493,442,495
494,494,493,590,492
494,493,490,774,494
494,494,491,864,495
494,496,491,838,493
494,494,491,717,495
493,494,495,504,496
493,496,493,336,494
493,497,493,226,494
493,495,493,185,493
493,495,492,202,494
493,496,493,255,493
494,496,493,362,494
494,496,493,504,494
494,495,491,668,494
493,494,491,828,495
494,496,491,854,495
494,497,491,809,496
493,495,495,628,494
493,496,493,427,495
493,495,495,272,493
493,496,495,202,492
493,494,492,187,492
493,495,494,219,495
493,496,492,299,494
494,496,492,421,495
494,495,493,572,494
494,493,491,752,493
494,493,490,857,495
494,494,491,844,493
493,496,493,746,494
493,497,494,535,494
493,495,494,360,494
493,495,492,234,495
493,497,493,188,493
493,494,494,201,494
494,496,491,246,493
494,496,491,347,493
494,494,492,485,494
494,495,493,640,493
494,495,493,814,496
494,495,492,859,494
494,494,493,824,496
493,495,492,657,494
493,495,495,452,496
493,497,495,292,495
493,496,494,207,494
493,496,493,185,494
494,494,491,214,493
493,495,492,283,493
494,494,492,402,495
494,494,492,551,495
494,495,490,724,493
494,495,492,852,495
494,496,493,849,496
494,496,491,769,496
493,495,495,563,495
493,497,495,382,494
493,497,493,244,493
493,494,492,192,495
493,495,493,193,493
493,495,493,232,495
493,494,492,331,492
494,494,491,462,494
494,496,492,614,493
494,495,490,794,496
494,495,491,861,495
493,495,493,831,495
494,496,491,689,494
493,495,492,477,495
493,496,493,313,493
493,495,492,213,492
493,495,492,182,495
493,496,494,210,493
493,496,493,269,494
494,496,494,382,494
494,493,492,527,493
494,495,490,698,493
494,495,491,841,493
494,494,493,851,494
494,494,493,786,494
493,495,494,594,496
493,495,493,405,496
493,497,493,253,495
493,495,494,194,495
493,494,494,189,494
493,495,493,225,495
494,496,494,315,493
494,496,492,443,493
494,495,492,595,495
494,493,492,776,493
494,496,491,863,494
494,493,493,838,493
493,495,492,712,493
493,497,493,499,494
493,496,492,333,494
493,496,493,222,493
493,495,491,184,493
493,496,494,205,493
494,496,493,258,494
494,495,491,367,493
494,494,491,506,493
494,495,492,672,493
494,493,491,828,494
494,495,493,857,495
494,496,493,807,497
493,496,494,626,495
493,495,494,426,494
493,496,493,268,495
493,496,495,203,491
493,496,491,189,494
493,494,492,220,493
494,496,492,302,494
494,496,493,423,494
494,493,492,573,494
494,495,492,753,492
494,495,490,862,495
494,494,491,842,495
494,494,491,743,494
493,494,495,534,495
493,496,492,358,493
493,495,495,233,494
493,494,493,185,495
493,494,494,199,493
493,495,493,245,493
494,496,493,348,494
494,493,493,483,493
494,495,491,642,494
494,494,493,817,493
493,494,491,860,495
494,495,493,820,496
493,494,493,655,494
493,497,492,450,495
493,496,493,289,495
493,496,492,207,492
493,494,492,186,492
493,494,491,215,494
494,496,493,285,494
493,494,495,404,495
494,494,490,553,495
494,493,490,727,494
494,495,492,855,495
494,494,494,849,496
494,494,494,766,496
493,495,491,563,494
493,496,493,381,495
493,495,493,244,493
493,494,495,192,495
494,495,494,193,492
493,495,492,234,494
493,494,492,331,493
494,494,493,465,493
494,494,492,617,494
494,494,492,795,492
494,493,491,861,495
494,494,491,831,494
493,494,492,687,494
493,495,494,476,495
493,496,495,312,494
493,494,494,213,495
493,496,492,186,495
494,496,494,206,494
493,494,492,269,492
494,496,491,385,494
494,493,492,528,494
494,495,493,701,492
494,495,493,840,495
494,493,494,852,496
494,494,491,786,496
493,496,493,595,495
493,495,493,403,495
493,496,494,252,495
494,494,492,193,493
493,496,493,191,495
493,496,493,226,494
494,494,491,315,495
494,493,492,444,494
494,495,492,596,494
494,495,492,777,493
494,496,492,862,494
494,496,492,836,496
494,496,494,716,494
493,494,492,502,494
493,496,494,332,494
493,496,493,221,493
493,497,493,182,493
493,496,494,204,493
493,496,492,258,494
494,494,491,364,495
494,493,491,508,495
494,494,491,675,494
494,494,490,828,496
494,494,491,857,496
494,495,494,805,495
493,497,493,625,493
493,496,493,424,494
493,497,493,267,493
493,496,491,199,494
493,496,494,186,494
493,496,494,219,495
494,494,492,300,492
494,493,492,423,494
494,495,492,572,492
494,494,493,752,495
494,495,490,858,494
494,496,492,840,493
494,495,493,739,495
493,497,493,531,494
493,494,495,356,493
493,497,492,231,494
493,493,493,184,495
493,497,491,199,494
493,497,492,243,494
494,495,492,351,495
494,496,491,481,495
494,495,491,642,493
494,493,491,815,495
493,494,493,861,496
494,496,492,821,495
493,496,492,656,496
493,497,491,440,496
493,497,495,282,496
493,495,495,207,496
493,495,495,186,492
494,497,493,217,493
494,493,492,285,494
494,493,491,400,495
494,496,492,545,495
494,494,490,735,493
494,495,492,858,496
494,496,491,849,494
493,497,495,766,496
494,494,491,567,496
493,497,493,371,494
493,494,495,247,492
493,496,491,193,494
493,497,492,199,492
494,496,494,239,493
494,493,491,333,495
494,494,491,462,495
494,493,491,618,492
494,493,492,799,495
494,493,491,862,496
493,495,492,832,495
493,495,492,683,494
493,495,493,466,494
493,495,494,304,494
493,494,493,217,493
493,495,492,184,494
493,496,495,209,495
493,493,494,274,496
494,496,494,385,495
494,494,491,517,493
494,493,493,704,495
494,493,494,843,496
494,494,491,855,496
494,494,494,788,495
493,495,491,591,495
493,496,494,390,495
493,496,495,253,495
493,494,492,193,495
494,494,493,190,492
493,496,494,225,494
494,493,494,317,492
494,494,491,436,492
494,496,493,588,493
494,494,491,779,495
494,493,493,867,493
494,495,494,841,497
494,495,493,712,494
493,496,495,499,495
493,497,492,327,495
493,495,494,225,493
493,495,492,184,492
493,496,494,205,494
494,493,494,258,494
494,494,491,370,494
494,494,491,501,493
494,495,492,678,495
494,494,490,835,493
494,496,493,858,493
494,494,495,807,493
493,497,493,623,497
493,498,494,419,494
493,497,494,266,493
493,495,494,200,495
493,494,492,189,494
493,497,494,219,492
494,494,493,304,493
494,496,492,422,494
493,494,491,572,494
494,495,491,755,493
494,493,492,857,493
494,496,493,840,493
493,496,491,738,495
494,495,495,527,494
493,496,493,354,493
493,495,492,231,494
493,494,493,185,492
494,495,495,201,491
493,496,492,248,493
494,494,491,352,493
494,493,493,489,494
494,495,491,646,493
494,495,491,815,493
494,495,490,861,495
493,495,491,822,496
493,494,494,652,496
493,496,493,450,494
493,496,494,288,495
493,495,491,209,495
493,493,494,187,493
493,494,494,215,493
494,492,493,287,493
494,493,491,405,494
494,495,491,553,493
494,495,491,729,494
494,494,493,856,495
494,495,494,846,496
494,494,492,763,496
493,496,492,558,495
493,494,492,377,494
493,494,495,243,495
493,497,492,190,493
494,496,492,197,492
493,496,494,235,494
494,495,492,333,494
494,493,493,465,493
494,495,491,618,493
494,494,492,797,493
494,493,491,863,495
494,494,490,830,494
493,494,494,683,496
493,497,493,471,494
493,494,494,308,494
494,496,495,212,495
493,493,491,184,495
493,495,493,209,495
494,494,490,276,491
493,492,494,384,492
494,492,493,529,492
494,495,492,706,495
494,495,492,842,496
494,496,492,849,495
494,495,492,785,496
493,494,494,588,494
493,497,492,391,496
493,495,494,251,495
493,494,494,193,493
493,495,495,194,492
493,496,494,227,495
494,494,492,321,492
494,496,492,436,494
494,494,491,587,492
494,495,493,781,494
494,496,493,863,496
494,495,493,840,493
493,494,494,712,494
493,496,495,497,494
493,496,495,326,494
493,493,493,226,494
493,497,495,188,493
493,493,493,208,494
493,493,492,262,493
494,496,491,369,493
494,494,493,514,493
494,494,493,678,492
494,495,491,833,493
494,494,493,857,494
494,495,491,802,495
493,496,492,620,494
493,495,492,431,495
493,496,494,272,495
493,494,492,199,492
493,496,495,188,492
493,493,495,217,494
494,493,492,302,494
494,494,492,429,492
494,494,492,579,494
494,492,492,754,494
494,493,490,859,493
494,496,493,842,495
494,496,491,735,496
493,497,495,525,493
493,496,494,351,494
493,497,492,229,494
493,496,495,186,493
493,496,492,199,493
493,494,494,248,494
493,493,492,350,492
494,493,493,485,493
494,493,492,651,493
494,496,490,821,495
494,496,491,859,494
494,494,493,818,496
493,494,493,651,495
493,495,494,443,493
493,495,494,282,495
493,494,494,207,495
493,496,494,186,493
493,493,493,214,494
493,494,492,291,493
494,493,492,407,495
493,494,492,557,494
494,493,490,735,493
494,495,492,856,492
494,496,493,845,495
494,495,492,760,494
493,496,493,557,496
494,495,495,380,494
493,496,493,239,494
493,494,494,190,495
493,494,494,196,494
493,495,492,238,495
494,494,492,335,493
494,496,492,471,493
493,493,493,624,493
494,494,491,797,495
494,496,491,862,493
493,494,494,829,495
493,494,492,679,496
493,497,494,471,494
493,496,494,308,493
493,496,493,213,493
493,494,492,184,495
493,493,491,208,492
493,495,491,272,494
494,494,492,387,493
494,493,493,533,494
494,494,493,705,493
494,493,491,848,495
494,493,492,850,496
493,495,492,782,495
493,494,495,589,496
493,496,495,396,493
493,494,494,250,494
493,496,494,192,495
494,496,494,190,493
493,494,492,227,495
494,495,493,320,493
494,493,494,449,493
494,495,493,601,493
494,493,490,780,495
494,495,491,862,495
494,496,492,837,493
494,494,493,706,496
493,495,495,497,494
493,494,493,330,494
493,496,495,224,492
493,494,495,184,493
494,495,495,206,493
493,497,494,262,493
493,496,493,370,493
494,493,491,508,495
494,495,492,681,496
494,495,492,832,494
493,496,493,856,496
494,493,494,799,495
493,494,492,620,494
493,494,493,408,495
493,497,495,262,495
493,495,495,203,496
493,493,494,189,491
494,493,493,222,493
494,495,493,305,494
494,493,494,421,492
494,495,491,570,494
494,493,491,761,494
494,493,491,864,496
494,496,492,846,493
494,498,494,735,495
493,497,493,526,496
493,497,495,343,495
493,495,492,235,493
493,496,494,186,493
493,495,494,201,493
493,495,491,249,494
494,494,491,354,492
494,495,492,484,494
494,494,490,655,492
494,492,493,822,493
494,493,493,860,495
494,494,491,820,496
493,494,495,652,497
493,494,494,438,495
493,495,493,279,495
493,494,493,208,495
494,493,494,188,493
493,493,491,218,493
493,493,491,290,493
494,493,491,406,493
494,493,491,555,492
494,494,491,738,494
494,492,491,856,494
493,496,490,846,495
493,496,494,760,494
493,494,495,554,494
493,495,493,377,495
493,496,493,240,495
494,495,495,189,492
493,495,492,197,495
493,493,493,240,493
494,494,494,338,494
493,494,493,479,495
494,494,492,629,493
494,492,491,799,494
494,494,490,861,493
494,493,491,829,495
494,494,493,677,494
493,496,493,473,494
493,494,492,312,495
493,494,494,212,492
493,497,494,182,493
494,495,492,210,492
493,496,494,275,495
494,494,491,389,494
494,495,493,535,492
494,496,494,708,492
494,492,490,847,493
493,497,495,849,492
493,496,491,780,494
493,495,494,584,493
493,496,493,389,495
493,496,493,249,494
493,495,494,194,492
493,494,492,192,494
493,493,494,227,492
493,495,493,322,493
494,494,493,442,493
494,494,491,597,492
494,495,489,783,494
494,493,491,864,493
494,493,494,837,493
493,494,492,707,496
493,495,494,495,495
493,495,495,328,494
493,494,493,220,494
493,496,493,185,492
493,494,494,207,495
494,493,491,264,493
494,493,494,373,494
493,493,493,519,494
494,495,492,684,494
494,495,492,834,495
494,494,492,853,493
494,495,491,799,494
493,494,492,617,494
493,494,493,423,495
493,496,495,266,494
493,496,494,199,494
493,495,494,186,492
494,495,494,218,494
494,494,492,306,493
494,496,491,432,493
494,495,493,581,493
494,492,491,759,494
494,494,491,858,494
494,496,493,839,495
493,495,494,730,493
493,497,492,520,495
493,495,492,347,494
493,497,493,228,493
493,495,495,185,493
493,495,494,199,494
493,494,494,250,492
494,495,492,355,493
494,493,492,489,493
494,495,493,652,494
494,492,493,822,494
494,495,493,860,494
494,495,493,817,493
494,494,491,645,494
493,497,494,442,495
493,496,495,283,495
493,493,492,207,495
493,493,493,186,494
493,495,492,218,493
493,493,491,292,495
494,496,491,409,495
494,494,493,561,494
493,495,491,738,495
494,492,493,857,493
494,496,492,848,495
494,494,493,757,493
493,494,492,552,494
493,496,494,376,493
493,495,496,236,492
493,496,492,190,493
493,495,492,195,495
494,495,492,241,492
494,496,494,339,493
494,494,493,473,493
494,493,492,625,494
494,495,490,802,493
494,493,490,862,495
493,496,492,828,495
494,496,491,673,495
493,494,494,464,494
493,494,493,301,493
493,496,491,213,494
494,496,492,186,495
493,495,494,211,494
493,496,492,275,492
494,494,492,391,493
494,493,491,536,492
494,495,491,710,494
494,494,490,849,495
494,494,494,851,495
493,495,493,779,495
493,494,495,582,496
493,494,494,395,493
493,495,492,247,495
493,496,492,192,493
493,496,494,193,494
493,494,493,227,495
494,494,491,322,492
494,494,491,452,494
494,495,493,601,494
494,495,493,781,493
494,492,491,862,495
494,495,491,836,495
493,494,492,703,496
493,497,494,494,494
493,495,494,327,494
493,496,495,220,495
493,496,492,183,495
493,496,492,207,496
493,495,491,263,495
493,495,493,375,493
494,493,491,515,492
494,494,490,687,491
494,494,490,835,494
494,493,490,853,495
494,496,493,797,495
493,495,492,614,494
493,496,494,415,493
493,496,494,260,493
493,496,493,198,493
493,493,492,189,493
493,493,495,222,494
493,495,493,308,495
493,495,491,428,494
494,495,490,582,494
494,493,492,761,493
494,494,490,863,494
493,493,491,843,496
493,496,494,731,497
493,494,491,520,495
493,494,492,347,493
493,494,495,226,494
493,494,494,186,493
493,494,492,200,492
493,496,492,250,492
494,496,492,356,495
494,493,491,496,493
494,493,491,656,494
494,495,490,824,494
494,494,491,859,495
493,496,493,817,496
493,495,492,643,494
493,496,493,441,495
493,496,494,281,495
493,495,495,205,495
493,496,493,188,493
493,496,494,217,493
494,494,491,294,492
494,495,492,412,494
494,495,493,558,493
494,493,493,739,495
494,494,491,856,493
494,496,491,845,495
494,495,493,756,496
493,495,494,548,495
493,495,493,369,495
493,495,492,237,492
493,495,493,189,494
493,496,492,197,495
493,495,493,240,493
493,495,491,342,494
494,493,491,475,494
494,495,492,627,495
494,494,491,804,495
494,497,491,861,494
494,493,493,828,496
494,494,493,673,496
493,496,494,464,495
493,495,495,304,495
493,496,494,209,494
493,495,494,184,495
493,495,492,212,495
493,496,492,277,493
494,494,493,391,492
494,495,493,541,494
494,493,491,713,494
494,495,492,850,495
494,494,494,850,493
493,494,494,779,495
493,497,493,581,495
493,495,492,392,495
493,497,495,247,495
493,495,495,191,493
493,496,493,195,492
493,494,492,231,495
493,495,494,323,493
494,494,491,455,493
494,495,491,606,493
494,493,493,786,493
494,494,493,861,495
493,496,491,833,495
493,494,491,702,494
493,497,494,489,495
493,497,494,324,495
493,494,492,216,494
493,494,493,186,495
493,495,492,204,495
494,496,491,263,493
493,496,491,376,492
494,495,492,517,494
494,495,493,683,495
494,495,491,833,493
494,493,492,854,496
494,494,494,793,494
493,497,492,609,494
493,496,492,414,496
493,496,493,259,494
493,495,493,195,494
493,493,494,187,493
494,493,493,222,495
494,494,494,309,493
493,495,492,433,491
494,493,490,582,492
494,495,490,763,493
494,493,493,858,495
494,494,493,841,494
493,496,494,727,495
493,497,492,516,495
493,496,493,344,495
493,495,491,225,494
493,494,491,185,494
493,494,492,202,494
493,496,494,252,495
493,493,494,354,494
494,495,491,498,492
494,495,490,657,493
494,496,491,823,493
494,495,492,859,493
494,496,493,814,495
493,496,494,640,496
493,497,495,438,494
493,495,492,279,493
493,494,491,203,493
493,497,494,187,493
494,495,494,217,494
493,496,491,293,494
494,494,493,411,493
494,494,492,560,494
494,494,491,740,493
494,493,492,855,493
494,495,494,847,495
494,495,492,755,493
493,497,494,544,496
493,495,494,368,496
493,496,492,237,493
493,494,494,188,494
493,493,493,197,493
493,494,494,241,493
494,493,492,343,492
494,493,492,477,492
494,494,491,629,494
494,494,493,803,495
494,493,492,862,493
494,495,493,828,493
493,496,494,670,493
493,495,495,462,495
493,494,495,301,495
493,494,492,211,493
493,494,493,185,493
493,496,494,212,493
493,494,492,281,493
494,494,491,393,492
494,494,493,541,492
494,494,490,713,494
494,494,491,850,493
494,496,492,851,493
493,495,491,776,496
493,497,494,577,494
493,497,494,390,493
493,494,493,246,494
493,496,492,191,493
493,494,492,191,492
493,494,494,230,494
494,496,493,325,494
494,495,492,453,493
494,495,492,608,493
494,493,492,786,495
494,497,492,861,496
493,495,493,835,495
494,496,493,697,495
493,497,492,488,495
493,495,493,324,494
493,495,495,215,495
493,496,492,184,494
493,496,494,204,494
493,493,491,264,492
494,495,492,375,492
494,493,493,520,493
494,495,492,690,493
494,495,492,836,493
494,496,491,851,495
493,495,494,793,494
493,494,494,607,493
493,497,494,411,494
493,495,494,256,496
493,496,493,197,493
493,493,492,191,494
493,496,494,223,493
494,495,494,308,493
494,496,494,436,493
494,495,491,586,492
494,495,490,766,492
494,494,492,861,493
494,494,493,840,493
493,495,493,725,494
493,497,494,515,494
493,495,494,343,496
493,496,492,224,493
493,496,494,185,494
493,495,493,201,494
494,494,493,253,494
494,496,493,360,493
494,493,491,498,492
494,495,492,660,493
494,494,491,826,494
494,496,493,858,494
494,494,491,814,493
493,496,492,639,496
493,495,494,437,496
493,495,494,279,495
493,494,493,203,493
493,494,491,186,494
493,494,494,215,492
494,494,491,296,495
494,494,491,415,492
494,494,491,562,495
494,493,490,744,493
494,493,490,859,493
494,494,490,844,495
493,494,491,754,494
493,495,492,546,494
493,496,493,369,496
493,495,492,237,496
493,495,493,188,494
493,496,494,197,494
493,495,492,243,494
494,495,490,341,493
494,496,493,479,494
494,494,493,629,493
494,493,490,805,494
494,495,492,858,495
494,494,492,824,495
493,497,494,669,494
493,497,493,459,496
493,496,493,297,494
493,497,491,208,493
493,494,494,184,494
493,495,494,212,495
493,496,493,278,495
494,495,494,395,494
494,494,491,543,494
494,493,492,715,494
494,496,493,851,494
494,494,493,850,494
494,496,492,774,494
493,495,492,573,496
493,495,493,391,495
493,495,492,246,495
493,495,493,191,495
493,497,493,192,492
493,496,492,231,494
494,495,492,324,492
493,495,493,457,494
494,494,490,608,495
494,493,492,788,494
494,495,493,864,496
494,496,491,834,494
493,495,494,696,495
493,496,494,489,494
493,494,494,324,494
493,496,494,218,494
493,495,492,184,495
493,496,492,204,495
493,496,494,267,494
493,496,491,378,495
494,494,493,521,495
494,494,490,688,494
494,494,491,835,495
494,494,492,852,494
493,496,491,792,496
493,495,494,607,496
493,496,493,410,494
493,497,493,257,493
493,494,492,195,493
493,494,492,189,495
493,496,493,222,495
494,494,491,310,493
494,494,492,434,493
494,494,492,587,494
494,493,493,767,494
494,495,490,862,493
494,494,492,840,493
493,496,491,726,495
493,494,495,512,496
493,496,494,342,495
493,496,492,227,494
493,496,493,182,492
493,496,494,203,493
493,494,491,252,493
494,495,491,359,493
494,495,491,502,494
494,494,491,663,492
494,493,490,824,495
494,496,494,858,494
494,495,492,810,493
493,495,491,636,494
493,496,492,433,494
493,495,495,277,494
493,496,494,201,493
493,495,491,188,495
493,495,492,215,495
494,496,492,296,492
494,496,494,417,492
494,494,491,563,494
494,493,492,742,494
494,496,493,856,496
493,494,490,846,494
494,496,494,747,494
493,495,494,543,494
493,497,493,366,493
493,495,492,235,494
493,494,494,188,492
493,495,491,196,494
493,494,494,240,495
493,496,492,343,495
493,493,491,480,495
494,493,492,631,493
494,495,493,808,495
494,495,492,862,495
494,496,491,825,494
493,494,492,666,494
493,494,492,460,494
493,495,493,297,495
493,496,494,209,492
493,495,493,186,493
493,496,492,211,493
494,494,494,279,492
494,493,492,396,495
494,493,491,545,494
494,495,490,721,494
493,495,490,851,493
494,496,491,849,496
494,496,491,775,495
493,497,494,572,494
493,495,493,388,495
493,496,493,244,495
493,494,492,189,493
493,495,492,191,494
493,493,494,231,495
494,495,494,327,494
494,493,491,460,493
494,494,492,609,493
494,493,491,790,493
494,494,491,862,493
494,494,492,833,495
494,495,491,695,493
493,494,492,483,494
493,496,492,319,493
493,494,494,218,494
493,495,492,184,492
493,495,491,207,494
493,496,491,265,492
494,493,491,378,494
494,495,491,520,495
494,495,491,688,492
494,493,492,838,494
494,495,492,854,495
494,495,493,790,494
493,497,495,605,496
493,497,494,409,494
493,496,494,257,495
493,495,492,194,492
493,496,493,191,494
494,494,494,221,494
493,493,491,312,492
494,494,492,436,494
494,493,493,588,493
494,494,491,769,493
494,494,493,863,494
494,494,491,841,495
494,496,494,724,494
494,495,492,512,494
493,496,494,339,494
493,495,492,223,492
493,495,491,183,493
493,494,494,200,493
494,496,491,255,491
494,494,494,359,493
494,494,491,500,492
494,495,491,666,494
494,492,490,826,493
494,495,491,858,495
494,496,494,814,495
493,494,491,633,493
493,495,492,432,495
493,494,494,274,494
493,496,493,201,492
493,495,492,185,492
493,495,492,219,494
494,496,494,295,492
494,495,492,413,495
494,493,491,564,493
494,495,492,744,493
494,493,491,857,496
494,495,493,845,497
494,496,492,751,496
493,494,492,542,495
493,496,492,363,495
493,496,493,234,490
493,496,492,188,491
494,496,492,197,494
494,496,492,242,494
494,493,494,343,492
494,493,492,482,493
494,495,492,632,493
494,495,492,809,493
494,493,493,860,494
494,495,491,825,494
494,494,492,662,493
493,497,494,458,496
493,496,492,297,494
493,497,495,206,493
493,494,492,184,492
494,495,494,210,494
493,494,492,280,494
494,494,492,396,495
493,494,492,546,494
494,493,492,719,492
494,495,494,851,495
494,494,491,849,495
494,496,491,770,494
493,495,495,574,494
493,494,492,385,495
493,496,494,245,495
493,495,494,190,495
493,496,491,193,494
494,495,492,230,494
494,495,491,328,493
494,493,493,460,495
493,493,491,611,495
494,493,491,793,492
494,494,492,863,494
494,493,491,833,493
494,496,493,695,494
493,496,493,480,494
493,497,492,316,493
493,494,495,216,494
493,495,492,182,494
494,496,492,205,492
493,495,491,268,494
493,494,492,380,494
493,493,492,524,493
494,493,493,695,494
494,494,491,838,493
494,495,493,852,494
494,496,494,789,494
493,495,491,602,495
493,495,494,406,493
493,495,493,255,493
493,494,492,194,494
493,496,492,189,495
493,494,492,221,494
493,496,491,313,493
494,493,494,436,492
494,494,492,588,493
494,492,493,768,493
494,494,492,860,494
494,496,491,839,493
494,495,492,719,493
493,495,495,508,496
493,494,494,338,494
493,495,494,224,492
493,495,494,183,493
493,494,492,202,493
494,494,494,255,495
494,496,493,363,493
494,495,493,499,493
494,495,490,666,492
494,493,492,830,494
494,495,491,857,495
494,495,493,811,495
493,495,493,632,494
493,497,494,431,494
493,496,494,271,495
493,494,492,204,494
493,496,494,188,495
493,493,493,218,495
493,494,494,297,493
494,493,492,417,495
494,495,491,565,493
494,492,493,748,493
494,493,493,859,493
493,496,492,843,494
494,493,494,747,495
493,496,496,540,495
493,494,494,361,494
493,496,492,235,495
493,496,492,188,493
493,494,494,199,495
493,494,494,243,492
493,494,492,346,495
494,494,493,483,494
493,494,493,636,495
494,495,493,810,494
494,493,492,859,496
494,494,493,824,497
493,496,492,660,494
493,497,493,455,494
493,495,493,295,493
493,495,494,208,492
493,494,495,185,494
494,495,492,212,492
493,494,491,282,494
494,493,492,400,493
494,494,494,546,494
494,493,493,720,495
494,495,490,853,493
494,493,492,847,494
494,495,493,768,494
493,497,491,568,495
493,495,495,384,493
493,496,494,243,495
493,495,493,191,493
493,494,492,195,495
493,495,491,232,494
493,496,491,329,493
493,495,491,459,494
494,494,491,611,495
494,494,492,792,494
494,495,493,862,496
493,494,492,831,495
494,497,491,691,497
493,497,494,482,494
493,495,494,317,495
493,494,492,217,495
493,496,493,181,493
493,495,492,204,492
493,496,492,266,494
493,493,491,379,492
494,494,492,523,495
494,495,491,696,493
494,492,493,841,494
494,494,494,851,494
494,495,493,786,496
493,494,492,599,495
493,496,493,400,495
493,494,493,254,495
493,496,493,195,494
493,496,492,191,496
494,496,493,222,492
494,494,491,314,492
494,495,493,435,492
494,494,492,585,494
494,494,491,773,495
494,493,493,864,493
494,496,491,841,494
493,495,492,719,496
493,494,494,507,496
493,495,493,336,495
493,495,493,225,492
494,495,493,183,494
493,496,493,203,494
494,495,492,255,492
494,493,492,365,493
494,493,492,503,494
494,494,493,668,495
494,494,493,828,495
494,495,491,857,496
494,494,494,809,494
494,495,491,629,496
493,497,492,432,495
493,496,492,273,493
494,494,494,199,493
493,496,495,187,492
493,496,493,216,492
493,493,492,296,495
494,495,492,419,494
494,494,491,567,493
494,492,490,748,494
494,494,491,857,493
494,493,492,845,494
494,495,492,744,494
493,495,494,538,494
493,496,493,361,494
493,494,495,235,493
493,495,494,187,496
493,493,494,199,495
493,496,494,244,495
493,494,494,346,493
494,493,492,480,493
494,493,491,639,493
494,495,492,815,495
494,495,491,860,495
494,494,493,824,494
493,494,492,660,496
493,494,494,454,496
493,494,493,291,494
493,497,494,208,495
493,496,495,184,493
494,496,494,210,495
493,496,492,285,495
494,495,491,401,494
494,493,493,550,492
494,493,492,724,493
494,494,491,852,493
494,495,491,849,494
494,496,493,771,495
493,494,493,567,494
493,497,493,383,494
493,496,492,242,493
493,496,494,189,495
493,493,493,194,494
493,493,494,234,494
494,494,491,330,494
493,496,491,461,494
494,495,493,615,493
494,492,491,790,493
494,496,491,861,495
494,493,492,831,494
493,493,492,690,495
493,494,493,479,495
493,495,493,313,492
493,493,491,219,495
494,497,491,182,493
494,493,494,207,492
494,497,495,268,492
494,495,493,379,492
494,493,491,522,494
494,496,491,699,494
494,493,493,840,494
494,495,491,855,496
494,494,494,787,494
493,494,493,598,496
493,494,494,397,493
493,495,496,253,492
493,494,495,193,493
493,494,493,192,495
493,497,491,225,495
493,492,491,316,494
493,496,490,431,492
494,494,491,585,492
494,492,492,776,496
494,494,491,863,495
494,497,493,842,494
494,497,494,718,495
494,494,492,507,495
493,497,492,328,493
493,494,493,224,495
493,496,493,186,493
493,494,492,206,496
493,494,495,256,495
494,495,494,366,491
494,494,491,498,494
494,495,494,673,493
494,493,492,832,494
494,493,494,860,495
494,495,491,809,494
493,497,494,628,494
493,496,495,420,496
493,495,495,268,493
493,494,492,206,493
493,494,494,188,494
493,496,494,221,493
493,496,494,301,495
494,493,494,417,494
494,495,492,565,493
494,493,491,750,493
494,492,491,859,493
494,493,491,846,495
494,494,494,742,496
493,494,492,537,494
493,494,495,354,494
493,494,492,237,494
493,497,491,190,492
493,495,495,200,492
493,496,493,250,494
494,495,492,348,494
494,493,494,474,494
494,493,491,645,492
494,492,492,815,492
494,495,491,862,492
494,494,492,826,493
493,494,493,661,493
493,495,493,446,493
493,497,493,284,493
493,494,493,213,495
493,496,493,186,492
493,496,494,214,494
494,496,495,284,494
494,496,493,399,495
494,493,495,542,494
493,492,491,728,494
494,495,491,854,495
494,494,491,851,495
494,496,491,771,495
493,494,493,565,494
493,497,494,372,493
493,496,495,243,494
493,494,492,193,492
493,496,493,194,493
493,495,491,236,494
494,493,492,334,493
494,495,493,453,493
494,494,493,615,494
494,494,492,796,493
494,495,491,861,493
494,495,493,833,493
493,494,492,689,495
493,495,493,469,494
493,496,493,300,493
493,494,493,220,493
493,494,493,186,493
493,496,494,209,493
494,495,493,273,493
494,493,492,383,493
494,494,492,517,493
494,493,491,703,492
494,496,490,845,493
494,496,491,856,494
494,494,493,786,496
493,494,492,596,494
493,498,494,393,496
493,496,492,255,494
494,493,492,195,493
493,494,495,194,494
493,492,491,229,495
494,497,490,317,495
494,493,494,441,492
494,495,492,592,492
494,495,491,776,495
494,494,494,864,493
494,497,494,843,495
493,493,493,716,494
493,497,493,505,494
493,496,494,335,495
493,497,496,225,495
493,494,494,185,493
494,495,491,204,493
494,496,492,260,493
494,495,492,365,495
494,494,491,509,495
493,493,491,670,493
494,495,492,829,494
494,494,491,859,495
494,494,493,806,494
494,494,494,625,495
493,494,493,428,495
493,494,493,270,493
493,496,494,202,494
493,496,492,190,492
494,494,492,218,492
494,494,492,299,494
493,493,493,421,492
494,495,492,571,493
494,493,491,754,494
494,493,490,859,494
494,494,493,842,494
494,494,493,741,494
493,497,493,534,496
493,495,495,354,494
493,494,492,230,494
493,495,492,188,494
493,494,490,200,491
493,496,493,247,491
494,493,491,348,494
494,493,491,484,494
494,493,491,643,494
494,494,492,813,493
494,494,491,861,495
494,493,492,820,495
493,494,494,655,496
493,496,493,449,495
493,496,492,291,495
494,497,493,207,493
493,495,494,185,494
494,494,493,215,495
493,494,493,287,494
494,493,493,404,494
494,494,491,552,493
494,495,490,730,494
494,493,490,855,495
494,495,493,849,494
494,494,493,767,496
493,497,493,565,494
493,497,492,384,494
493,494,493,244,493
493,495,492,190,493
494,493,494,194,493
494,495,492,235,493
494,493,491,331,492
493,494,493,464,494
494,493,491,617,495
494,494,493,795,494
494,495,491,863,495
494,493,494,831,496
493,494,494,684,496
493,494,494,472,495
493,494,492,312,493
493,496,494,213,492
493,496,494,182,494
493,495,493,209,494
493,495,491,269,492
494,493,492,384,494
494,495,493,529,495
494,492,490,702,493
494,493,493,841,493
493,496,491,852,493
494,495,491,784,496
493,494,493,594,493
493,494,495,402,495
493,496,495,249,494
493,496,494,192,491
494,493,494,189,494
493,496,491,223,495
493,493,493,318,495
493,495,493,444,494
494,495,492,594,494
494,493,491,776,492
494,495,490,862,495
494,494,492,837,495
493,494,492,713,495
493,494,493,501,496
493,494,493,334,495
493,496,494,223,493
493,494,492,183,493
493,496,492,202,492
493,494,495,257,494
494,496,492,365,494
494,495,493,506,493
494,494,491,672,493
494,495,493,832,493
494,494,491,857,494
494,494,493,803,495
493,494,494,623,494
493,495,493,423,493
493,495,493,266,493
493,496,492,200,493
493,494,494,186,495
494,496,494,218,493
493,494,492,303,493
493,496,491,422,493
494,495,492,575,493
494,492,492,754,494
494,495,492,858,495
494,496,491,842,496
493,494,494,742,496
493,496,494,529,494
493,495,493,355,496
493,494,493,229,493
493,495,492,186,495
493,497,493,199,492
493,494,492,244,495
493,493,491,348,495
494,495,492,487,494
494,494,492,647,492
494,495,492,815,492
494,493,493,859,494
494,494,492,819,493
493,495,492,653,494
493,497,492,449,495
493,494,493,287,495
493,494,495,205,494
493,495,492,187,495
493,496,491,213,493
493,496,492,287,495
493,495,494,405,492
494,493,494,554,494
494,495,492,729,494
494,494,492,854,493
494,495,491,846,493
494,494,491,765,495
493,494,494,559,494
493,495,494,379,494
493,496,493,243,495
493,495,494,188,495
493,494,493,195,493
494,494,494,236,495
494,493,492,333,492
494,495,491,468,494
494,495,493,618,494
494,493,490,798,493
494,494,491,863,495
494,493,491,832,494
493,496,494,683,494
493,494,495,474,494
493,496,495,311,495
493,494,492,212,495
493,496,493,181,494
493,495,492,208,494
494,496,492,274,494
493,496,491,384,495
494,493,492,530,494
494,493,493,703,493
494,493,493,845,495
494,496,491,854,495
494,496,491,785,494
493,496,492,591,494
493,496,493,400,495
493,495,493,250,493
493,496,495,192,494
493,496,494,189,492
494,493,492,224,493
493,496,491,316,492
494,495,493,446,493
494,495,491,596,494
494,493,490,779,495
494,494,490,864,494
494,496,494,839,495
493,496,493,711,495
493,495,492,498,496
493,496,495,333,495
493,494,493,219,491
494,494,495,181,492
494,494,492,204,493
493,493,494,256,493
493,494,492,369,493
494,494,491,508,492
494,493,490,674,492
494,493,491,831,493
494,495,493,855,495
493,496,492,799,494
493,494,495,619,496
493,495,495,422,493
493,495,495,267,494
493,494,493,200,495
493,494,492,186,492
494,496,493,217,494
493,493,491,304,494
494,495,492,426,492
494,495,491,573,493
494,495,492,754,492
494,495,490,861,495
494,496,491,842,494
493,494,492,737,494
493,495,494,527,494
493,495,492,354,495
493,494,493,229,494
493,494,492,185,493
493,493,494,197,494
493,495,491,249,494
494,493,492,353,492
494,495,493,487,493
494,495,493,646,493
494,492,490,819,493
493,496,493,860,494
494,496,494,818,493
493,496,492,651,494
493,497,493,446,494
493,495,493,285,494
493,496,494,205,494
493,494,494,184,492
493,494,492,212,495
493,493,493,286,494
494,495,491,407,492
494,494,492,555,492
494,494,489,732,493
494,493,493,853,495
494,496,491,845,495
493,496,495,763,495
493,496,495,558,496
493,494,493,377,495
493,494,495,240,493
493,496,494,187,494
493,496,495,195,492
493,493,492,238,493
494,496,494,334,492
494,493,493,470,494
494,494,493,621,493
494,493,493,796,493
494,493,494,864,493
494,493,493,830,494
493,493,493,681,493
493,494,492,471,496
493,494,492,309,495
493,495,494,213,494
493,494,492,185,494
493,493,494,209,493
494,495,494,275,492
494,495,493,387,494
494,495,493,533,492
494,493,490,706,493
494,495,493,847,493
494,496,491,851,495
494,494,493,782,496
493,497,492,591,493
493,496,495,400,494
493,496,492,250,493
493,496,494,191,495
493,495,492,190,495
493,494,491,226,493
493,496,493,320,495
494,495,494,447,493
494,495,493,596,493
494,495,493,781,495
494,493,492,865,494
493,494,491,836,493
493,495,494,709,493
493,497,494,498,495
493,495,494,331,493
493,494,493,219,494
493,495,492,183,492
493,494,494,203,495
493,495,491,259,494
493,493,492,367,492
494,494,492,510,494
494,495,493,678,496
494,494,493,833,495
494,495,493,856,493
494,496,491,804,493
494,496,492,621,493
493,494,493,420,494
493,496,493,262,495
493,496,492,198,492
493,495,496,189,494
493,494,491,220,494
494,494,493,305,493
494,496,492,427,493
494,494,493,576,493
494,495,492,758,495
494,493,492,859,493
494,495,491,843,494
494,494,494,736,495
493,497,495,525,493
493,497,493,353,495
493,496,494,229,494
493,495,493,185,494
493,493,491,199,494
494,496,493,246,493
494,495,494,353,492
494,493,491,489,494
494,494,491,648,493
494,493,491,819,494
493,495,493,860,494
494,493,492,819,494
493,494,493,651,494
493,496,494,445,495
493,494,494,286,495
493,496,494,207,493
493,495,492,184,493
493,496,494,212,494
494,493,491,290,493
494,495,493,406,495
493,493,493,554,495
494,493,490,732,492
494,493,491,858,493
494,494,494,848,495
493,494,494,762,495
493,496,493,559,496
493,495,493,377,493
493,496,494,241,495
493,495,493,188,492
493,496,494,194,494
493,494,492,238,493
494,493,493,334,493
494,493,492,469,492
494,494,493,622,493
494,493,493,801,493
494,493,491,861,494
494,494,492,828,495
493,496,494,678,496
493,495,492,468,494
493,495,493,307,494
493,496,493,212,495
493,493,491,184,494
493,496,492,209,493
493,496,494,276,495
494,494,491,388,494
494,494,492,537,493
494,493,493,707,495
494,495,492,844,494
494,494,492,850,494
493,495,493,781,496
493,496,492,584,495
493,495,493,396,495
493,495,493,250,493
493,494,494,193,492
493,495,491,193,495
493,496,494,225,495
494,496,491,319,492
494,493,491,450,494
494,494,493,599,494
494,495,490,780,495
494,495,491,865,495
493,495,493,838,494
493,496,493,709,496
493,495,496,498,496
493,495,493,330,495
493,496,493,220,495
493,494,495,184,492
493,493,492,203,492
493,493,492,259,493
494,495,492,369,492
494,493,491,512,495
494,493,493,680,492
494,493,491,832,493
494,494,491,856,494
493,496,494,799,493
494,495,495,620,494
493,496,493,419,495
493,495,493,262,494
493,497,493,200,494
493,494,493,189,494
493,495,492,222,495
494,493,491,305,493
494,494,493,427,493
494,493,493,578,494
494,493,493,761,492
494,496,491,859,496
494,495,491,842,495
494,494,494,733,493
493,496,493,522,495
493,496,492,350,493
493,496,496,229,492
493,494,495,184,493
493,495,495,201,494
493,494,492,248,492
494,494,491,355,494
494,494,493,493,494
494,495,492,653,494
494,496,492,820,495
494,496,491,860,493
494,494,491,817,496
493,495,493,647,495
493,495,494,443,494
493,497,494,285,494
493,497,493,204,493
493,495,493,187,492
493,496,495,213,494
493,495,491,289,492
494,493,493,409,493
494,495,491,557,495
494,494,491,733,494
494,493,491,855,494
494,494,492,849,495
494,494,491,759,495
493,494,492,553,494
493,495,494,377,496
493,496,494,240,496
493,495,492,190,496
493,495,492,197,496
493,494,494,240,493
494,496,491,337,492
494,494,493,470,493
494,495,493,621,491
494,493,490,799,494
494,493,491,863,494
494,496,492,829,496
493,495,494,675,495
493,496,495,468,494
493,497,495,301,494
493,497,493,213,496
493,494,494,182,494
493,494,494,210,492
493,496,492,273,492
494,493,494,387,493
494,493,491,534,492
494,493,491,711,493
494,493,490,846,496
494,494,492,851,494
494,496,491,779,497
493,494,494,586,496
493,496,492,393,494
494,497,493,246,492
493,496,492,191,492
493,493,492,192,493
494,496,492,226,493
493,493,494,320,492
494,495,492,450,493
494,494,492,603,493
494,495,492,784,493
494,493,493,864,493
493,494,493,836,494
493,496,492,706,495
493,496,494,493,496
493,497,493,329,494
493,497,494,221,493
493,496,494,184,495
493,497,492,204,494
493,495,492,261,493
493,496,491,371,493
494,495,492,515,494
494,495,491,680,493
494,495,490,832,496
494,495,493,856,493
494,497,494,795,496
493,496,492,614,495
493,495,493,418,494
493,495,495,262,493
493,494,494,197,493
493,497,494,188,493
493,493,493,218,493
493,494,491,304,492
494,493,492,428,494
494,496,492,581,493
494,494,490,760,494
494,494,490,862,493
494,494,493,843,494
494,497,492,732,495
493,497,492,522,495
493,495,494,349,494
493,495,492,226,493
493,494,493,183,495
493,495,492,201,493
493,493,491,249,492
493,493,494,352,493
494,495,492,493,495
494,495,491,650,493
494,494,492,821,495
494,495,491,858,495
494,496,494,818,494
493,494,494,645,494
493,497,493,441,495
493,495,495,283,495
493,494,495,203,494
493,494,491,187,495
493,496,491,215,493
493,493,492,290,492
494,496,493,409,493
494,494,491,560,493
494,495,493,736,493
494,494,493,857,493
494,496,494,845,493
494,496,491,757,494
493,496,493,552,495
493,496,493,373,494
493,497,492,240,493
493,496,493,190,493
493,494,492,196,492
493,496,493,237,495
494,494,491,337,493
494,494,494,472,494
494,495,491,624,493
494,493,493,800,493
494,496,493,862,495
494,496,492,827,495
494,494,494,674,495
493,495,495,466,494
493,495,495,305,493
493,494,491,212,492
494,495,492,184,493
493,493,492,211,494
494,495,494,275,493
494,493,491,391,494
494,495,492,537,492
494,495,490,713,495
494,494,492,851,495
494,494,492,852,495
494,495,493,780,495
493,494,495,581,494
493,494,493,395,494
493,494,493,249,495
493,494,493,191,493
493,496,495,190,493
493,494,493,227,494
494,496,494,319,494
494,495,493,451,494
494,495,493,601,494
494,495,493,783,495
494,495,491,862,494
494,496,490,834,496
494,495,493,704,496
493,495,492,490,495
493,496,492,324,495
493,494,492,220,493
494,494,494,182,495
493,494,494,204,493
493,494,494,261,494
494,493,494,372,492
494,495,493,516,494
494,493,494,682,493
494,495,493,833,493
494,495,492,854,493
494,496,494,793,494
493,496,494,611,496
493,495,494,413,494
493,494,493,256,493
493,494,494,195,493
493,496,493,187,495
493,496,492,220,492
494,496,493,306,494
494,496,491,432,493
494,494,491,582,494
494,494,490,760,495
494,493,493,861,494
494,496,492,842,496
494,493,492,728,496
493,497,492,519,496
493,495,493,349,494
493,494,494,228,495
493,496,492,183,494
493,494,495,200,492
494,494,493,248,493
494,496,494,355,495
494,493,493,495,493
493,494,491,656,494
494,493,492,821,494
494,494,491,859,495
494,496,494,815,495
493,495,494,643,496
493,496,494,443,495
493,494,494,281,495
493,496,492,203,493
493,497,493,185,493
493,496,493,213,494
494,494,493,291,494
494,494,491,410,493
494,493,491,560,494
494,493,491,738,494
494,496,490,859,493
494,494,491,845,494
494,494,493,755,493
493,496,493,549,494
493,495,492,370,493
493,495,495,234,495
493,495,493,186,494
493,496,492,196,495
493,494,494,238,495
494,496,491,339,495
494,494,493,475,494
494,493,493,627,493
494,495,494,806,495
494,494,491,862,495
494,496,493,826,496
493,494,494,673,497
494,496,492,464,495
493,496,492,301,494
493,496,494,211,493
493,497,494,184,492
494,495,491,208,492
493,494,492,276,494
494,494,492,390,492
494,494,491,541,494
494,495,491,712,493
494,493,490,850,495
494,495,492,850,494
494,495,493,778,494
493,495,492,580,493
493,494,494,394,495
494,495,494,249,494
493,496,492,190,495
493,494,492,191,492
493,495,492,228,492
494,494,493,323,492
494,494,491,452,493
494,496,491,604,492
494,495,490,786,493
494,496,490,862,493
494,496,491,834,495
494,495,494,699,494
493,495,493,489,495
493,497,494,326,493
493,496,492,219,495
493,495,494,182,494
493,493,492,207,493
494,496,490,264,493
494,495,491,374,493
494,495,491,515,494
494,495,490,686,494
494,493,491,836,494
494,496,493,856,494
494,496,493,793,494
493,495,494,613,496
493,495,493,414,495
493,496,492,257,494
493,497,494,197,494
493,496,492,187,493
493,494,494,221,495
493,493,494,308,492
494,493,491,430,493
494,495,493,582,495
494,493,491,763,492
494,495,491,860,494
494,495,493,842,493
493,495,493,727,493
493,497,495,516,493
493,495,494,343,493
493,496,494,227,493
493,496,494,186,494
493,496,492,201,494
493,496,493,252,493
494,495,491,357,494
494,495,493,496,495
494,495,493,659,494
494,493,493,822,495
494,496,491,860,493
494,494,492,815,494
493,495,493,641,495
493,495,494,439,495
493,497,494,281,492
494,494,495,203,495
493,495,494,184,492
493,497,493,214,493
493,496,491,294,493
493,494,494,412,493
494,494,493,562,495
494,495,490,741,494
494,495,493,856,494
494,496,491,847,494
494,494,494,754,496
493,494,492,548,495
493,497,493,370,494
493,495,493,236,495
493,494,495,187,493
493,494,492,195,495
493,494,491,240,493
494,494,492,341,493
494,494,491,474,493
494,496,491,629,493
494,493,491,808,493
494,496,494,863,494
493,493,491,828,496
494,494,491,671,495
493,497,494,464,496
493,496,494,301,494
493,495,493,208,495
493,494,495,186,495
493,494,493,209,493
493,494,491,279,492
494,493,492,394,492
494,494,491,543,493
494,495,491,716,492
494,496,493,849,492
494,495,492,851,493
494,497,492,775,495
493,495,493,578,494
493,496,493,391,494
493,495,495,247,493
493,496,493,192,494
493,494,492,191,494
493,494,491,229,494
494,494,492,325,494
494,495,493,456,493
494,495,492,608,493
494,495,490,785,494
494,495,490,862,496
493,496,491,836,494
494,496,494,699,495
493,496,494,489,495
493,495,494,324,495
493,496,492,217,495
493,496,492,185,493
493,497,492,205,494
493,496,493,265,495
494,495,491,373,495
494,494,491,519,494
494,496,490,689,493
494,494,492,836,493
494,496,493,852,494
493,495,491,793,496
493,494,492,608,495
493,495,495,411,494
493,496,492,258,494
493,494,493,194,494
493,494,493,189,495
493,495,491,221,493
494,496,492,309,494
494,495,492,430,494
494,495,491,582,495
494,492,492,767,494
494,495,491,861,496
494,494,494,840,495
494,495,493,728,496
493,498,494,514,494
493,495,493,341,496
493,495,492,227,493
493,496,494,182,495
493,496,495,202,494
493,495,494,251,492
494,496,491,360,494
494,494,492,498,494
494,495,492,660,492
494,494,491,826,494
494,494,493,857,494
494,493,493,813,494
493,494,493,639,495
493,495,493,435,494
493,496,493,278,496
493,494,493,205,493
493,495,492,186,495
493,496,494,216,493
493,495,492,294,493
493,495,492,415,494
494,495,493,564,494
494,495,490,742,492
493,496,493,858,495
494,496,491,845,495
494,494,494,751,494
493,497,492,544,495
493,495,494,366,494
493,495,491,235,493
493,494,494,188,492
493,494,492,196,493
493,495,494,241,493
494,496,491,342,495
494,495,493,476,494
494,494,492,627,495
494,494,493,807,495
494,495,491,860,495
494,496,493,826,496
493,495,494,667,496
493,494,494,462,495
493,497,494,299,494
493,494,494,211,495
493,494,493,184,494
493,496,492,212,494
494,494,492,279,495
494,494,490,394,495
494,494,492,542,493
494,494,493,716,493
494,493,493,853,495
494,496,492,849,495
494,493,491,774,495
493,495,492,575,494
493,495,494,390,494
493,494,493,244,493
493,495,492,191,493
493,496,492,195,493
493,494,494,230,493
494,494,491,323,494
494,494,491,457,493
494,493,492,607,492
494,496,493,787,491
494,492,493,864,492
494,496,493,833,495
494,493,491,696,494
493,497,495,485,495
493,496,494,319,495
493,497,492,218,494
493,493,492,184,493
494,495,492,204,494
494,494,493,264,494
494,493,494,376,494
493,494,492,520,495
494,494,493,690,495
494,495,490,837,495
494,496,493,854,496
494,496,492,793,496
493,497,493,605,494
493,494,493,411,495
493,497,492,255,494
493,494,495,197,495
493,494,495,188,493
494,496,495,220,492
493,495,494,309,492
494,495,491,437,493
494,495,493,585,493
494,493,491,769,493
494,495,494,860,494
494,493,491,841,495
493,496,494,724,496
493,496,493,513,495
493,495,494,344,495
493,496,492,225,495
493,493,492,184,495
493,495,492,200,495
493,496,492,254,493
493,495,493,359,495
493,495,492,499,494
494,495,492,662,495
494,495,491,826,493
494,494,493,859,495
494,493,493,813,494
493,494,494,666,495
493,494,494,490,494
493,495,493,329,496
493,496,492,197,495
493,496,494,169,492
493,496,494,202,494
494,494,493,301,492
494,493,491,457,492
494,494,493,608,493
494,494,492,746,493
494,494,491,832,494
494,494,493,823,493
494,496,492,741,495
493,494,492,575,495
493,496,494,409,493
493,494,492,254,493
493,494,493,156,494
493,493,494,171,494
494,494,493,223,494
494,493,491,360,493
494,493,491,521,493
494,493,492,667,494
494,494,492,780,493
494,494,492,834,495
493,495,493,802,495
493,496,493,669,495
493,495,493,496,495
493,495,494,336,495
493,497,495,201,495
493,496,492,154,494
493,495,493,185,493
493,494,493,272,493
494,494,491,429,494
494,493,492,581,493
494,495,491,720,494
494,494,492,822,495
494,494,492,823,494
494,495,493,755,495
493,495,493,594,494
493,495,493,427,494
493,496,493,269,493
493,494,494,156,494
493,495,492,163,494
493,493,493,208,494
493,494,493,335,494
493,494,492,495,493
494,494,493,645,494
494,495,491,766,494
494,494,491,833,494
493,495,493,810,494
493,495,493,692,496
493,495,493,521,494
493,495,494,359,494
493,494,492,212,494
493,496,493,151,494
493,495,493,179,494
493,495,493,253,494
494,495,492,405,493
494,494,493,560,493
494,493,493,704,494
494,496,492,805,493
494,497,493,825,494
493,496,493,769,496
493,495,494,618,496
493,495,493,448,495
493,496,494,287,494
493,496,492,170,494
493,495,492,159,493
493,494,493,197,494
494,494,492,313,493
494,494,492,475,494
494,494,492,625,494
494,494,492,753,495
494,495,492,832,494
494,494,492,813,494
493,494,493,713,494
493,495,492,543,495
493,495,493,379,495
493,496,494,230,493
493,495,493,151,493
493,494,492,174,494
493,496,492,235,494
493,494,491,383,494
494,493,492,538,494
494,495,491,684,494
494,494,492,794,494
494,494,492,829,495
493,495,493,788,493
493,495,493,644,494
493,496,493,472,495
493,495,494,312,495
493,495,495,182,495
493,494,493,156,494
493,495,493,190,493
494,495,493,291,494
494,494,492,448,494
494,494,491,600,494
494,494,492,736,493
494,494,491,828,494
494,494,493,819,496
493,495,492,734,495
493,496,493,568,496
493,496,493,402,494
493,495,493,244,495
493,495,494,154,494
493,495,492,168,494
493,495,494,223,493
494,494,492,357,493
494,495,491,517,493
494,494,491,664,495
494,494,491,778,494
494,494,492,831,493
494,494,493,801,495
493,496,493,667,494
493,496,493,494,495
493,496,493,331,495
493,495,494,192,493
493,494,494,155,493
493,495,493,184,494
493,494,493,271,493
494,495,492,430,494
494,494,493,582,494
494,494,491,721,495
494,495,491,822,494
494,495,491,821,494
494,494,492,753,494
493,496,493,592,495
493,495,493,424,494
493,496,495,267,494
493,495,493,158,494
493,494,492,163,492
493,496,492,207,493
494,494,492,335,494
494,494,492,496,494
494,494,492,643,494
494,494,493,764,494
494,494,491,834,494
493,495,493,809,494
493,494,493,690,495
493,496,493,519,495
493,496,493,357,496
493,494,493,210,495
493,496,495,154,494
493,495,492,180,494
493,494,493,255,494
494,495,492,407,493
494,495,492,559,492
494,494,492,704,492
494,494,492,809,493
494,494,491,826,494
493,495,493,771,495
493,494,493,616,494
493,495,494,446,495
493,496,493,284,496
493,495,493,164,494
493,494,493,160,493
493,495,493,198,494
494,495,493,315,494
494,494,492,475,494
494,494,491,626,493
494,494,491,751,494
494,494,491,836,494
494,495,492,814,493
494,496,492,713,495
493,496,493,542,494
493,496,493,376,494
493,495,494,223,495
493,495,493,152,494
493,495,494,175,493
493,495,493,238,495
494,494,492,383,494
494,495,492,539,494
494,494,491,685,494
494,494,491,797,495
494,494,492,830,494
493,495,493,788,494
493,496,493,641,495
493,496,493,467,495
