Sensor0,Sensor1,Sensor2,Sensor3,Sensor4

495,494,496,492,294
494,494,493,491,426
493,494,492,491,569
494,494,493,491,723
494,494,493,491,844
494,494,494,492,834
493,494,493,493,749
493,494,495,494,558
494,493,495,494,384
494,493,495,494,233
494,494,495,493,188
495,494,494,493,196
494,494,496,493,243
493,494,495,492,342
493,494,494,491,483
493,494,494,491,628
494,494,494,491,791
494,494,495,492,851
495,494,496,492,816
495,494,496,493,669
493,494,498,493,466
494,494,497,493,311
496,493,496,492,210
495,494,494,493,186
493,494,493,492,216
492,494,495,492,282
492,494,493,492,397
491,494,494,492,542
493,494,493,491,699
494,494,495,492,836
494,494,495,492,842
494,494,494,492,770
495,494,496,493,578
494,494,496,495,400
494,493,496,493,250
494,494,495,494,193
495,494,494,493,196
494,494,495,492,234
493,494,495,492,328
493,494,495,494,466
493,494,496,492,612
493,494,496,492,774
493,494,495,492,854
494,494,495,492,822
493,494,494,494,695
494,494,493,493,499
495,494,494,493,335
496,494,494,493,214
495,494,492,493,183
495,494,494,492,208
495,494,494,492,268
493,494,494,492,385
494,494,495,491,528
494,494,493,491,676
491,494,492,493,825
493,494,493,492,843
496,494,495,493,785
497,494,495,492,607
498,494,495,493,413
495,494,495,493,260
493,494,493,493,202
492,494,497,494,194
492,494,494,494,229
494,494,492,493,315
494,494,493,491,434
494,494,494,492,581
493,494,493,492,759
492,494,494,493,855
493,494,494,493,831
494,494,495,493,722
495,494,496,492,510
494,494,495,494,343
494,494,496,494,229
494,493,495,493,191
493,494,495,493,208
494,494,495,491,261
493,494,495,492,366
494,494,495,491,509
493,494,495,492,655
493,494,492,491,818
495,494,494,493,851
494,494,495,493,803
494,494,495,493,635
495,494,494,493,452
494,494,495,494,297
495,494,495,493,200
494,493,495,494,186
493,493,495,493,222
494,494,494,493,302
493,494,493,490,443
493,494,494,492,585
492,494,493,492,728
493,494,495,492,845
493,494,495,491,829
494,494,494,492,736
494,493,495,493,548
495,494,494,495,379
496,494,495,495,228
495,493,495,495,184
495,493,494,493,197
495,493,493,493,247
492,494,494,492,348
491,494,493,490,491
493,494,496,492,635
493,494,496,492,799
493,494,497,492,848
495,494,494,491,812
496,494,494,494,658
496,494,497,495,452
494,494,493,493,296
497,494,492,492,206
494,494,494,494,186
495,494,494,494,219
496,494,492,492,288
492,494,495,490,400
493,494,494,493,548
492,494,494,491,717
493,494,496,494,846
495,494,497,492,841
494,494,494,494,765
495,494,495,496,564
496,494,496,494,380
495,493,496,492,244
494,494,496,492,193
494,494,496,492,200
493,494,494,492,239
494,494,493,492,336
493,494,494,492,469
493,494,494,493,617
493,494,494,491,785
492,494,491,488,854
494,494,495,492,822
493,494,493,495,683
495,494,495,495,481
495,494,495,493,323
495,493,493,494,215
494,494,495,493,187
493,494,493,492,215
495,493,495,492,275
493,494,496,492,392
495,494,495,491,536
493,494,495,492,689
492,494,494,491,832
494,494,493,492,843
495,494,494,495,774
495,494,494,495,594
495,494,494,494,413
495,493,496,493,260
495,494,496,493,196
494,494,495,494,194
494,493,496,493,231
494,494,493,492,322
493,494,490,493,458
492,494,492,492,604
494,494,491,491,765
494,494,492,492,852
494,494,494,493,825
494,494,495,493,705
494,494,497,495,505
495,494,495,494,340
495,494,495,494,218
495,494,495,493,185
494,494,494,494,208
494,493,494,493,263
494,494,493,493,372
492,494,494,492,517
492,494,493,492,666
492,494,492,492,822
494,494,493,492,847
495,494,494,492,796
495,494,495,493,616
494,494,495,493,425
495,494,495,493,273
494,494,495,493,200
493,493,494,493,192
493,494,495,492,226
495,494,494,493,308
494,494,494,493,436
494,494,494,492,583
494,494,493,492,744
495,494,494,490,850
493,494,494,492,831
493,494,495,493,731
495,493,495,493,528
494,493,495,493,363
494,493,496,493,228
494,494,495,493,188
492,493,495,495,204
494,494,495,494,256
494,494,494,492,361
495,494,492,491,504
495,494,493,492,647
497,494,493,492,808
495,494,494,493,851
492,494,495,492,807
492,494,498,495,643
495,494,496,494,453
495,494,493,494,294
495,494,493,493,205
493,494,495,493,188
494,493,495,493,220
492,494,496,492,293
493,494,496,493,418
492,494,495,492,566
493,494,492,490,722
495,494,489,492,846
495,494,492,491,835
495,494,494,493,750
495,494,494,494,552
495,494,494,494,378
495,493,494,494,235
494,494,495,494,189
493,493,495,493,200
494,494,495,492,244
494,494,495,493,344
493,494,494,492,484
493,494,494,492,630
494,494,494,492,792
492,494,493,492,851
493,494,494,493,816
496,494,495,493,670
495,494,496,493,471
495,494,495,495,313
494,494,496,495,211
495,493,493,493,187
494,494,495,494,216
495,494,494,492,281
493,494,494,492,401
494,494,493,493,546
493,494,494,491,700
495,494,495,491,836
495,494,494,493,840
493,494,495,493,769
495,493,497,494,577
496,494,494,493,399
497,494,495,493,251
495,494,496,493,190
493,494,495,493,195
491,494,494,492,236
492,494,493,493,327
492,494,494,491,462
492,494,493,492,607
493,494,493,490,774
495,494,494,492,853
495,494,496,492,822
495,494,498,496,694
494,494,494,494,489
494,494,495,494,328
493,494,498,493,217
494,494,497,491,187
494,494,498,493,212
493,494,495,492,270
495,494,494,492,380
494,494,492,491,523
491,494,491,492,682
494,494,491,494,828
493,494,493,492,844
495,494,494,493,784
496,494,495,494,604
495,493,496,494,407
495,493,495,494,258
495,494,495,494,200
494,494,493,494,195
493,494,495,492,230
493,494,495,493,318
495,494,493,492,440
493,494,495,492,587
492,494,492,491,759
493,494,494,492,853
494,494,495,493,831
494,493,496,493,721
495,494,496,495,512
496,493,495,494,348
495,493,496,495,228
494,493,495,493,189
493,493,494,492,207
493,494,495,493,261
493,494,495,493,371
493,494,494,493,515
495,494,494,491,658
495,494,494,492,816
494,494,495,492,849
494,494,496,493,802
494,494,493,494,630
495,493,497,494,446
494,493,496,495,291
494,493,496,493,202
494,493,497,493,189
494,493,494,493,223
494,494,494,493,301
495,494,492,491,430
493,494,493,492,574
494,494,493,491,736
493,494,493,491,849
493,494,494,492,833
493,494,497,493,738
495,494,498,494,535
496,494,495,494,366
495,494,494,494,233
494,493,494,492,189
494,494,495,493,203
494,493,496,493,249
493,493,495,492,350
493,494,495,491,484
493,494,494,493,632
492,494,492,492,802
492,494,491,491,852
495,494,493,491,813
494,494,494,494,657
495,494,493,494,454
496,494,495,493,298
495,493,494,494,209
494,493,496,494,189
494,494,494,494,220
494,494,495,493,289
494,494,494,492,411
492,494,493,491,558
493,494,494,493,716
494,494,493,492,843
495,494,494,492,838
494,494,494,493,760
495,493,496,493,569
493,494,495,494,393
493,494,495,495,243
494,494,495,493,190
495,494,493,494,196
494,494,495,494,239
494,493,494,492,338
493,494,495,493,485
493,494,494,494,626
494,494,494,491,781
495,494,494,490,849
496,494,494,492,817
494,494,494,494,680
495,493,495,494,485
495,494,496,494,324
495,494,495,494,211
494,493,497,493,184
494,493,495,493,212
493,493,495,492,274
492,494,495,491,388
492,494,493,492,533
492,494,494,493,689
494,494,494,492,829
493,494,494,493,841
494,494,494,492,773
494,494,497,495,589
495,494,497,494,403
494,494,494,494,254
494,494,493,493,195
495,494,493,493,196
493,493,494,493,233
493,494,495,492,324
494,494,494,491,452
493,494,493,492,601
495,494,493,493,768
495,494,492,492,853
496,494,494,492,825
495,494,495,492,706
495,494,495,494,503
495,494,495,494,341
494,493,495,493,220
493,494,494,492,186
494,494,493,493,209
495,494,493,492,265
493,494,494,492,378
493,494,495,492,523
493,494,494,492,668
493,494,493,492,822
493,494,494,492,847
495,494,495,493,794
495,494,496,494,617
496,493,496,494,429
495,494,495,494,275
495,493,493,494,198
495,493,494,493,192
494,494,494,493,226
494,493,496,492,308
493,494,495,492,440
492,493,495,492,582
493,494,495,492,744
494,494,495,493,849
494,494,492,492,830
495,494,494,493,728
496,494,494,494,524
495,493,495,494,358
494,494,496,493,229
494,494,495,494,188
495,494,495,494,205
494,493,493,493,256
496,493,494,493,361
498,494,495,494,501
497,494,494,491,648
495,494,495,490,809
492,494,497,493,850
494,494,497,493,807
493,494,496,494,642
492,494,495,493,451
493,494,495,494,296
493,494,495,493,203
493,493,495,493,189
493,494,495,492,221
493,494,495,491,294
492,494,493,493,421
494,494,493,492,568
494,494,494,492,725
494,494,494,493,847
494,494,494,492,837
496,494,495,494,748
496,494,495,495,552
495,493,496,494,381
495,493,496,494,234
494,493,495,493,189
495,493,494,493,200
494,493,496,492,242
494,494,496,492,344
493,493,494,492,486
493,494,493,492,631
493,494,495,491,793
494,494,495,491,852
495,494,495,492,816
496,493,496,494,669
496,494,494,493,471
495,493,496,494,312
494,493,497,494,209
494,493,495,493,186
494,494,494,493,215
494,494,495,492,282
493,494,494,493,404
493,494,494,492,550
493,494,494,492,702
493,494,495,492,836
496,494,495,492,840
497,494,495,492,769
497,493,496,495,576
497,494,496,495,399
496,494,497,494,248
494,494,496,493,192
491,494,496,492,195
489,494,494,492,235
492,494,494,493,330
493,494,494,492,468
492,494,492,492,613
493,494,494,491,775
494,494,495,492,854
494,494,495,492,821
495,493,495,494,691
496,493,496,494,490
495,493,496,494,329
495,493,496,493,216
495,493,495,493,183
493,493,494,493,210
493,493,494,492,270
494,494,495,493,385
494,494,492,492,530
493,494,494,491,678
494,494,494,491,827
493,494,493,492,843
494,494,495,492,778
495,493,495,495,602
496,494,496,494,417
496,493,495,493,264
496,493,495,493,196
494,493,495,492,191
493,493,494,493,230
493,493,494,493,315
494,494,494,493,451
494,494,494,492,595
494,494,494,491,756
494,494,494,492,851
494,494,495,493,827
495,494,495,493,714
494,493,496,494,516
495,493,496,494,350
495,493,496,495,220
494,493,496,493,184
493,493,494,494,205
494,493,495,494,258
494,493,494,492,370
494,494,495,492,514
493,494,492,491,657
494,494,493,492,816
495,494,495,493,847
496,494,494,492,800
495,493,495,493,627
496,494,494,494,436
496,493,496,494,284
495,493,496,494,203
495,493,496,495,190
494,494,496,494,225
493,493,495,493,303
494,494,492,491,431
494,494,491,492,576
494,494,493,492,734
495,494,493,492,847
494,494,495,492,833
494,494,495,493,738
495,494,496,494,539
495,494,497,493,371
494,493,497,494,230
494,493,496,493,187
494,494,494,492,202
494,494,492,492,251
494,494,493,492,353
493,494,495,490,496
495,493,495,492,641
494,494,492,493,801
493,494,494,493,848
495,494,494,493,811
496,494,495,494,655
496,494,495,495,461
496,494,495,494,304
496,493,494,492,205
494,493,494,493,187
494,493,493,493,218
493,494,494,493,288
493,494,494,493,413
494,494,493,491,559
494,494,493,493,713
494,494,493,491,844
495,494,494,493,837
496,494,495,493,761
496,494,497,493,562
498,493,494,493,385
497,493,495,494,238
495,493,495,494,190
495,493,493,492,198
492,494,496,493,240
491,494,494,493,338
493,494,493,493,476
492,494,493,492,621
490,494,492,492,784
494,494,495,493,852
493,494,494,492,819
495,494,497,494,680
496,493,496,495,476
494,493,497,494,318
495,493,494,492,213
495,494,494,493,187
494,494,494,492,214
494,494,493,494,277
492,494,492,491,391
494,494,493,493,533
495,494,494,493,695
492,494,493,492,833
494,494,496,493,843
493,494,496,492,773
495,494,496,496,590
496,493,496,494,396
494,493,494,494,249
495,494,496,491,198
493,493,495,494,199
495,493,493,492,234
493,494,496,491,323
493,494,495,490,443
494,494,495,492,593
493,494,492,493,776
493,494,492,492,859
496,494,494,491,830
494,494,494,493,704
495,493,496,496,494
494,493,496,495,327
495,494,495,492,223
495,493,496,493,191
495,493,495,495,213
494,494,495,491,269
492,494,491,493,376
492,494,492,490,508
494,493,493,492,676
494,494,494,494,831
494,494,492,491,851
494,494,495,493,796
494,494,495,495,618
496,493,495,493,406
496,493,496,494,262
494,494,496,494,206
494,494,495,494,194
494,493,494,494,231
494,493,494,494,315
494,493,493,492,429
497,494,493,491,569
493,494,496,493,758
495,494,497,491,858
494,494,497,494,838
493,494,497,491,730
495,494,493,493,521
493,493,494,495,342
493,493,495,492,236
494,493,493,492,193
493,493,496,493,210
492,493,494,494,261
491,494,495,492,363
494,494,493,493,490
492,494,494,491,649
495,494,494,492,816
493,494,495,492,853
494,494,496,491,812
494,494,494,493,642
494,493,494,495,431
494,493,496,492,280
493,493,495,493,212
495,493,494,493,192
494,494,494,492,226
493,494,494,494,300
492,494,495,491,414
493,494,493,491,551
493,494,493,491,733
493,494,493,492,854
494,494,496,493,840
496,494,496,492,753
495,494,495,494,553
496,493,497,493,359
494,493,496,492,244
493,493,497,494,194
494,493,496,491,205
493,493,493,491,248
492,494,493,494,349
492,494,496,493,472
493,494,494,491,626
493,494,493,491,803
496,494,493,493,856
496,494,494,494,819
496,494,494,493,672
496,493,495,493,458
497,494,497,494,302
497,494,493,492,217
496,493,496,493,191
494,494,496,492,219
493,494,497,491,285
489,494,497,491,400
489,494,494,490,537
491,494,491,492,712
491,494,492,491,843
496,494,495,491,846
494,494,497,492,770
494,494,496,495,578
497,493,494,492,376
493,494,492,494,249
495,494,492,494,198
493,494,493,491,200
492,494,493,494,241
493,494,495,491,332
494,494,494,495,451
494,494,492,491,601
495,494,492,493,785
493,494,495,493,861
496,494,495,493,825
493,494,494,493,692
495,494,497,495,482
495,494,497,493,314
494,494,493,495,221
493,494,497,492,192
496,494,496,493,217
493,493,494,494,274
492,494,496,491,383
495,494,495,493,515
493,494,491,492,687
494,494,492,492,836
495,494,493,491,850
494,494,496,493,782
497,493,494,493,606
497,493,495,494,398
494,493,496,494,257
497,493,494,492,204
494,493,495,492,196
493,494,495,491,232
492,494,493,493,318
494,494,494,494,433
491,494,493,492,583
494,494,494,492,767
493,494,494,491,859
495,494,494,493,833
494,494,495,494,720
496,493,494,495,510
497,494,495,493,338
497,493,497,494,227
496,493,495,493,191
494,493,494,493,209
494,493,495,494,262
495,494,493,492,368
491,494,494,491,510
493,494,493,490,662
491,494,491,492,822
493,494,493,493,851
495,494,495,494,803
496,494,494,494,630
496,493,495,493,425
495,493,498,493,273
496,493,499,492,207
496,494,496,492,192
495,494,493,491,225
496,493,493,493,304
496,493,494,494,419
493,493,494,493,557
493,494,495,491,746
495,494,494,493,853
494,494,495,491,836
496,494,496,494,737
495,494,496,493,533
494,493,497,493,345
495,493,496,493,239
495,494,491,495,197
495,494,492,495,209
493,494,494,494,258
494,494,494,492,356
494,494,495,492,476
493,494,494,492,640
494,494,492,491,809
494,494,493,493,858
494,494,494,494,817
496,494,494,494,655
496,494,496,493,454
496,494,496,493,301
496,493,496,493,209
494,493,495,493,190
495,493,495,493,222
495,493,495,491,293
494,494,493,492,432
492,494,492,492,579
494,494,494,492,713
495,494,493,490,840
494,494,495,491,833
495,494,494,492,755
494,494,496,493,583
494,493,496,493,415
495,493,495,495,258
495,493,495,493,175
494,493,496,494,188
494,494,494,493,231
494,493,494,493,347
494,493,494,491,497
495,493,494,491,635
494,494,494,491,773
495,494,493,491,841
496,493,494,493,807
496,494,495,493,670
497,494,496,494,477
496,494,495,494,316
496,493,495,494,204
494,493,494,494,180
492,494,494,492,208
493,493,494,492,272
493,494,495,492,386
493,494,494,492,530
492,494,494,492,691
492,494,494,492,831
495,494,494,492,840
495,494,495,493,772
496,494,495,493,584
495,494,497,493,394
496,494,498,494,249
494,494,495,493,195
493,494,491,492,194
493,494,492,494,233
494,494,492,493,325
494,494,493,493,454
492,494,494,493,600
493,494,495,492,771
494,494,495,492,855
494,494,496,492,827
495,494,495,492,701
495,494,494,494,504
496,494,495,494,341
495,494,496,495,218
495,493,496,494,183
494,494,495,494,208
494,494,494,492,265
492,494,493,492,387
492,494,493,492,535
493,494,492,492,676
494,494,493,491,823
494,494,494,492,843
495,494,495,491,789
497,493,496,493,619
495,494,496,494,438
494,493,496,493,282
494,494,493,493,190
494,494,495,494,185
494,494,494,492,221
494,494,493,492,307
495,494,494,493,448
493,494,493,493,590
493,494,494,493,744
493,494,493,492,846
495,494,494,493,825
495,494,495,493,721
496,494,497,494,522
495,494,496,494,354
495,494,497,494,223
493,494,496,493,186
493,494,493,494,203
493,494,494,493,254
493,494,494,492,359
494,494,494,491,502
493,494,492,491,646
493,494,491,491,811
495,494,494,491,850
496,494,496,493,807
495,494,495,493,638
496,494,496,495,443
496,493,495,494,287
494,494,492,492,204
493,494,494,492,190
492,493,495,493,223
493,494,493,493,299
492,494,493,492,426
493,494,495,492,572
493,494,494,492,729
494,494,494,492,848
494,494,493,493,836
496,494,494,493,746
496,494,495,494,553
494,494,496,495,384
494,493,494,494,234
494,493,494,494,186
494,494,495,494,199
493,494,495,493,245
494,494,493,493,348
493,494,492,491,496
494,494,493,492,636
494,494,494,492,792
494,494,496,492,851
495,494,496,493,813
496,494,496,494,663
496,494,497,493,471
494,494,495,493,309
494,494,494,493,204
494,494,494,494,184
494,494,494,493,214
493,493,494,493,281
493,494,494,493,404
494,494,493,492,551
495,494,493,492,704
495,494,494,492,838
495,494,493,492,839
494,494,494,493,765
494,494,496,493,571
495,494,495,494,393
495,493,495,494,242
495,493,495,492,192
493,494,496,492,197
493,494,496,492,236
493,494,493,491,331
492,494,494,492,471
494,494,494,493,615
493,494,492,491,779
495,494,493,493,853
495,494,493,492,821
495,494,495,493,689
496,494,495,495,490
494,493,495,494,328
494,494,495,494,214
494,493,495,492,185
494,493,495,493,211
494,493,494,492,270
493,493,495,492,391
494,494,495,491,534
493,494,494,492,681
495,494,492,492,826
495,494,493,492,841
494,494,494,492,777
496,494,494,493,598
496,494,495,494,415
495,493,495,494,263
494,493,492,493,195
495,493,495,494,191
493,493,495,492,229
495,494,494,491,316
494,494,495,491,451
495,494,495,491,596
494,494,494,493,759
494,494,490,490,851
494,494,492,494,828
495,494,495,496,714
496,494,495,494,509
497,494,494,494,345
496,493,495,493,221
494,493,495,493,185
493,493,493,494,207
493,494,494,492,260
494,493,494,492,369
494,494,493,493,515
494,494,494,492,662
495,494,494,492,822
494,494,495,494,847
494,494,493,491,801
495,494,494,492,622
497,494,493,494,433
494,494,494,494,277
494,493,494,493,202
494,493,494,493,189
494,494,494,493,224
494,494,495,492,305
494,494,495,492,431
492,494,494,492,577
495,494,493,492,741
494,494,494,492,850
494,494,496,492,833
495,494,496,493,735
496,493,497,494,532
496,493,493,494,365
496,493,495,494,229
493,494,496,493,190
493,494,493,493,203
494,493,495,493,254
495,494,493,493,355
494,494,492,492,497
494,494,495,492,642
494,494,494,491,806
494,494,494,493,852
494,494,497,493,812
493,493,496,494,651
495,494,493,494,457
495,494,495,495,301
495,494,494,494,205
495,493,496,493,188
495,493,494,492,218
495,494,492,492,290
494,494,494,493,414
495,494,493,491,561
495,494,493,491,719
494,494,494,491,844
494,494,494,491,837
495,494,494,493,756
496,494,496,494,559
496,494,496,495,386
494,493,496,495,237
493,494,494,493,189
493,493,494,492,197
493,494,494,493,242
493,494,494,493,339
493,494,493,493,476
492,494,492,492,622
495,494,492,491,789
494,494,495,492,854
496,494,494,492,820
496,494,496,493,675
496,494,497,494,474
496,494,494,493,314
494,494,493,492,213
494,494,494,493,186
496,494,495,492,214
495,494,495,493,278
493,494,494,492,393
492,494,494,492,538
492,494,493,492,696
493,494,494,491,834
495,494,495,492,842
495,494,494,493,772
495,494,494,494,583
493,494,495,493,400
494,494,493,494,251
495,494,494,494,195
494,494,495,492,195
495,493,495,493,233
493,493,495,493,326
493,494,493,492,461
494,494,494,491,608
494,494,493,491,770
494,494,493,492,853
495,494,494,493,824
495,494,496,493,699
494,493,494,493,504
494,494,496,494,340
495,494,497,493,215
494,493,496,493,182
494,493,496,493,207
493,494,495,492,265
494,494,493,492,381
494,494,493,493,526
494,493,495,493,672
494,494,494,493,824
493,494,495,492,844
495,494,495,492,787
495,494,492,494,611
496,494,494,494,424
496,494,494,495,270
496,494,495,494,196
495,493,494,492,189
494,493,493,493,227
494,494,495,492,310
495,493,494,492,441
496,494,495,493,586
498,494,493,492,751
494,494,492,492,851
493,494,494,493,830
493,494,495,493,723
494,493,495,493,518
495,493,494,492,351
494,494,496,495,224
494,494,494,494,186
492,494,495,492,204
492,494,495,492,255
493,494,494,492,361
494,494,496,492,506
494,494,495,491,651
492,494,494,491,812
495,494,492,492,851
495,494,495,492,804
496,494,495,493,636
495,494,497,493,442
495,494,497,494,287
496,494,495,494,204
495,493,494,493,190
495,494,491,494,223
494,494,494,495,299
495,494,493,494,426
494,494,493,492,570
494,494,494,491,731
494,494,494,491,848
495,494,494,492,834
497,494,496,493,744
495,494,495,493,547
496,494,497,493,375
495,494,497,495,233
496,494,496,495,188
497,494,492,492,201
494,494,493,492,248
495,494,493,492,346
494,494,495,493,488
492,494,494,492,634
494,494,493,492,797
495,494,495,493,853
493,494,495,493,815
494,493,495,494,664
496,494,496,495,465
496,494,495,493,308
496,493,495,492,208
495,494,495,493,187
494,494,495,493,218
493,494,494,492,285
494,494,494,493,404
494,494,495,492,550
495,494,494,492,709
495,494,494,493,841
497,494,495,492,839
496,494,496,493,765
496,494,493,493,569
496,494,494,494,391
495,494,495,494,242
495,494,494,493,190
494,493,494,495,197
494,494,494,494,237
494,494,495,493,333
494,494,495,493,471
494,494,495,493,617
493,494,494,493,780
494,494,493,492,854
496,494,494,493,823
497,494,495,493,688
497,494,495,495,484
495,494,495,494,321
496,494,496,494,216
493,494,496,494,188
492,494,494,493,212
494,494,494,492,272
494,494,495,493,387
494,494,494,493,531
494,494,494,492,684
494,494,494,491,830
496,494,495,492,845
494,494,495,492,778
494,494,495,494,596
495,494,491,494,411
496,494,495,495,262
495,493,495,495,196
495,494,496,493,194
495,493,495,493,232
494,493,494,493,321
494,494,494,491,456
495,494,493,492,599
494,494,493,492,761
494,494,493,491,853
495,494,493,493,828
496,494,495,493,712
496,494,495,494,515
495,494,495,494,348
496,493,497,494,219
495,493,497,493,184
493,493,496,494,206
495,493,496,492,260
496,494,494,492,371
494,494,491,492,517
494,494,492,494,662
493,494,492,494,819
494,494,494,492,847
495,494,495,494,798
495,494,496,494,624
494,494,498,495,432
496,494,496,494,275
496,494,493,493,200
496,493,495,494,190
495,494,494,493,225
494,494,493,493,304
493,494,493,492,432
493,494,494,492,578
494,494,493,491,742
493,494,494,492,851
494,494,494,493,832
496,494,495,493,734
496,494,495,493,532
494,494,496,494,364
495,493,496,495,230
495,494,495,494,190
494,493,496,493,202
494,494,494,492,254
494,494,494,493,358
494,494,494,493,501
494,494,493,492,644
493,494,493,492,806
494,494,494,492,852
496,494,496,494,810
495,494,496,494,649
497,494,496,494,456
496,494,497,494,299
495,494,498,494,204
494,494,490,493,186
495,494,492,493,219
496,494,493,495,291
495,493,494,493,418
495,494,495,492,563
495,494,493,491,720
494,494,494,493,845
495,494,496,492,835
494,494,495,493,753
495,494,495,493,556
496,494,495,494,382
495,493,496,495,238
494,494,494,493,189
494,494,494,494,198
492,494,495,493,243
493,494,495,493,339
493,494,494,493,479
494,494,495,492,625
495,494,494,491,791
495,494,495,492,854
494,494,494,493,820
495,494,495,493,675
494,494,496,494,474
495,494,496,494,317
496,494,496,493,209
494,494,495,493,185
494,493,495,494,215
494,494,496,493,279
493,494,495,492,399
492,494,495,492,544
494,494,495,491,696
494,494,492,491,833
493,494,496,493,842
494,494,496,493,772
496,494,494,494,583
496,494,494,493,402
496,494,495,493,251
494,493,495,493,191
495,494,495,495,196
492,494,495,495,233
495,494,493,495,325
493,494,492,492,460
495,494,492,490,606
494,494,493,488,769
493,494,493,493,852
494,494,493,494,823
494,494,494,495,700
496,494,497,495,486
497,494,497,495,320
495,493,495,496,220
495,494,495,493,187
493,493,497,494,212
493,494,496,491,272
492,494,495,494,376
493,494,494,490,504
495,494,496,492,680
493,494,496,491,832
495,494,498,492,848
494,494,496,491,793
495,494,496,495,610
496,494,492,493,399
496,494,494,495,261
498,494,497,491,202
494,494,494,493,198
492,494,496,493,232
492,494,493,491,313
490,494,493,491,430
495,494,492,493,577
493,494,492,493,761
492,494,496,491,857
496,494,497,494,834
496,494,497,495,728
496,494,497,496,517
493,494,496,495,351
495,494,497,496,230
492,494,496,491,192
492,494,497,495,210
495,494,496,494,258
494,494,492,493,367
495,494,492,492,501
495,494,492,492,656
496,494,493,493,819
495,494,495,490,852
495,494,494,495,807
495,494,497,492,640
494,494,494,492,430
495,494,495,493,274
495,494,497,493,208
493,494,494,494,193
494,494,494,495,225
492,493,495,492,304
495,494,495,491,420
495,494,495,491,558
494,494,492,492,738
493,494,494,490,852
496,494,492,493,838
496,494,493,494,744
496,494,496,492,546
495,494,496,492,355
495,494,493,494,243
492,494,496,495,196
493,493,496,492,203
493,494,493,494,253
492,494,494,495,352
492,494,494,492,474
493,494,495,491,629
492,494,493,491,805
493,494,492,492,859
496,494,493,494,821
495,494,494,493,663
494,494,498,493,451
494,494,494,494,297
496,494,494,495,218
496,493,496,495,191
492,494,495,492,222
493,494,496,493,289
495,494,492,492,402
492,494,496,491,543
494,494,494,494,719
492,494,492,492,846
495,494,495,495,842
495,494,495,491,767
494,494,497,495,569
495,494,495,495,379
495,494,496,495,247
493,493,496,494,197
494,493,497,495,202
494,494,495,492,239
496,494,496,494,335
494,494,493,494,458
494,494,495,493,607
492,494,492,490,788
493,494,493,490,859
495,494,493,490,825
496,494,495,492,687
496,494,498,494,476
496,494,495,492,310
494,494,499,492,218
493,494,498,495,187
493,494,494,495,215
495,494,494,495,275
496,494,493,494,388
495,494,493,493,521
495,494,492,490,690
493,494,492,492,834
492,494,493,490,848
496,494,495,494,776
493,494,497,494,593
495,493,495,494,399
495,493,494,493,255
493,494,496,493,197
495,493,493,492,198
493,493,496,492,233
494,494,494,493,324
496,494,496,493,440
493,493,494,491,586
497,494,495,490,768
493,494,494,491,860
494,494,495,492,830
496,494,494,495,713
494,494,495,493,505
495,494,493,495,326
496,494,494,495,230
493,494,494,493,188
494,494,493,495,211
493,494,494,493,267
494,494,495,494,375
494,494,494,492,500
493,494,493,492,670
494,494,493,491,828
494,494,494,493,852
495,494,495,492,803
495,494,497,493,626
497,494,498,493,426
496,494,498,494,278
495,493,497,494,201
495,494,494,492,193
493,494,491,491,228
492,494,494,492,311
492,493,495,493,455
495,494,494,492,600
495,493,493,493,739
494,494,493,492,847
495,494,494,492,830
495,494,494,492,732
496,494,494,494,554
494,493,497,494,386
496,494,497,495,234
494,493,495,493,178
493,493,494,494,195
494,494,494,493,247
494,493,494,492,366
494,494,494,491,514
493,494,495,491,651
493,494,495,492,796
495,494,496,493,843
494,493,493,493,802
496,494,492,494,639
496,494,494,493,448
495,494,495,494,291
494,493,495,494,201
494,494,494,494,184
493,493,495,492,217
494,494,494,491,291
494,494,494,493,409
494,494,492,492,553
494,494,493,492,722
494,494,494,492,848
495,494,495,493,837
495,494,496,494,750
495,493,495,494,554
495,493,494,495,374
494,493,495,495,239
494,493,494,493,191
494,493,493,493,200
495,493,495,492,243
493,494,494,492,342
493,494,492,492,480
494,494,494,492,627
494,494,492,491,795
494,494,494,492,855
495,494,494,493,817
495,494,495,494,674
496,494,496,493,481
496,494,496,494,322
496,494,497,494,208
495,493,496,493,182
494,494,495,492,213
493,494,493,493,279
492,494,493,492,410
494,494,492,493,554
493,494,492,491,695
493,494,492,490,829
493,494,494,492,839
493,494,498,495,767
496,494,496,494,580
496,494,495,494,401
496,494,495,494,248
494,493,496,493,190
493,493,495,492,193
493,493,495,492,232
494,493,495,493,324
494,493,493,495,458
493,494,494,492,604
495,494,495,493,775
494,494,494,491,854
495,494,495,493,825
496,493,494,494,698
496,494,495,494,487
495,494,495,495,324
496,494,493,495,218
493,494,493,494,186
494,494,493,493,212
494,493,495,492,269
495,493,494,491,380
495,493,496,491,519
493,494,495,490,678
494,494,495,491,829
493,494,491,492,848
495,494,494,493,786
494,494,496,494,607
495,494,498,494,417
495,494,497,493,267
494,493,494,494,199
495,494,494,494,194
493,494,494,494,230
493,494,493,492,316
493,494,493,491,450
494,494,494,492,595
494,494,493,492,753
495,494,494,492,852
497,494,493,493,830
496,494,494,493,721
495,493,494,495,525
495,494,495,494,357
495,493,495,495,220
495,493,494,493,182
494,493,495,492,204
493,493,494,493,256
493,494,494,493,365
493,494,494,493,506
492,494,494,493,653
493,494,493,492,815
494,494,494,493,848
496,494,495,493,804
495,494,495,493,630
497,494,496,494,433
496,493,496,494,279
497,493,496,493,204
493,494,496,493,192
494,494,492,493,224
492,494,493,491,300
494,494,496,492,419
493,494,493,491,568
493,494,494,491,736
493,494,494,491,852
495,494,492,492,837
495,494,493,493,741
494,494,496,494,539
495,493,495,494,366
495,493,495,494,236
495,493,494,492,191
494,493,493,494,204
494,494,492,492,252
494,494,493,492,349
492,494,495,492,491
494,494,494,492,636
493,494,494,492,802
494,494,495,492,855
495,494,494,492,815
495,494,495,494,659
494,493,495,494,467
495,493,495,494,309
495,493,495,494,205
494,493,494,492,186
494,493,494,493,217
493,493,494,494,287
494,494,494,492,417
494,494,494,493,561
494,494,493,492,710
494,494,494,491,841
495,494,497,493,838
495,494,498,494,763
496,494,496,493,571
494,494,495,494,395
495,493,494,494,243
494,494,492,494,187
495,494,494,493,194
492,494,494,493,237
495,494,493,493,334
494,494,493,493,474
495,494,493,492,621
494,494,493,491,784
493,494,493,491,853
495,494,495,492,820
494,494,494,494,682
497,494,496,494,478
496,494,495,494,320
494,493,495,493,211
494,494,496,494,183
493,494,494,493,211
494,493,493,492,275
494,494,494,493,389
495,494,493,492,535
495,494,494,491,689
495,494,494,492,828
493,494,494,491,844
493,494,494,493,775
494,494,496,494,589
495,494,494,494,408
494,494,495,493,258
495,493,495,494,195
495,493,495,493,195
494,493,494,493,231
494,494,496,493,322
493,494,495,492,458
494,494,493,491,603
494,494,494,492,764
493,494,495,491,853
494,494,494,491,826
496,494,493,492,705
495,494,495,493,509
495,493,495,494,344
495,494,495,495,218
494,493,494,494,183
495,493,494,492,207
494,494,494,492,263
492,493,494,493,376
494,494,493,491,517
493,494,494,492,664
494,494,493,491,822
495,494,494,493,845
495,494,495,493,794
496,493,495,494,618
495,494,497,493,428
494,494,495,494,275
495,494,494,493,199
494,493,493,493,189
494,493,494,492,225
495,493,495,492,308
494,493,495,493,437
495,494,494,491,582
494,494,494,491,745
493,494,495,491,851
494,494,494,492,832
495,494,492,492,731
496,493,494,493,528
495,494,497,494,359
496,494,496,494,227
494,494,495,494,188
494,493,493,494,204
492,494,495,492,254
494,494,494,492,359
494,494,494,493,504
493,494,495,492,647
493,494,495,492,809
494,494,494,493,850
494,494,495,493,809
496,494,492,492,641
496,494,494,493,452
494,494,494,494,296
495,493,495,494,204
494,493,494,494,188
494,494,494,493,220
493,494,493,493,294
495,493,494,492,425
493,494,495,492,568
493,494,494,492,722
493,494,495,492,845
494,494,493,493,834
496,494,494,493,747
496,494,496,495,554
495,494,495,495,382
493,494,496,495,236
493,494,496,493,189
494,493,494,491,198
494,494,494,493,243
494,494,494,493,343
494,494,494,492,483
494,494,495,491,628
494,494,493,491,792
493,494,494,493,853
495,494,495,493,815
494,494,495,493,669
494,494,496,494,471
496,493,495,494,313
494,493,496,492,207
495,493,494,494,184
496,493,494,493,215
495,494,494,492,280
493,494,494,492,401
492,494,495,492,547
494,494,495,490,702
494,494,494,492,837
497,494,492,492,838
497,494,494,493,771
497,494,494,495,578
496,493,495,493,399
494,493,496,494,248
494,493,495,493,192
494,494,494,493,195
493,494,493,493,235
492,494,493,492,328
494,494,493,492,467
494,494,493,491,614
494,494,494,491,774
493,494,492,491,852
494,494,493,493,822
494,494,493,492,691
495,494,495,493,494
494,494,497,494,331
494,493,496,494,214
494,493,497,494,183
494,493,495,493,208
493,494,494,491,267
493,494,492,492,386
494,494,494,491,529
495,494,490,491,676
494,494,492,492,826
495,494,495,494,844
495,493,494,493,782
495,493,496,494,602
495,494,496,493,417
495,493,496,493,266
495,493,495,492,198
494,493,495,493,192
494,494,493,494,228
492,494,494,494,315
492,494,493,492,447
492,494,493,492,592
493,494,494,492,754
494,494,493,492,851
494,494,493,492,829
496,494,494,493,718
495,494,496,494,516
496,493,496,493,351
494,493,495,492,222
495,494,494,493,186
494,493,494,493,204
494,494,495,492,259
493,493,495,492,368
495,494,494,492,512
494,494,494,492,659
494,494,494,491,816
495,494,495,493,847
495,494,494,494,800
495,494,496,493,629
496,494,496,495,439
495,494,496,494,284
495,493,496,493,201
497,493,496,493,187
495,494,496,494,220
492,494,494,491,302
493,494,493,491,421
494,494,495,491,570
493,494,495,491,737
493,494,493,491,851
496,494,493,491,836
496,494,495,494,739
493,494,497,492,536
493,494,494,494,358
495,494,495,495,234
496,494,493,494,189
494,494,495,494,205
494,494,495,493,254
496,494,495,490,353
493,494,492,490,481
493,494,495,491,631
494,494,494,493,800
494,494,495,491,854
494,494,494,492,814
493,493,497,493,654
495,494,497,493,446
496,493,497,494,291
495,494,498,493,213
494,494,493,493,192
494,494,493,492,221
494,494,493,492,291
494,494,494,492,405
492,494,495,492,552
494,494,493,493,716
492,494,492,492,847
494,494,493,492,840
495,494,495,493,762
496,494,495,494,569
496,494,495,494,395
494,493,496,494,246
495,494,496,494,190
493,494,496,493,198
493,494,492,493,240
494,494,493,492,343
493,494,493,492,493
494,494,494,491,634
494,494,494,492,778
495,494,493,492,848
494,494,494,493,815
495,494,494,493,680
496,494,495,494,495
496,493,495,493,334
493,494,494,494,205
493,494,494,493,179
493,494,494,493,207
493,494,495,492,272
493,494,494,492,399
494,494,495,491,542
493,494,494,491,687
493,494,494,491,825
494,494,493,492,837
494,494,494,492,770
495,493,495,494,585
496,494,497,494,401
495,493,496,494,253
495,494,497,493,193
493,494,494,493,192
493,494,494,493,230
494,494,493,492,320
494,494,494,492,451
494,493,493,491,598
494,494,492,493,767
494,494,493,493,852
496,494,494,493,825
495,494,494,492,704
495,494,495,493,496
494,493,495,493,336
494,493,495,492,221
493,494,496,493,187
494,493,496,493,210
494,493,495,494,267
492,493,495,492,378
492,494,495,492,523
494,494,493,491,670
495,494,494,490,823
493,494,494,492,847
495,494,496,493,793
497,494,497,494,616
497,493,494,493,433
498,493,496,494,277
497,494,497,494,198
494,493,493,494,189
495,494,494,493,224
488,494,495,492,308
491,494,493,493,443
492,494,492,490,585
493,494,491,492,745
494,494,494,492,850
496,494,494,493,829
496,494,495,493,728
495,493,495,493,524
495,493,494,493,356
493,494,495,493,225
493,494,494,493,186
493,494,494,493,203
493,494,494,493,255
493,494,494,493,359
493,494,495,492,503
493,494,494,492,648
493,494,493,491,811
495,494,494,493,851
495,494,494,493,808
497,494,494,493,640
496,494,495,495,447
494,493,495,494,292
495,493,495,494,205
493,494,496,493,189
494,494,497,494,221
493,494,495,492,297
492,494,494,491,424
493,494,492,494,572
494,494,492,492,726
494,494,492,492,848
496,494,494,492,836
495,494,495,494,747
494,493,495,494,553
496,493,495,495,383
495,493,495,493,233
495,493,495,493,188
494,493,494,493,199
493,493,496,493,244
493,494,493,492,344
492,494,494,491,489
494,494,494,492,632
494,494,494,492,793
495,494,494,493,851
495,494,495,492,815
496,494,496,493,666
495,494,497,494,469
495,494,496,493,312
495,494,497,494,209
494,493,493,492,185
495,493,496,492,216
494,493,496,493,283
493,493,495,493,403
494,494,492,492,548
493,494,490,491,704
492,494,491,492,837
493,494,494,493,839
495,494,495,493,767
495,494,495,494,577
496,494,495,493,396
494,493,494,492,246
494,493,495,492,191
495,494,496,493,194
493,494,493,494,235
493,494,494,493,330
494,494,494,492,468
493,494,494,491,615
493,494,494,491,778
495,494,494,491,854
495,494,494,491,823
497,494,495,493,691
495,494,495,494,487
494,494,495,493,327
494,494,495,494,216
494,494,495,494,186
493,494,494,492,212
493,493,495,493,272
493,494,494,493,385
493,494,494,491,531
493,494,494,491,680
493,494,494,490,827
494,494,495,491,844
494,494,496,492,779
496,494,496,492,600
496,494,493,492,418
496,494,495,496,267
495,494,493,492,195
494,494,495,492,192
492,494,495,493,229
492,494,494,494,318
494,494,493,492,451
495,494,494,492,594
494,494,495,491,756
494,494,495,492,852
495,494,494,492,828
496,494,495,493,712
493,494,495,494,507
494,493,495,494,345
496,494,495,494,224
495,493,494,493,187
494,493,495,492,207
493,494,495,492,260
493,494,495,492,369
492,494,494,492,510
493,494,492,490,657
493,494,493,490,819
494,494,491,494,850
494,494,495,492,801
497,493,496,493,629
495,493,495,494,431
494,494,495,493,276
494,494,494,493,205
494,494,495,493,191
494,494,494,492,226
493,494,493,493,304
494,494,495,492,427
494,494,495,492,573
492,494,495,492,743
494,494,495,492,852
494,494,494,492,833
494,494,496,493,739
495,493,497,494,535
496,494,495,494,366
495,494,493,493,230
495,494,494,493,190
494,493,494,494,204
494,494,495,493,253
493,494,494,493,356
492,494,494,493,499
492,494,494,492,643
493,494,493,492,802
494,494,493,491,851
495,494,495,492,811
494,494,495,494,651
495,494,496,494,462
495,493,495,494,304
496,494,495,492,205
494,493,494,492,186
494,494,496,493,219
492,494,495,491,292
493,494,494,492,413
493,494,493,491,558
494,494,493,492,714
494,494,493,492,844
494,494,493,492,837
495,494,494,493,754
495,494,495,493,558
495,493,496,494,382
494,493,495,493,238
494,494,494,493,192
494,493,493,493,200
493,494,495,493,241
494,494,495,494,337
494,494,494,492,472
494,494,493,491,618
494,494,494,491,791
494,494,494,492,855
496,494,495,492,818
495,494,496,492,680
494,494,498,495,475
494,493,494,493,316
495,494,494,494,214
494,494,494,492,188
493,493,494,493,217
494,493,495,493,279
492,494,494,493,396
494,494,494,494,538
494,494,494,491,695
493,494,494,492,833
495,494,495,493,843
496,494,494,492,774
495,494,495,494,588
495,493,495,493,408
495,493,495,494,257
492,494,495,492,195
493,493,496,493,194
494,493,496,492,233
493,493,495,494,326
494,494,494,493,469
495,494,493,494,612
494,494,494,492,766
493,494,494,492,849
494,494,494,492,821
494,494,495,492,697
496,494,495,493,505
495,494,495,493,340
495,494,494,493,215
493,494,495,493,182
493,493,495,493,208
492,494,496,494,264
492,494,496,493,379
492,494,493,491,521
493,494,494,491,667
494,494,494,492,822
494,494,495,494,844
494,494,495,493,790
497,494,494,493,610
497,494,495,493,421
495,494,496,494,268
494,493,495,493,198
495,493,495,494,192
493,493,494,494,229
494,494,496,493,310
494,493,494,492,439
493,494,493,493,584
493,494,494,492,751
494,494,494,493,853
495,494,493,491,831
494,494,494,493,725
496,494,495,494,523
496,494,496,493,358
495,493,495,493,225
494,493,495,493,187
493,493,495,492,204
494,493,495,493,257
494,494,494,493,365
494,494,494,492,510
495,494,493,491,653
494,494,494,492,812
495,494,494,491,848
496,494,495,493,806
496,494,495,494,638
497,494,497,494,449
494,494,496,494,292
494,493,495,492,202
494,493,495,493,187
493,494,495,491,221
493,494,494,493,297
493,494,494,492,428
493,494,494,490,572
495,494,494,491,728
494,494,495,491,844
494,494,497,492,831
493,494,497,493,745
495,494,496,494,546
495,493,493,492,375
494,494,495,494,233
494,494,494,493,189
495,493,494,494,201
493,493,495,493,247
493,494,493,492,348
492,494,494,493,487
495,494,494,492,632
494,494,494,490,794
495,494,493,492,851
497,493,496,492,815
495,494,496,493,661
496,493,496,494,464
495,494,496,493,309
494,494,495,493,209
494,493,495,492,188
494,493,495,493,218
494,494,494,493,286
494,494,495,493,408
494,494,493,493,551
494,494,494,492,705
494,494,494,491,839
495,494,494,492,838
495,494,495,492,764
496,494,495,493,573
494,494,497,493,396
494,493,496,494,246
494,493,495,494,191
493,493,496,493,196
494,493,494,492,236
494,493,494,493,333
496,494,493,492,475
496,494,494,491,618
495,494,494,491,779
493,494,494,493,852
493,494,496,491,819
492,494,495,493,687
494,494,495,494,490
494,493,495,494,328
494,493,495,493,213
494,493,496,493,184
493,493,496,493,211
494,493,495,493,272
494,493,494,493,389
494,494,493,493,532
493,494,493,491,683
494,494,493,491,826
494,494,495,495,841
494,494,496,493,776
493,494,496,493,595
495,494,497,494,411
496,494,496,494,262
495,493,495,493,197
493,493,497,492,194
494,494,494,493,231
493,494,494,493,319
493,494,494,492,453
494,494,493,493,598
494,494,494,491,758
495,494,494,491,850
494,494,494,492,826
494,494,495,493,710
495,494,496,493,510
494,494,495,494,347
494,494,494,493,221
495,493,495,494,184
495,493,494,493,207
492,494,495,493,261
493,494,495,493,372
493,494,493,492,516
494,494,494,492,661
494,494,494,491,819
495,494,495,493,847
495,494,496,492,797
496,494,496,493,624
496,494,495,494,436
495,493,495,494,281
495,493,494,494,198
494,493,495,492,190
493,494,495,492,223
493,494,493,492,304
494,494,494,491,434
494,494,494,491,579
496,494,493,491,740
494,494,492,492,849
496,494,495,493,830
495,494,496,493,735
493,494,497,495,532
494,493,497,493,364
495,494,496,494,229
494,494,495,494,189
494,493,495,492,203
493,494,495,493,254
494,494,495,491,356
494,494,494,491,497
493,494,494,492,643
493,494,494,491,804
495,494,494,492,849
495,494,495,492,810
496,494,497,493,647
495,494,496,494,453
495,493,496,494,298
496,494,496,493,205
494,493,494,493,187
494,494,494,492,219
493,494,495,493,292
493,494,495,491,420
493,494,494,492,564
493,494,494,491,716
494,494,494,493,842
495,494,494,493,834
494,494,494,495,754
496,494,496,493,560
496,494,496,494,388
494,494,496,494,238
493,493,495,493,187
492,494,494,492,197
492,494,494,493,241
493,494,495,493,340
493,494,494,491,483
494,494,493,492,627
493,494,493,491,786
494,494,495,491,851
494,494,494,493,816
496,494,495,492,673
496,494,496,493,476
495,494,496,495,317
494,494,495,494,211
494,494,495,493,186
493,493,494,493,215
494,493,494,492,278
494,494,494,492,397
495,494,495,492,541
494,494,494,491,696
493,494,493,492,833
494,494,495,492,839
495,494,495,493,768
495,494,496,493,581
495,494,496,493,402
494,493,496,494,251
494,493,497,493,193
494,493,496,493,196
495,493,495,493,233
493,494,494,492,327
494,494,492,491,465
494,494,493,491,609
495,494,494,492,771
495,494,493,492,851
495,494,494,491,821
493,494,495,492,699
496,493,495,492,496
498,493,495,494,333
496,493,495,493,216
495,494,494,494,185
495,493,494,493,211
492,494,495,493,270
492,494,494,494,378
492,494,493,491,519
495,494,495,492,675
493,494,495,490,825
494,494,496,493,845
495,494,496,492,786
494,494,496,492,606
496,494,496,493,409
494,494,496,493,259
493,494,497,494,199
491,494,496,494,192
491,494,495,493,227
492,494,491,493,315
493,494,495,494,432
495,494,493,491,575
495,494,494,492,756
495,494,495,492,854
495,494,495,492,831
495,494,495,493,725
496,493,496,493,515
494,494,495,494,342
494,493,495,494,229
495,494,494,493,192
493,493,495,491,209
493,493,494,493,260
494,494,495,493,365
494,494,494,491,505
493,494,494,492,654
494,494,494,491,818
494,494,494,492,851
495,494,495,492,806
496,494,495,493,638
496,493,495,492,454
494,493,495,493,299
494,493,496,493,201
493,493,496,492,187
493,493,494,493,221
494,494,495,492,300
493,494,494,492,444
495,494,493,493,587
494,494,493,492,724
493,494,493,492,842
494,494,494,493,827
494,494,495,492,738
495,493,495,493,556
495,493,495,493,385
496,494,495,494,235
496,493,496,493,183
496,493,494,494,196
494,493,495,493,245
492,494,495,493,348
492,494,494,491,492
491,494,494,492,635
494,494,493,491,793
495,494,494,493,848
496,494,495,493,810
496,494,494,493,657
494,493,495,493,456
492,494,496,493,302
494,494,496,495,209
494,494,495,493,186
494,493,494,493,217
495,493,494,492,286
493,494,494,491,402
491,494,493,492,548
494,494,493,493,709
495,494,493,492,841
495,494,494,493,841
495,494,495,493,762
495,494,495,493,567
495,494,496,493,391
494,493,495,494,243
494,493,496,494,191
494,493,494,494,198
494,493,494,493,237
494,494,494,492,334
493,494,494,492,478
492,494,495,491,622
493,494,494,491,780
493,494,494,492,851
494,494,495,492,819
496,494,493,492,684
495,494,494,494,494
494,494,496,494,333
494,494,495,495,210
493,493,494,494,181
494,493,494,493,209
494,493,495,493,271
493,494,494,492,395
492,494,494,492,541
492,494,493,491,684
495,494,494,491,825
495,494,494,493,840
496,494,494,493,772
496,494,495,493,594
494,493,496,494,413
494,494,495,494,261
495,493,495,493,193
494,493,495,493,192
493,493,495,492,229
493,494,494,492,319
493,494,493,493,453
494,494,494,491,598
495,494,494,491,762
494,494,493,492,851
496,494,494,492,826
495,494,496,493,708
495,494,495,494,504
494,494,495,493,342
496,493,496,493,221
494,493,495,493,184
493,494,494,492,208
494,493,495,492,263
494,494,494,492,373
493,494,494,492,515
492,494,494,492,663
491,494,494,492,822
494,494,494,492,847
495,494,493,492,797
497,493,495,493,621
497,494,495,493,435
496,493,496,494,281
496,494,495,494,199
498,494,495,493,190
495,493,493,492,225
494,493,495,492,306
491,494,493,492,441
490,494,494,493,583
492,494,494,493,741
493,494,494,492,848
493,494,495,492,829
495,494,495,493,731
494,494,495,493,536
494,494,495,493,367
494,493,496,493,226
495,493,495,494,187
494,493,495,492,202
496,493,495,492,252
494,494,495,492,358
493,494,493,492,502
494,494,493,491,647
494,494,494,492,806
493,494,493,492,849
493,494,493,492,807
494,494,494,493,643
495,494,495,494,451
495,493,494,494,295
494,493,495,494,204
493,494,495,493,188
492,494,496,492,218
492,494,495,493,294
493,493,495,492,416
493,494,494,492,564
495,494,495,490,722
497,494,494,492,846
497,494,496,493,834
498,494,495,494,751
496,494,496,494,552
494,494,497,493,380
494,494,496,494,237
493,493,496,493,189
493,493,496,493,198
493,493,495,492,243
492,494,494,492,342
493,494,495,491,484
493,494,494,492,629
493,494,494,491,791
493,494,495,492,853
494,494,494,491,816
494,494,495,492,670
494,493,496,493,475
494,494,495,494,319
495,493,496,494,210
495,493,496,494,186
495,493,495,492,215
493,493,494,492,279
494,493,493,493,402
494,494,494,493,547
494,494,494,492,698
494,494,494,492,835
493,494,495,492,840
495,494,494,491,769
495,494,496,493,580
495,493,496,494,401
494,493,496,494,248
496,493,496,493,191
494,493,494,493,194
492,494,494,493,233
492,494,495,491,326
492,494,494,492,465
495,494,495,492,609
495,494,494,492,774
495,494,494,492,851
494,494,494,492,821
494,494,496,493,694
494,494,496,493,495
493,494,496,494,332
494,493,496,494,215
494,493,495,493,184
494,493,495,492,210
493,493,494,492,268
494,494,494,493,384
491,494,494,491,528
492,494,494,491,676
494,494,493,492,825
494,494,495,492,844
495,494,494,492,784
495,493,496,493,604
496,494,496,492,421
496,493,496,494,269
495,494,496,495,198
493,493,494,493,192
493,493,495,494,228
493,493,494,491,313
493,494,494,493,446
494,494,495,492,591
494,494,494,491,752
494,494,495,492,850
494,493,494,493,829
496,494,495,492,718
496,494,496,493,519
497,493,495,493,353
496,493,496,494,224
494,493,495,492,184
493,494,495,493,206
492,493,495,492,255
491,494,495,491,366
492,494,494,492,509
494,494,493,491,656
494,494,494,491,815
494,494,495,493,847
495,494,495,493,803
497,493,496,494,632
494,494,496,494,442
494,494,496,493,287
493,493,496,494,199
493,494,494,495,186
493,493,495,492,221
493,493,494,493,299
493,494,494,493,429
493,494,494,492,575
494,494,494,492,733
494,494,494,493,847
494,494,495,493,833
496,494,496,493,741
496,494,495,494,544
494,494,496,494,373
494,493,495,493,231
494,494,496,494,186
494,493,495,492,201
494,493,494,492,249
493,494,495,492,349
493,494,495,492,493
493,494,494,492,637
493,494,494,491,799
494,494,494,492,851
495,494,495,492,812
494,494,495,494,657
494,494,496,494,461
494,494,495,494,304
494,493,495,493,207
493,493,494,493,186
494,493,496,493,216
494,493,495,492,287
493,494,494,493,411
494,494,495,492,557
493,494,495,492,710
493,494,494,491,841
494,494,495,492,837
495,494,494,492,763
495,494,495,494,567
496,494,497,495,390
497,493,497,494,241
497,493,495,492,188
494,493,495,491,196
493,494,495,493,237
493,494,494,492,334
492,494,495,492,473
492,494,494,492,619
494,494,494,491,784
495,494,495,492,852
493,494,495,492,819
493,494,496,493,682
495,494,496,493,482
495,494,495,493,321
494,493,496,494,212
496,493,495,492,183
495,493,495,493,212
493,493,494,494,274
493,494,495,492,390
492,494,493,492,535
492,494,494,492,690
493,494,493,492,829
493,494,495,492,843
495,494,494,493,773
496,494,495,494,593
496,494,496,494,406
495,494,495,494,256
495,493,496,494,195
496,494,495,492,192
494,493,496,493,231
492,494,495,492,322
492,494,494,492,457
493,494,494,491,602
494,494,494,493,766
495,494,494,492,853
495,494,494,491,825
495,494,495,493,707
494,493,495,493,503
494,493,496,494,338
494,493,496,493,220
494,493,496,493,184
495,493,494,494,208
494,493,495,492,265
495,493,493,493,375
494,494,494,492,517
494,494,494,492,666
493,494,494,491,824
494,494,494,493,848
495,494,494,492,796
495,494,496,493,617
495,494,497,493,431
493,494,496,493,277
494,494,496,492,198
494,493,496,493,190
494,493,496,492,225
495,493,495,493,308
495,493,494,491,438
494,494,495,493,582
495,494,494,490,744
494,494,495,491,850
495,494,494,493,832
495,494,495,493,728
494,494,496,494,529
495,494,495,493,363
494,493,496,493,226
492,494,495,494,185
492,494,495,494,203
493,494,494,493,252
492,493,496,494,358
492,494,495,493,502
494,494,494,492,649
495,494,494,492,812
495,494,494,492,850
496,494,496,491,808
496,494,496,493,644
496,494,496,494,450
494,493,497,494,291
495,493,495,494,203
492,494,496,494,188
492,494,496,492,219
494,494,494,493,293
494,494,494,490,417
493,494,493,493,563
494,494,493,493,728
494,494,496,491,849
495,494,495,492,834
495,494,494,493,753
494,494,495,495,549
495,494,496,493,370
495,494,497,493,236
495,493,497,495,188
495,494,496,495,199
492,494,494,494,246
494,494,493,491,345
493,494,496,494,465
491,494,494,492,620
491,494,494,490,798
492,494,494,491,857
493,494,495,491,821
496,494,495,492,673
492,494,494,495,458
494,494,495,494,298
495,493,496,493,217
494,494,495,494,191
493,493,495,492,218
494,493,494,492,284
493,494,494,493,397
493,494,495,493,535
494,494,495,491,707
493,494,495,492,842
494,494,496,491,846
495,494,496,492,773
496,494,496,495,580
496,493,497,493,403
494,494,495,493,252
494,494,495,493,191
493,494,495,493,197
493,493,494,492,233
493,494,493,491,333
494,494,495,491,481
494,494,495,492,627
493,494,495,491,772
493,494,495,491,851
494,494,495,491,819
493,494,495,492,691
494,494,494,491,504
496,494,494,492,338
495,493,498,492,208
497,493,498,490,179
496,494,497,493,204
495,493,496,491,264
493,494,494,492,375
496,494,495,491,519
495,494,495,492,680
496,494,493,491,829
494,494,493,491,846
494,494,496,491,783
496,494,495,495,604
492,494,497,495,397
491,494,497,494,257
495,494,495,491,199
494,494,493,491,192
493,493,495,492,230
493,494,496,491,316
493,494,493,493,433
495,494,494,492,578
495,494,493,491,764
495,494,494,492,860
495,494,497,492,834
495,493,496,491,724
493,494,496,493,509
494,494,495,495,343
496,494,496,492,229
495,494,495,492,189
494,494,495,493,210
492,494,494,493,265
492,494,495,492,368
494,494,495,493,511
493,494,494,492,659
493,494,494,491,823
496,494,495,491,854
495,494,495,493,804
496,494,496,492,633
493,494,496,492,443
496,493,496,495,286
493,494,493,496,202
491,493,495,492,191
493,494,494,493,225
493,494,493,494,302
493,494,495,491,424
492,494,493,492,572
493,494,492,493,739
495,494,494,491,853
494,494,496,491,836
497,494,496,493,742
495,494,496,492,536
495,493,498,495,359
494,494,495,492,232
492,494,497,494,191
496,493,493,493,203
493,493,494,494,252
493,494,495,492,353
492,494,495,491,482
494,494,495,492,636
494,494,494,492,806
494,494,494,494,855
493,494,495,492,816
495,494,495,492,657
493,494,494,494,446
496,494,497,493,293
495,494,495,495,209
492,494,498,492,189
493,493,494,493,220
493,493,495,494,292
494,494,493,494,408
495,494,493,491,552
495,494,494,492,718
495,494,494,492,847
492,494,495,492,843
494,494,495,492,763
496,494,497,492,564
495,494,498,494,383
495,494,497,496,240
492,494,494,493,194
495,493,495,495,198
494,493,495,493,241
493,494,493,492,338
493,494,494,493,468
492,494,494,492,615
493,494,494,491,792
494,494,493,493,858
496,494,496,492,826
496,494,494,493,684
496,493,494,495,471
494,494,494,493,316
492,494,496,495,214
495,494,497,491,186
494,494,493,493,218
495,494,495,493,278
493,494,494,492,390
493,494,492,492,528
496,494,494,492,696
496,494,493,492,835
494,494,495,494,846
494,494,496,493,776
495,494,495,494,588
495,493,498,496,398
496,494,495,496,252
492,493,494,493,198
494,493,496,491,197
495,493,494,491,233
496,494,495,493,324
494,494,495,493,449
495,494,495,492,596
492,494,493,490,771
493,494,495,492,856
494,494,495,492,829
495,494,494,494,705
494,494,494,494,499
495,494,498,492,330
496,494,496,495,220
492,494,495,494,187
493,493,493,492,210
494,494,494,493,267
495,494,493,493,375
495,494,493,492,512
493,494,494,493,671
492,494,494,492,826
494,494,495,491,851
493,494,496,494,798
495,493,498,495,618
493,494,497,495,419
496,494,494,492,267
493,494,494,495,201
493,493,493,493,191
495,493,496,494,228
493,494,496,493,313
492,494,494,491,431
492,494,494,492,576
493,494,493,492,754
495,494,494,491,857
493,494,494,493,835
494,494,496,494,734
495,494,498,491,521
496,494,496,492,354
497,494,496,492,234
497,493,495,494,190
493,494,493,492,209
495,493,494,493,259
492,494,495,492,361
492,494,496,492,495
495,494,494,492,649
496,494,494,493,814
496,494,493,492,854
495,494,494,491,812
495,494,495,494,645
494,494,497,492,440
493,494,494,495,282
493,494,497,495,208
495,494,494,492,189
494,494,492,490,223
494,494,494,493,299
493,494,495,491,415
493,494,493,492,562
493,494,493,492,734
493,494,494,491,853
494,494,494,491,841
494,494,494,492,751
495,494,496,492,548
494,494,498,493,369
495,494,496,493,239
495,494,496,494,194
492,493,494,494,203
495,494,494,493,248
493,493,495,494,348
493,494,495,493,475
492,494,493,492,623
494,494,494,492,799
495,494,496,492,856
496,494,495,492,818
497,494,496,493,670
499,494,497,494,459
493,494,497,493,304
492,494,494,493,212
491,494,494,495,187
495,494,496,493,220
491,494,496,491,285
492,494,494,492,398
493,494,495,491,540
494,494,494,493,707
493,494,493,490,843
494,494,494,494,845
496,494,495,495,773
495,494,497,492,575
496,494,494,492,389
494,494,496,492,248
493,494,495,491,195
496,494,497,492,197
495,493,493,493,239
495,494,494,492,331
493,494,494,492,458
491,494,494,493,603
493,494,493,491,784
495,494,495,492,857
495,494,494,492,826
495,494,497,492,693
493,494,494,495,481
495,494,494,495,319
492,493,497,493,219
494,493,495,491,185
495,494,493,493,213
494,494,496,491,270
495,494,495,491,384
494,494,494,492,521
493,494,493,492,689
495,494,493,493,833
495,494,496,492,850
496,494,495,491,783
495,494,497,496,605
496,494,495,493,406
495,493,498,493,255
496,494,497,494,198
496,494,497,491,196
494,494,492,492,230
492,494,494,493,318
493,494,494,493,441
494,494,494,491,584
494,494,495,491,764
494,494,494,491,856
493,494,496,493,831
495,494,495,494,715
496,494,496,492,507
494,494,498,495,341
493,494,495,497,228
492,493,496,493,191
495,494,493,494,205
495,494,495,494,260
495,494,494,492,370
495,494,493,492,505
493,494,493,492,663
494,494,493,491,825
495,494,496,491,854
494,494,494,491,803
493,494,494,495,631
497,494,494,495,430
494,493,498,496,273
493,493,498,496,203
495,494,496,494,194
493,494,495,491,227
492,494,494,492,305
494,493,495,492,422
494,494,495,492,568
495,494,493,492,744
495,494,492,494,856
496,494,496,491,839
498,494,493,492,745
495,494,497,495,535
495,494,494,495,360
493,494,494,492,234
497,494,494,494,189
495,493,496,494,203
493,494,495,494,255
493,494,496,491,353
492,494,495,491,486
492,494,493,491,639
492,494,495,490,809
493,494,495,491,857
494,494,494,493,817
494,494,493,495,654
496,493,498,493,449
496,494,495,492,289
494,493,496,492,212
493,494,494,494,190
494,494,494,491,220
494,494,495,493,293
494,494,494,492,407
494,494,495,491,552
495,494,493,491,724
495,494,493,492,850
496,494,493,494,845
497,494,496,492,759
497,494,495,492,564
496,493,494,494,375
493,494,497,496,241
492,494,497,493,196
493,494,494,495,202
492,494,495,492,244
492,494,493,494,341
493,493,494,493,467
494,494,494,493,614
494,494,493,493,791
493,494,494,492,860
493,494,497,495,822
494,494,495,495,680
493,493,495,493,471
494,494,497,494,312
494,494,495,493,216
493,493,493,492,189
495,493,495,492,216
494,494,494,492,279
495,494,494,492,392
495,494,494,492,533
496,494,494,492,699
495,494,495,490,836
494,494,493,490,847
493,494,494,491,773
496,494,494,495,590
495,494,496,494,400
495,493,495,493,251
494,493,495,492,196
493,493,495,493,196
493,493,496,492,235
494,494,494,494,326
493,494,495,491,456
494,494,495,491,604
494,494,493,491,774
493,494,494,491,856
493,494,495,493,829
494,494,495,493,703
496,494,496,494,495
495,494,496,494,332
496,493,495,495,218
495,493,495,493,184
495,494,494,492,208
494,493,494,493,267
493,494,493,493,375
492,494,495,491,519
493,494,494,493,675
493,494,494,491,828
494,494,496,492,850
495,494,494,492,793
497,493,496,495,615
497,494,496,495,419
496,493,496,493,268
495,493,495,494,200
496,493,495,493,192
493,493,494,493,225
492,494,493,492,313
493,494,493,492,438
493,494,493,490,582
491,494,495,491,753
494,494,495,490,852
495,494,494,492,834
496,494,496,492,728
497,493,497,493,520
495,493,495,494,351
493,493,496,495,227
493,493,495,493,188
494,494,494,492,204
493,494,493,493,256
494,494,493,492,361
494,494,493,492,501
494,494,493,493,649
494,494,494,493,817
494,494,495,492,853
495,494,494,493,809
495,494,494,495,639
496,493,495,493,440
493,494,497,496,285
494,493,494,493,205
494,493,496,494,190
494,493,494,493,223
494,493,495,494,297
494,494,495,493,419
494,494,495,492,567
493,494,493,492,735
493,494,493,492,851
495,494,496,493,840
494,494,495,494,748
495,493,496,494,547
496,494,495,493,370
497,493,495,494,236
495,493,495,493,190
494,493,494,493,201
494,493,495,493,247
492,493,494,492,347
493,494,494,493,483
494,494,493,492,631
495,494,493,492,797
496,494,496,491,857
493,494,494,492,819
494,494,494,493,664
495,494,496,493,461
495,494,496,494,304
495,493,495,493,210
494,493,495,494,187
494,493,493,493,217
496,493,494,492,285
494,493,494,492,402
494,494,495,492,549
495,494,494,493,709
493,494,495,493,843
493,494,493,492,842
496,494,495,492,769
495,493,495,493,570
495,493,496,493,390
492,494,497,494,241
494,493,495,493,191
494,494,495,493,194
493,494,494,493,236
494,493,494,493,330
493,494,495,491,463
493,494,494,493,613
495,494,493,492,786
496,494,494,494,859
494,494,495,493,826
495,494,494,494,690
495,494,496,494,483
495,493,496,494,323
494,494,496,494,215
494,493,494,493,185
495,493,494,492,211
495,493,494,494,273
495,494,494,492,384
495,494,495,493,529
494,494,494,493,689
494,494,493,492,832
494,494,493,493,848
494,494,495,493,780
495,493,495,493,599
495,494,495,493,409
493,494,496,494,255
493,494,495,493,195
493,494,495,493,193
494,493,495,494,229
496,494,494,493,319
496,494,493,492,448
494,494,493,491,596
494,494,493,492,764
493,494,494,492,855
494,494,495,493,831
494,494,495,494,714
495,494,496,493,506
495,494,495,493,341
494,493,496,494,221
494,494,496,493,185
493,494,495,492,207
494,493,495,492,260
494,494,493,491,370
494,494,494,492,513
494,494,494,491,661
494,494,493,491,824
492,494,493,492,852
494,494,494,492,803
495,494,495,492,625
497,494,495,496,431
496,494,496,494,278
495,494,496,493,200
495,493,494,493,189
494,493,494,493,223
493,493,494,491,304
495,494,494,493,433
494,494,495,492,577
493,494,495,492,745
494,494,495,493,855
494,494,495,492,835
496,494,495,492,735
495,493,496,494,535
495,494,496,493,366
494,494,495,493,228
495,493,496,493,187
495,493,495,493,203
496,493,494,492,252
495,494,493,491,353
494,494,494,492,497
493,494,493,491,644
493,494,495,491,809
495,494,494,491,853
496,494,496,493,813
495,494,496,494,649
494,494,496,494,452
494,494,496,493,294
493,494,496,493,204
493,494,496,493,186
493,493,495,493,218
494,493,495,494,292
493,494,495,493,414
493,494,494,493,563
493,494,493,492,724
494,494,495,492,849
494,494,494,493,841
496,494,494,494,759
497,494,496,495,557
497,494,496,494,382
496,493,495,494,235
494,494,494,494,188
492,494,495,492,197
493,494,494,492,236
493,494,494,493,338
494,494,494,493,479
492,494,495,491,625
492,494,494,491,793
493,494,495,493,856
495,494,493,492,822
497,494,496,494,677
497,494,495,494,475
496,494,497,493,317
495,493,495,493,209
494,494,495,493,185
494,493,494,491,210
492,494,493,492,278
493,494,493,492,396
493,494,494,491,539
493,494,494,492,699
493,494,494,492,835
494,494,495,493,846
495,494,494,492,773
496,493,495,494,583
495,494,496,494,402
496,493,496,494,249
494,493,495,493,191
492,493,494,494,190
495,494,494,493,229
494,494,494,492,323
494,494,493,492,458
495,494,494,492,608
496,494,493,492,776
494,494,494,491,857
495,494,494,491,829
496,494,495,493,700
494,494,495,494,496
496,494,495,494,331
495,493,497,493,214
494,493,495,493,181
495,493,495,494,207
495,494,494,493,264
494,494,494,492,377
493,494,494,492,525
492,494,493,492,677
493,494,493,491,828
493,494,493,492,848
494,494,493,492,791
493,493,495,493,612
495,493,496,494,421
494,493,495,493,267
494,493,496,494,194
493,494,493,495,188
494,494,495,493,224
494,494,495,493,310
495,494,494,492,442
496,494,493,492,588
496,494,493,490,753
495,494,494,493,854
494,494,494,492,833
494,494,494,493,724
494,494,495,493,516
494,494,494,494,350
494,494,495,494,224
494,493,496,493,185
494,494,494,492,202
493,494,494,493,254
492,494,494,493,360
493,494,493,492,502
494,494,493,492,654
492,494,493,493,820
495,494,497,492,854
494,494,494,493,810
495,493,494,494,638
496,493,495,495,439
496,494,495,494,282
495,493,495,492,202
494,494,496,494,184
493,494,495,492,219
493,494,493,493,298
493,494,493,492,418
494,494,493,492,567
493,494,494,491,737
493,494,493,492,853
495,494,494,492,840
494,494,494,492,750
496,494,496,493,542
496,494,495,495,369
496,493,495,494,232
495,493,494,492,187
494,494,493,493,199
494,494,495,494,247
493,494,494,494,347
494,494,493,492,487
492,494,493,492,636
492,494,493,492,802
494,494,493,493,859
493,494,495,494,821
494,494,495,493,663
495,494,496,495,460
496,493,494,493,301
496,494,495,495,206
493,494,494,493,185
492,494,494,493,214
494,494,494,493,284
493,494,493,493,405
494,494,493,493,552
494,494,494,493,714
493,494,493,491,845
495,494,493,492,844
496,494,494,493,767
494,493,496,494,568
495,494,494,495,390
494,494,495,494,240
493,494,494,494,189
493,494,493,493,194
494,494,496,492,234
493,494,494,492,351
494,494,492,491,510
493,494,493,492,654
494,494,494,493,774
493,494,494,492,845
495,494,493,493,814
496,494,494,494,696
496,494,495,494,524
496,494,495,494,364
496,494,497,494,220
494,493,495,492,155
495,494,494,493,187
494,494,495,492,262
492,494,493,492,415
492,494,494,493,566
492,494,494,491,709
493,494,494,491,806
494,494,495,492,826
494,494,494,493,764
495,494,494,492,614
495,493,495,493,442
495,493,496,492,288
495,493,495,493,170
494,493,493,492,164
493,494,494,492,205
492,494,494,491,322
494,494,493,491,483
493,494,494,491,632
494,494,494,492,756
494,494,495,492,829
494,494,494,492,810
495,494,494,493,705
495,493,494,493,536
496,494,496,493,374
496,494,495,493,226
495,493,495,493,150
493,494,495,493,178
493,494,494,491,243
492,494,494,492,392
493,494,494,493,549
495,494,494,491,690
495,494,494,492,793
494,494,495,493,826
494,494,495,493,781
494,494,494,493,632
494,494,496,493,462
495,493,497,494,305
495,493,496,493,180
494,493,494,492,159
494,494,495,492,197
494,494,494,492,303
493,494,494,492,462
494,494,495,493,610
494,494,494,492,742
494,494,494,491,829
497,494,495,492,813
495,494,495,492,724
494,494,495,493,557
495,494,496,492,393
495,493,496,493,243
494,494,494,493,154
494,493,494,494,173
495,493,494,492,232
494,494,493,492,372
493,494,495,492,529
494,494,493,492,675
493,494,494,493,783
493,494,494,491,829
492,494,494,492,792
495,494,495,492,655
494,493,495,494,482
494,494,495,494,323
495,493,496,493,189
495,493,496,494,155
494,494,493,492,192
493,494,494,492,283
493,494,493,492,441
494,494,493,492,594
493,494,494,492,730
494,494,496,492,822
495,494,495,492,817
496,494,495,492,741
494,493,496,493,579
495,494,495,494,414
494,493,496,493,259
494,494,494,493,153
492,494,496,493,168
493,494,495,492,218
493,494,495,492,351
493,494,495,490,513
493,494,494,491,658
494,494,493,492,771
494,494,493,492,832
495,494,495,493,800
494,494,495,493,675
494,493,495,493,501
494,493,495,494,344
495,494,496,494,204
495,493,495,493,153
494,494,494,491,186
494,494,494,491,266
494,494,493,491,424
494,494,494,491,575
494,494,495,491,713
494,494,494,493,809
495,494,494,492,821
494,494,495,493,757
496,494,495,493,600
497,494,495,494,432
497,493,495,494,277
496,493,496,493,162
494,493,496,492,164
492,494,494,492,208
490,494,493,491,332
492,494,494,492,492
494,494,494,492,638
493,494,493,493,762
494,494,493,491,831
495,494,495,493,807
495,494,496,492,696
495,493,496,493,525
495,494,495,493,361
493,494,496,493,219
492,494,494,495,150
493,493,495,494,178
494,494,494,493,250
494,494,494,491,399
494,494,494,492,554
493,494,493,491,697
493,494,494,490,800
493,494,494,492,825
494,494,494,493,773
495,493,495,493,620
495,493,495,493,449
495,493,496,494,293
495,493,495,493,172
495,493,494,492,162
492,494,494,492,200
493,494,494,492,311
493,494,493,493,475
493,494,494,492,619
494,494,494,491,747
494,494,494,493,830
495,494,495,493,812
494,494,495,493,717
495,493,495,494,546
494,494,495,494,382
494,494,496,495,233
494,494,496,494,152
493,493,494,493,173
496,494,494,492,235
494,494,494,492,382
494,494,493,492,539
494,494,493,492,682
494,494,494,492,793
495,494,492,492,831
494,494,494,493,788
495,494,494,492,642
495,493,494,494,472
496,493,495,494,312
495,493,496,493,181
494,493,494,492,158
492,494,496,492,195
493,494,494,492,295
493,494,493,492,454
494,494,493,491,601
494,494,494,492,736
495,494,494,491,827
493,494,495,492,815
495,494,495,493,735
494,493,495,494,569
495,493,495,494,402
494,494,495,493,248
493,493,495,493,152
494,493,494,493,170
496,493,494,493,228
496,494,494,492,362
495,494,493,491,520
493,494,493,492,666
491,494,494,491,778
494,494,495,494,831
495,494,494,492,799
496,494,494,493,664
496,494,494,494,490
495,493,494,494,329
495,493,495,493,195
492,494,496,493,154
492,494,495,492,188
492,494,495,492,276
492,494,494,492,430
495,494,493,491,586
494,494,493,492,721
493,494,493,493,821
495,494,493,493,823
494,494,493,494,753
496,494,495,494,590
495,494,495,494,421
496,493,495,493,265
496,493,496,493,156
493,493,493,493,165
493,494,494,494,212
494,494,494,493,342
493,494,494,491,503
494,494,494,492,648
494,494,493,492,766
494,494,495,493,836
493,494,495,492,807
495,493,495,494,687
496,493,495,494,513
495,493,494,493,350
495,493,495,494,207
495,493,494,493,151
493,494,495,492,181
494,494,494,492,259
493,494,493,491,411
494,494,494,492,564
493,494,493,492,705
494,494,494,492,811
494,494,493,492,825
496,494,494,493,763
497,494,496,495,612
497,494,496,494,439
498,494,495,495,280
496,493,497,493,162
493,494,495,492,161
492,494,495,493,202
493,494,494,494,322
493,494,494,493,480
491,494,496,492,630
494,494,495,493,754
494,494,494,493,835
494,494,494,494,813
494,494,493,494,709
494,494,494,492,533
494,493,496,494,367
493,493,495,494,217
493,493,496,493,149
494,493,494,492,172
495,494,496,490,239
494,494,495,493,350
493,494,495,494,473
496,494,493,493,667
494,494,493,494,828
491,494,496,487,858
497,494,501,494,800
494,494,493,491,615
494,493,493,494,399
493,493,494,495,257
496,493,494,492,199
495,494,493,495,187
496,494,494,494,224
494,494,494,494,306
492,494,496,491,420
495,494,495,492,552
495,494,491,492,758
495,494,495,491,864
493,494,496,492,841
495,494,496,492,740
496,493,497,493,525
496,493,495,493,327
496,494,494,492,230
492,494,495,492,189
492,493,493,492,205
492,494,493,495,255
493,494,493,493,359
495,494,493,494,471
493,494,493,490,655
495,494,494,493,826
494,494,492,493,858
492,494,494,492,821
492,494,496,495,646
495,494,495,493,442
494,494,496,493,289
493,493,494,492,201
493,493,493,492,186
493,494,493,499,216
494,493,492,493,288
495,494,493,494,416
493,494,495,490,568
495,494,494,492,734
493,494,493,493,851
496,494,495,493,848
494,494,494,493,758
493,494,497,495,551
493,494,497,494,362
494,494,497,493,234
493,494,495,492,190
494,493,493,490,195
494,494,493,491,241
493,493,493,493,342
493,494,494,494,482
493,494,495,493,631
494,494,493,490,800
494,494,495,491,863
496,494,496,490,825
495,494,496,491,675
494,494,495,493,473
495,494,495,492,312
497,493,494,492,203
493,493,494,495,177
495,494,495,492,211
493,494,494,491,278
493,494,494,494,396
494,494,493,492,541
495,494,495,491,707
495,494,495,492,847
497,494,495,494,851
498,494,496,494,780
495,494,494,491,575
494,493,496,493,384
493,493,495,493,241
493,493,494,493,187
494,493,494,493,191
494,493,494,492,229
493,494,495,491,324
492,494,494,492,454
492,494,494,493,603
493,494,494,490,788
493,494,493,493,867
494,494,495,491,834
494,493,495,493,702
495,494,496,494,488
496,494,496,494,323
495,493,495,493,214
494,493,496,493,181
494,494,494,492,205
493,493,494,493,265
493,494,494,492,383
492,494,495,492,529
494,494,494,491,684
494,494,494,491,836
495,494,494,492,854
495,493,494,493,789
495,494,495,493,609
496,494,496,494,422
493,493,496,493,265
494,494,495,492,189
495,493,495,492,184
494,493,494,492,221
494,494,494,493,309
494,494,494,491,449
496,494,494,492,597
493,494,494,491,762
493,494,494,494,858
494,494,494,492,833
494,493,495,494,723
494,494,496,493,512
494,493,495,494,342
495,493,496,494,217
494,493,494,493,177
494,493,495,492,198
493,493,494,494,253
495,493,494,493,360
492,494,495,492,506
493,494,494,492,660
493,494,494,491,826
496,494,495,493,860
496,494,494,492,810
495,494,494,494,634
494,493,496,493,432
495,493,496,493,277
494,494,495,494,199
495,494,494,495,185
497,493,495,491,217
495,493,494,494,298
494,494,495,492,421
493,494,494,493,572
494,494,493,492,745
493,494,494,492,860
493,494,493,492,844
493,494,496,493,747
495,493,496,492,540
494,494,497,496,363
495,494,497,493,229
493,493,496,495,184
493,494,494,491,197
495,494,497,491,243
495,494,496,490,350
491,494,495,494,482
493,494,493,491,638
493,494,495,491,815
494,494,494,492,863
494,494,494,491,820
496,494,495,493,661
496,494,496,491,442
495,494,494,493,281
492,493,494,492,207
494,494,497,492,185
492,494,493,495,215
495,494,493,491,288
493,494,492,492,402
493,494,493,492,546
493,494,493,491,725
494,494,494,492,857
495,494,494,493,850
495,494,496,492,768
495,494,495,496,563
494,494,497,494,373
496,494,495,495,241
494,494,495,492,189
494,494,497,492,194
495,494,497,495,233
492,494,496,493,335
492,494,494,492,466
493,494,494,493,616
494,494,496,492,794
494,494,494,491,865
496,494,495,493,828
497,494,493,494,686
498,494,497,495,473
497,494,494,492,312
499,493,496,495,211
499,493,494,494,183
494,493,495,491,211
494,494,494,492,273
492,494,493,493,387
491,494,495,492,527
492,494,493,491,700
493,494,494,491,844
494,494,496,492,851
494,494,495,494,783
495,494,494,494,590
494,494,497,495,396
494,494,495,492,249
493,494,496,495,191
494,494,497,493,189
495,493,492,491,226
496,494,495,492,323
493,494,493,492,444
493,494,494,491,595
494,494,492,491,781
494,494,493,493,864
496,494,496,494,839
496,494,493,492,714
494,494,498,493,495
494,494,496,493,325
495,493,497,492,216
494,493,497,491,183
495,493,493,491,204
495,493,496,491,261
493,494,496,493,371
495,494,496,490,507
493,494,492,489,682
492,494,492,492,836
496,494,496,490,860
494,494,494,495,803
495,494,495,494,623
497,494,494,494,407
493,493,494,495,261
492,494,493,491,199
495,494,494,490,186
494,493,493,492,224
494,494,494,492,308
493,494,493,493,427
493,494,495,491,577
493,494,492,490,760
495,494,496,491,863
495,494,494,493,842
495,494,496,492,737
497,494,495,495,522
495,493,497,493,352
495,493,494,492,229
493,494,495,491,186
494,494,492,494,201
494,494,494,492,248
494,494,493,492,356
493,494,495,492,496
494,494,494,493,649
494,494,493,490,820
496,494,495,491,862
495,494,494,494,815
495,494,493,492,645
493,494,494,495,441
496,493,497,493,280
494,494,494,493,201
493,494,493,493,187
495,494,496,491,217
492,494,496,491,292
491,494,491,494,407
494,494,493,492,557
493,494,494,492,740
494,494,494,491,863
494,494,496,492,848
494,494,493,493,756
494,494,494,493,553
496,493,494,493,364
496,493,495,492,236
496,494,493,492,187
494,494,495,491,199
492,494,495,492,244
493,494,494,492,343
493,494,494,493,469
494,494,493,491,629
495,494,492,491,808
496,494,492,491,862
497,494,496,491,826
496,494,496,492,674
496,493,494,494,453
496,494,496,494,295
496,493,496,495,213
493,494,494,492,185
495,494,494,492,214
494,493,495,493,280
495,494,493,492,396
496,494,492,491,539
493,494,491,490,715
494,494,492,493,851
493,494,493,491,854
495,494,495,491,778
496,494,494,495,575
497,494,497,493,387
497,493,494,495,242
494,493,496,493,187
493,494,492,491,193
496,494,496,493,234
494,494,493,493,328
493,494,493,491,460
493,494,495,492,606
491,494,494,489,791
490,494,494,492,865
494,494,495,492,835
495,494,495,492,700
500,494,498,497,483
498,493,494,493,311
494,494,493,494,217
495,494,493,491,184
494,494,495,491,207
491,494,493,491,269
494,494,493,491,378
492,494,493,491,515
491,494,493,491,694
492,494,495,490,839
494,494,494,491,856
497,494,495,491,789
494,494,496,492,609
495,494,496,495,405
495,493,494,492,250
494,494,495,495,192
494,494,492,492,191
492,494,492,492,223
494,494,492,493,316
494,494,495,491,440
493,494,494,492,591
493,494,492,491,771
493,494,494,490,864
494,494,496,494,840
494,494,494,495,723
493,494,497,495,509
493,494,495,493,337
493,493,497,492,220
492,493,493,495,180
495,494,493,495,204
496,494,496,492,254
492,494,494,493,364
494,494,493,492,501
494,494,493,491,666
495,494,492,491,828
495,494,492,494,861
496,493,495,494,810
494,494,494,494,633
497,494,496,495,425
495,493,494,495,266
496,493,494,494,203
493,494,497,495,185
494,494,496,493,219
494,494,492,493,303
495,494,494,494,421
494,494,493,493,565
494,494,495,493,750
495,494,494,493,863
497,494,496,494,847
497,494,494,494,744
496,494,494,495,536
497,493,495,494,346
496,493,494,493,233
494,494,494,492,190
495,494,496,491,199
491,494,497,493,247
493,494,496,490,354
493,494,493,491,473
492,494,494,492,643
495,494,495,492,820
493,494,491,494,865
494,494,493,494,824
496,494,495,493,659
494,493,495,495,441
496,493,495,493,281
493,494,497,491,208
495,494,493,495,184
494,494,494,494,219
495,494,495,490,289
495,494,494,491,405
493,494,493,492,551
493,494,493,492,731
495,494,495,490,857
493,494,494,491,847
496,494,496,495,770
497,494,495,496,564
495,494,497,495,376
496,494,494,494,240
496,494,494,494,190
495,494,496,491,195
491,494,496,490,236
495,494,493,492,337
493,494,493,492,467
493,494,492,491,618
494,494,491,491,800
493,494,495,493,863
496,494,496,495,828
496,494,494,491,685
494,494,497,493,467
495,494,495,495,305
495,493,494,494,211
494,493,494,493,182
494,494,495,493,210
493,494,494,493,273
494,494,494,492,389
493,494,495,491,531
494,494,493,493,704
495,494,492,490,846
494,494,493,493,852
494,494,493,494,781
493,494,496,495,588
495,493,495,495,398
494,493,495,494,248
494,494,495,493,191
495,493,494,492,190
493,493,493,493,228
494,493,494,492,321
495,494,495,494,455
494,494,492,492,606
495,494,494,492,782
495,494,492,493,864
495,494,496,491,836
497,494,493,491,709
495,494,494,493,500
494,493,496,492,333
495,494,496,493,213
494,493,494,492,180
493,494,495,492,203
493,494,493,493,261
494,494,495,493,373
494,494,492,492,517
494,494,494,492,678
493,494,494,493,833
495,494,496,493,854
497,494,492,490,799
496,494,494,494,615
494,494,495,492,412
494,494,495,494,258
494,493,496,493,197
492,494,494,492,188
492,494,496,491,219
496,494,494,490,310
494,494,495,491,431
496,494,494,491,577
495,494,492,490,765
494,494,493,492,862
495,494,495,491,843
494,494,494,492,734
494,494,495,492,521
494,493,495,493,337
494,493,494,493,231
494,493,496,492,188
494,494,493,493,200
493,493,494,492,254
496,494,493,491,361
495,494,495,493,488
496,494,494,493,658
495,494,492,490,828
492,494,495,490,862
496,494,493,494,816
494,494,497,495,644
498,494,495,496,436
496,494,495,496,277
495,493,494,495,204
496,494,494,492,187
492,494,493,492,218
494,494,494,491,298
493,494,494,492,416
493,494,493,491,567
492,494,494,490,737
493,494,494,490,858
493,494,493,490,847
494,494,493,492,753
496,494,496,495,547
496,494,497,495,372
496,493,496,495,231
495,494,497,494,186
495,493,496,495,193
496,494,495,491,241
497,494,492,491,343
494,493,495,492,481
495,494,493,492,632
495,494,492,490,805
496,494,495,493,864
493,494,495,490,823
491,494,495,492,670
495,494,495,495,455
495,494,496,493,292
493,494,494,492,206
493,493,496,494,185
492,494,496,493,214
496,494,494,494,283
492,494,493,491,399
493,494,494,491,542
495,494,494,491,720
493,494,495,489,851
495,494,493,491,851
496,494,495,493,777
495,494,495,492,575
496,494,496,495,381
494,493,494,494,245
492,494,495,492,190
495,494,497,492,189
492,493,494,493,233
494,494,494,492,331
495,494,493,491,457
495,494,493,490,609
494,494,492,492,792
495,494,493,490,866
495,494,494,494,832
497,494,495,492,696
499,493,497,493,483
497,494,496,494,320
497,493,497,493,214
494,493,496,492,183
489,494,493,493,206
494,494,493,491,266
492,494,491,490,380
493,494,495,492,526
492,494,494,490,691
493,494,494,490,839
492,494,495,491,853
497,494,496,491,788
496,494,493,491,604
497,494,497,494,398
494,493,497,494,251
494,493,494,495,191
494,493,496,492,191
493,494,493,492,227
492,494,496,493,317
495,494,494,491,433
494,494,493,492,585
493,494,494,494,777
493,494,495,492,867
494,494,494,491,842
494,494,496,495,724
494,494,494,494,504
494,493,496,492,328
496,494,494,493,221
493,494,496,492,183
493,493,496,494,202
493,494,493,493,257
495,494,493,491,370
495,494,495,492,503
493,494,493,493,671
495,494,493,493,832
496,494,494,490,859
495,494,494,493,811
494,494,493,493,631
495,494,494,493,427
495,494,497,493,270
496,494,496,493,199
494,493,494,492,186
493,493,496,493,222
495,494,493,491,302
496,493,494,493,425
495,494,494,492,575
496,494,494,490,750
495,494,494,492,864
494,494,497,492,845
495,494,494,492,745
498,494,497,493,533
496,494,495,494,357
494,494,494,493,232
493,494,495,493,183
495,494,497,491,198
491,494,496,493,248
494,494,494,494,351
494,494,495,491,482
492,494,492,492,645
495,494,493,490,815
492,494,492,492,861
495,494,493,492,820
495,494,496,493,655
498,493,495,493,443
494,494,496,495,282
495,493,495,494,204
493,493,493,491,186
493,494,493,492,213
492,493,493,493,289
494,494,494,493,407
494,494,493,493,554
494,494,493,490,735
493,494,492,493,860
494,494,493,493,849
496,494,494,494,764
495,494,497,495,562
495,493,496,492,375
494,493,494,493,237
496,494,494,494,184
496,494,496,494,197
493,493,493,491,236
494,494,493,492,339
495,494,493,491,472
494,494,493,491,623
494,494,492,492,801
494,494,493,491,865
495,494,493,494,830
496,494,497,492,680
493,494,495,492,468
493,493,496,493,304
494,493,495,494,211
493,493,497,493,180
495,493,494,495,211
495,494,495,494,278
493,494,493,494,390
493,494,495,492,533
494,494,492,491,705
492,494,494,493,847
495,494,495,490,853
494,494,496,492,780
496,493,495,494,583
495,493,496,493,389
496,493,494,493,247
493,493,493,496,188
494,494,496,492,188
495,494,494,495,227
496,494,493,491,324
495,494,494,491,450
495,494,493,493,601
493,494,493,490,784
491,494,494,491,865
491,494,496,493,835
493,494,494,492,705
494,494,496,493,491
493,494,496,492,324
495,493,497,492,216
495,493,496,495,182
494,494,493,494,205
492,494,495,492,264
494,494,494,493,373
494,494,493,492,517
494,494,492,491,682
493,494,493,490,839
495,494,494,493,858
493,494,497,495,796
494,494,494,491,615
496,494,496,493,414
495,493,496,495,257
495,493,494,493,197
493,493,494,494,187
494,494,495,492,221
494,494,493,492,310
494,494,493,492,438
494,494,493,492,586
494,494,493,491,764
494,494,495,491,862
494,494,493,492,842
498,494,496,494,729
497,494,496,495,520
497,494,496,494,344
497,493,496,495,223
494,493,495,493,182
494,493,495,494,200
493,494,495,493,251
493,494,494,492,359
493,494,494,492,501
493,494,493,491,657
494,494,492,491,825
496,494,493,491,861
495,494,495,491,815
494,494,495,494,640
496,493,497,493,434
494,494,495,492,278
494,494,496,493,199
493,493,496,493,184
495,494,495,493,217
495,493,496,491,294
494,493,493,493,416
495,494,494,492,566
494,494,494,490,741
495,494,494,493,858
498,494,494,494,847
496,494,495,495,750
497,494,498,493,543
494,494,495,494,367
494,494,494,494,234
495,494,495,492,183
494,494,494,493,197
496,493,495,491,245
494,494,494,493,344
494,494,495,493,479
492,494,494,490,633
494,494,493,492,808
495,494,493,491,864
496,494,494,491,822
496,494,497,492,665
494,494,498,494,454
493,493,495,493,294
496,493,495,494,206
493,493,496,492,183
494,493,494,492,211
493,494,496,492,283
494,494,494,491,398
494,494,494,493,546
495,494,495,493,720
493,494,495,491,852
495,494,494,492,847
496,494,497,494,772
495,494,494,492,569
494,493,496,493,382
496,494,496,494,240
494,493,495,493,188
495,493,495,493,192
493,493,495,493,233
494,494,494,493,330
495,494,494,492,465
494,494,494,491,615
494,494,495,492,793
495,494,495,493,867
496,494,494,491,832
496,494,493,493,690
494,494,495,492,481
494,493,497,494,315
496,493,496,494,210
496,494,493,492,181
494,494,494,493,205
493,493,494,491,269
492,494,495,492,382
494,494,495,491,528
493,494,494,492,694
494,494,494,493,840
496,494,495,493,854
495,494,495,493,785
495,494,494,492,599
494,494,496,494,404
496,493,495,494,249
493,493,494,493,192
493,493,494,492,187
494,494,493,491,226
495,493,493,491,317
493,494,493,492,444
494,494,494,492,595
493,494,493,492,776
492,494,493,491,865
494,494,495,494,840
495,494,496,493,716
494,494,494,495,502
494,493,494,493,331
495,493,495,492,217
494,493,496,493,181
494,493,494,494,203
493,494,495,492,256
492,494,495,493,368
493,494,494,492,508
494,494,494,492,672
493,494,493,491,834
495,494,493,491,860
494,494,496,491,808
497,494,498,492,626
496,493,495,494,421
494,493,495,495,266
494,494,494,492,197
495,493,494,493,187
494,493,494,492,220
494,494,495,494,303
494,494,494,493,429
494,494,494,492,577
493,494,495,492,752
494,494,493,491,861
495,494,495,494,844
495,494,497,494,739
496,494,494,492,526
493,494,495,492,353
492,494,494,493,227
492,494,495,493,184
494,493,496,492,199
494,494,493,494,251
492,494,493,492,353
494,494,494,492,490
493,494,494,492,644
493,494,492,493,817
494,494,494,491,864
496,494,493,494,819
495,494,494,495,649
493,494,496,495,443
493,494,494,493,283
495,493,494,494,203
495,493,494,494,182
495,493,494,494,213
496,494,495,494,289
493,494,493,492,409
493,494,495,493,559
494,494,492,492,733
495,494,493,491,860
494,494,493,492,847
494,494,494,493,759
497,494,495,496,559
495,493,496,494,372
495,494,496,492,233
493,493,494,496,185
495,494,496,492,194
495,494,493,491,238
494,494,495,493,338
493,494,494,492,474
494,494,494,492,626
494,494,493,492,802
493,494,493,493,863
496,494,495,492,826
495,494,496,493,677
496,494,495,494,465
494,494,494,493,305
494,493,494,493,207
495,493,495,494,182
495,494,496,493,209
495,494,494,492,276
493,494,494,492,392
493,494,493,492,539
495,494,494,492,708
494,494,495,491,847
495,494,495,492,852
496,494,493,494,781
494,494,494,494,582
495,493,496,493,391
494,493,495,494,244
495,493,495,493,190
496,493,496,492,189
496,494,495,493,229
497,493,494,493,324
496,494,495,491,454
496,494,492,490,605
494,494,492,490,783
492,494,495,491,866
491,494,496,492,837
495,494,494,494,701
493,494,496,494,488
495,493,497,493,325
494,493,495,493,214
494,493,494,493,179
494,493,495,493,205
494,494,494,493,265
494,494,494,493,374
494,494,494,491,519
493,494,494,492,684
494,494,493,492,836
495,494,494,491,855
496,494,494,494,795
496,494,494,495,610
495,493,495,493,410
496,493,496,495,257
496,493,496,491,194
494,493,493,493,186
493,494,495,492,222
493,494,493,491,310
492,494,493,491,436
493,494,493,491,586
494,494,494,493,765
494,494,493,492,863
494,494,495,491,841
494,494,494,491,729
496,494,497,493,516
494,494,496,495,342
494,494,495,492,222
494,494,495,495,181
493,494,494,494,202
493,493,495,492,254
494,494,494,493,363
495,494,494,492,501
495,493,494,492,660
494,494,495,491,826
494,494,493,493,860
494,494,496,491,815
495,494,496,496,636
497,493,497,495,434
497,494,496,495,276
498,493,497,492,201
495,493,495,492,184
494,494,494,492,218
492,494,495,493,298
494,494,493,492,420
494,494,494,492,569
493,494,492,492,743
493,494,493,493,860
496,494,494,492,843
493,494,494,491,750
495,493,494,495,541
495,493,494,494,367
495,494,496,493,231
494,493,494,494,184
495,493,493,493,198
494,493,495,494,246
494,493,493,492,346
494,494,494,493,484
493,494,493,493,634
491,494,495,491,812
495,494,494,492,861
496,494,494,494,824
495,494,493,493,663
495,494,496,494,454
495,493,495,492,292
495,493,494,492,204
495,493,494,493,183
494,494,494,492,212
494,494,494,494,283
494,494,494,491,400
493,494,493,492,552
494,494,492,491,721
493,494,494,492,854
496,494,493,492,850
496,494,493,493,770
495,494,495,493,568
495,493,495,494,384
496,493,496,493,236
495,494,493,492,186
493,493,494,494,192
495,494,494,492,233
494,494,495,492,332
494,494,493,492,472
494,494,494,491,621
493,494,492,491,793
494,494,493,491,863
494,494,496,493,830
495,494,494,492,687
496,494,496,493,480
497,493,494,493,315
496,493,495,493,209
495,494,494,492,180
492,494,494,493,207
493,494,494,493,271
493,494,494,492,387
494,494,493,492,532
493,494,493,491,696
494,494,493,492,841
494,494,494,493,852
496,494,494,492,785
495,494,495,494,594
497,494,496,492,402
496,493,496,493,250
494,494,496,493,188
493,493,495,493,187
493,494,494,493,226
494,494,495,494,317
494,494,493,493,449
492,494,493,493,599
493,494,493,491,776
495,494,493,493,864
496,494,494,492,835
497,494,495,494,713
496,494,495,493,502
494,493,495,493,335
493,493,495,494,217
494,493,495,493,178
493,494,493,492,202
494,494,494,493,259
495,494,494,492,367
494,494,494,491,516
494,494,493,492,672
494,494,493,492,832
495,494,495,492,855
496,494,494,493,804
494,493,494,494,623
495,493,495,492,424
495,494,495,494,266
494,493,495,493,194
493,493,495,493,186
494,494,495,493,220
494,494,493,491,303
494,494,494,493,432
495,494,494,492,581
494,494,494,491,755
495,494,493,492,859
496,494,494,492,840
495,494,495,494,737
495,494,496,495,526
494,494,494,493,355
493,493,494,493,221
494,493,494,493,183
493,494,494,493,197
494,494,494,494,248
493,494,492,494,353
494,494,493,492,497
494,494,493,492,647
495,494,493,492,820
496,494,495,492,861
496,494,494,493,818
497,493,494,495,648
497,493,494,492,444
494,493,494,494,285
493,494,496,493,201
494,494,494,493,180
494,494,494,494,214
494,494,494,491,291
493,494,495,493,411
492,494,494,492,563
493,494,494,492,731
494,494,494,492,857
494,494,494,493,847
495,494,494,492,757
495,494,495,492,552
496,494,495,493,374
494,493,495,494,232
495,493,494,492,184
496,494,494,492,194
495,493,494,493,239
496,493,493,492,340
495,494,494,491,478
492,494,493,492,632
494,494,494,491,803
495,494,495,493,863
494,494,494,492,827
496,494,494,492,673
495,494,495,494,467
495,493,495,494,304
495,493,496,494,204
494,493,493,493,179
495,493,495,493,209
493,494,494,492,275
493,494,494,493,396
494,494,495,492,545
494,494,494,491,709
494,494,493,492,847
495,494,494,491,850
496,494,494,492,776
496,494,496,493,577
495,494,496,493,391
493,494,495,493,240
494,494,495,493,186
493,493,495,493,190
494,494,495,491,227
495,494,495,492,324
493,494,494,493,461
493,494,494,492,610
493,494,495,491,785
493,494,495,491,864
497,494,494,493,834
497,494,495,495,697
499,494,495,495,488
496,494,495,493,322
493,494,495,493,213
493,493,494,493,180
494,493,494,493,203
492,494,494,491,265
493,494,494,493,377
494,494,494,491,523
494,494,494,491,687
493,494,494,490,837
495,494,496,491,853
496,494,495,492,788
495,493,496,494,606
497,493,496,494,412
496,494,496,494,257
496,493,496,493,192
494,494,495,492,187
492,494,494,492,224
492,494,494,492,312
494,494,494,492,442
494,494,495,492,593
495,494,493,491,767
495,494,494,493,863
496,494,494,494,840
495,494,495,491,725
496,493,496,493,513
496,494,496,494,344
494,494,496,493,219
494,493,496,493,179
492,494,495,492,199
495,494,494,492,252
493,494,496,492,362
494,494,494,491,507
494,494,494,492,662
495,494,494,490,826
496,494,493,491,859
495,494,495,493,812
497,493,496,494,634
496,493,496,493,430
495,493,496,494,274
495,493,495,493,197
493,494,495,492,185
493,494,494,492,217
494,494,495,492,299
493,494,493,491,424
492,494,494,492,573
494,494,495,491,745
494,494,494,490,860
493,494,494,492,842
494,494,494,493,747
495,493,496,494,539
495,494,496,494,363
494,493,495,493,227
494,493,496,493,184
494,493,493,493,196
493,493,495,493,246
494,494,495,493,348
494,494,494,492,488
494,494,493,491,640
494,494,494,491,810
495,494,493,493,860
496,494,495,494,822
495,494,494,495,661
495,494,497,495,455
495,493,496,493,295
495,493,494,495,202
492,494,496,493,181
494,493,495,493,211
494,493,494,492,284
495,494,496,493,403
494,494,493,492,554
495,493,493,491,724
494,494,493,492,856
494,494,494,492,849
495,494,495,493,765
495,494,496,493,565
496,494,495,493,379
496,493,495,493,235
495,493,494,493,185
493,493,495,492,192
493,494,496,492,234
495,494,493,493,330
494,494,493,493,471
494,494,493,493,620
494,494,494,492,796
496,494,492,491,865
494,494,494,492,829
494,493,495,493,686
495,493,495,494,474
495,494,495,494,312
495,493,495,494,210
493,493,495,493,180
493,493,494,493,207
494,494,493,492,270
494,494,494,492,388
494,494,494,492,534
494,494,493,492,700
494,494,494,492,842
495,494,493,492,853
496,494,495,493,781
495,494,494,493,592
494,494,495,494,403
496,494,496,494,248
496,493,495,494,189
494,493,495,494,189
495,493,494,493,227
496,494,495,493,320
497,494,494,492,454
497,494,494,492,604
498,494,493,491,779
495,494,493,493,865
493,494,494,492,836
492,494,495,493,710
494,494,496,494,501
495,494,495,493,334
495,494,497,495,215
497,493,496,492,177
494,494,494,493,202
494,494,495,492,261
494,494,494,493,369
492,494,494,492,517
493,494,495,491,674
493,494,494,490,833
493,494,495,491,856
495,494,494,492,802
495,494,496,494,619
495,493,495,493,419
495,494,494,494,263
494,493,494,492,195
495,494,495,493,186
494,493,493,493,219
494,494,494,492,305
493,494,494,492,432
493,494,494,492,583
494,494,494,491,759
494,494,493,493,862
496,494,494,494,841
495,494,495,494,735
495,493,495,494,522
495,494,496,494,350
494,494,496,493,223
494,493,494,494,181
494,494,496,493,199
495,493,493,493,249
494,494,494,492,356
494,494,494,492,500
494,494,493,492,651
494,494,494,492,821
493,494,494,494,861
494,494,494,493,815
494,494,497,495,645
494,493,495,493,443
494,493,496,494,285
495,493,495,493,198
493,494,495,494,183
495,494,495,493,216
494,494,494,493,295
493,494,494,493,416
494,494,493,493,564
495,494,494,491,736
493,494,492,493,860
496,494,493,492,844
496,494,492,495,755
496,494,493,491,552
497,494,496,494,371
495,494,495,494,234
495,494,494,495,185
496,493,494,493,195
494,494,495,493,240
492,494,494,492,343
493,494,494,492,477
493,494,493,492,630
495,494,492,490,804
496,494,492,492,866
498,494,496,490,826
494,494,496,495,675
496,494,497,494,460
494,494,494,491,299
496,493,496,494,207
493,493,494,492,180
496,494,492,493,211
492,494,493,494,277
491,494,493,494,395
494,494,495,491,535
492,494,491,492,715
495,494,494,489,854
493,494,496,494,850
494,494,496,495,776
496,494,495,492,578
494,493,497,494,377
495,493,495,495,242
493,494,494,492,188
493,493,495,492,194
494,493,495,491,229
493,494,493,490,328
492,494,493,491,453
493,494,494,491,604
494,494,493,492,792
493,494,496,490,869
493,494,495,491,835
495,494,496,492,700
497,493,495,493,484
497,494,495,494,320
495,493,495,495,211
498,493,495,491,182
495,494,495,491,205
490,494,494,494,267
491,494,494,491,383
493,494,495,492,531
492,494,493,493,688
494,494,493,492,838
494,494,493,492,854
495,494,497,492,788
497,493,498,492,604
496,494,494,493,415
494,493,496,494,257
495,493,496,492,190
495,493,496,492,187
494,493,496,492,223
494,494,494,493,311
494,494,493,493,442
494,494,494,492,593
493,494,492,491,769
495,494,495,493,864
496,494,495,493,839
495,494,495,493,722
495,494,495,493,507
495,494,495,494,337
494,493,495,494,218
495,493,494,492,178
494,493,494,492,199
494,494,495,492,253
495,494,493,491,363
494,494,494,492,505
493,494,494,492,666
494,494,493,491,829
494,494,494,492,859
494,494,495,493,810
494,494,496,493,630
495,493,496,494,427
495,493,495,494,269
495,494,495,493,196
497,493,494,492,185
495,493,494,493,219
495,493,494,492,300
494,494,493,492,427
491,494,494,492,576
493,494,494,491,747
493,494,494,493,860
495,494,494,492,844
494,494,494,493,748
495,494,497,495,537
496,493,495,494,364
497,493,495,494,227
495,494,494,495,184
494,493,494,493,197
493,494,494,493,246
494,494,493,492,350
493,494,493,492,493
493,494,493,492,642
494,494,493,491,812
494,494,492,491,863
494,494,494,494,821
496,494,494,493,655
496,493,496,494,452
495,493,495,493,292
496,493,496,494,201
494,493,495,492,182
494,494,495,493,210
494,494,493,494,286
492,494,493,492,405
494,494,494,491,554
495,494,494,491,727
493,494,493,492,856
496,494,495,491,848
496,494,495,493,767
495,493,495,494,563
494,493,495,493,377
494,493,495,494,236
496,493,494,493,184
493,494,493,494,191
492,494,495,493,235
492,494,493,493,335
493,494,493,491,470
493,494,492,491,620
492,494,494,491,798
493,494,495,493,862
495,494,495,493,829
495,494,494,494,683
496,494,496,493,470
497,493,494,494,309
496,493,496,494,209
497,493,494,493,179
495,493,496,491,208
494,493,494,492,273
493,494,493,493,389
493,494,494,493,538
492,494,494,493,703
493,494,493,492,844
495,494,494,494,855
495,494,494,493,783
495,493,495,493,589
494,493,495,493,400
494,493,495,493,247
494,493,494,494,188
494,493,495,492,190
493,493,494,493,226
494,494,494,492,321
495,494,493,493,458
495,494,494,493,607
494,494,493,492,780
495,494,493,491,862
496,494,494,491,833
496,494,494,494,707
496,493,495,494,498
496,494,495,493,331
497,493,495,494,213
496,493,496,493,177
495,493,494,495,201
494,494,496,493,261
492,494,495,492,371
492,494,495,493,516
492,494,495,491,678
493,494,494,490,833
493,494,496,491,855
492,494,494,493,800
496,494,496,493,617
497,494,494,493,414
495,493,497,495,254
496,493,494,493,193
497,494,495,493,186
495,493,496,491,219
495,494,493,492,305
494,494,494,492,428
493,494,493,491,576
492,494,494,493,761
492,494,493,493,864
493,494,494,491,844
495,494,497,494,736
496,493,494,495,522
494,493,495,494,341
494,493,495,493,226
495,494,496,495,186
495,494,492,492,204
495,494,495,493,251
494,494,493,493,360
493,494,493,492,496
494,494,492,493,657
494,494,493,492,822
496,494,494,490,863
496,494,494,491,818
495,494,496,491,643
495,494,496,495,435
495,494,494,494,279
494,493,496,494,200
495,494,494,492,184
495,494,493,492,218
494,493,493,492,297
495,493,493,493,416
493,494,494,492,567
492,494,494,493,740
494,494,492,493,859
493,494,493,491,848
495,494,496,493,751
495,494,494,492,549
494,494,496,495,369
494,494,494,494,232
496,494,496,494,183
494,493,495,493,196
494,494,494,494,242
492,494,494,493,344
493,494,494,492,478
495,494,493,491,629
493,494,494,493,805
496,494,495,491,865
497,494,493,494,826
493,494,493,493,667
496,494,496,492,456
495,494,496,495,295
494,493,494,494,205
493,493,494,492,183
493,494,492,493,210
494,494,493,494,280
492,494,493,491,396
492,494,493,492,542
493,494,493,493,718
493,494,494,492,851
494,494,494,493,850
495,494,493,493,776
494,494,495,492,575
496,494,496,495,383
496,493,495,494,238
494,493,494,493,185
494,494,494,493,192
494,493,494,493,232
495,494,493,492,329
494,494,493,492,462
494,494,493,491,615
496,494,494,491,792
494,494,495,493,866
497,494,496,494,833
497,494,496,490,696
495,494,495,492,484
493,493,495,493,319
495,493,493,492,213
495,493,496,492,180
495,493,495,493,208
494,493,494,491,268
494,494,495,493,380
494,494,493,493,527
494,494,494,493,692
495,494,492,493,838
493,494,495,493,855
495,494,494,492,786
495,494,498,492,601
495,493,496,495,402
497,493,495,493,250
494,493,495,494,192
493,493,495,491,188
494,494,495,492,224
495,494,494,492,315
496,494,494,492,442
495,494,494,491,593
495,494,493,491,773
494,494,492,491,863
495,494,495,493,839
493,494,496,493,715
496,493,495,493,507
494,494,495,495,336
495,493,495,493,219
494,493,496,494,181
493,494,494,492,201
495,493,494,492,257
496,493,494,492,366
494,493,493,491,510
494,494,493,492,670
494,494,494,493,832
495,494,496,492,858
492,494,496,494,807
496,494,496,493,630
495,494,496,495,427
495,493,494,494,271
495,493,495,494,197
493,494,495,493,184
493,494,494,492,219
493,494,493,493,301
493,494,494,493,425
494,494,493,492,577
493,494,493,491,750
493,494,493,491,860
494,494,494,493,843
494,494,496,495,742
497,494,497,492,530
494,494,497,494,354
494,493,495,495,228
494,493,495,492,185
495,493,494,492,199
494,493,493,492,248
492,494,494,493,350
493,494,494,492,490
494,494,494,492,642
493,494,495,491,817
495,494,493,492,865
493,494,495,493,820
495,494,497,493,655
496,493,496,493,445
496,494,495,494,287
495,494,495,494,202
495,493,496,493,184
494,493,493,493,214
494,493,495,492,288
493,494,494,493,407
493,494,494,492,558
494,494,493,492,730
494,494,494,493,858
494,494,494,494,847
496,494,494,492,763
495,494,495,495,559
494,494,495,495,379
497,493,496,493,235
497,493,494,495,185
494,493,495,492,193
493,494,493,492,237
494,493,493,492,335
493,494,494,492,475
493,494,493,492,624
494,494,493,491,800
496,494,492,490,863
495,494,496,492,828
496,494,493,495,679
493,493,496,493,470
495,493,495,495,308
495,493,496,492,208
494,493,496,493,179
494,493,495,493,207
495,494,493,492,273
494,494,493,492,389
495,494,493,492,538
495,494,494,491,707
495,494,495,493,845
494,494,496,494,851
494,494,494,494,780
492,494,496,492,587
494,493,494,492,393
495,493,496,493,245
494,494,495,494,189
494,493,494,493,190
495,493,493,492,231
497,493,493,494,321
495,494,494,492,454
495,494,494,491,604
495,494,494,491,784
493,494,495,493,866
494,494,494,492,836
494,494,494,494,706
493,494,498,496,491
494,494,497,495,327
494,493,496,492,216
493,493,494,492,179
493,494,495,494,206
494,494,495,494,265
493,494,495,493,376
493,494,494,493,518
494,494,494,490,682
494,494,493,493,836
495,494,496,491,856
496,494,496,491,794
496,494,496,495,615
496,494,496,494,414
494,494,495,495,258
494,493,494,494,195
494,493,495,492,188
493,494,495,493,223
493,494,495,493,310
493,494,494,493,435
494,494,493,492,584
494,494,493,492,763
495,494,495,492,864
494,494,495,492,839
493,494,493,495,730
493,494,494,494,519
496,494,497,494,347
495,493,495,493,223
495,493,496,493,182
495,493,495,492,198
493,493,494,493,252
494,494,494,492,359
492,494,494,492,503
493,494,494,492,658
493,494,494,491,824
494,494,493,490,859
495,494,495,492,812
496,494,494,494,639
496,493,495,494,439
496,493,495,493,280
496,493,494,493,199
493,493,494,493,184
494,494,494,493,219
494,494,494,494,297
492,494,493,492,420
493,494,493,491,569
494,494,494,491,741
495,494,493,494,857
496,494,493,491,846
493,494,494,493,750
495,494,495,495,542
496,494,494,494,368
495,493,494,493,230
495,494,494,493,186
495,494,496,493,198
494,494,494,493,242
494,494,493,493,345
492,494,495,493,483
493,494,493,492,632
492,494,493,492,808
494,494,495,492,864
496,494,494,494,821
495,494,494,492,667
497,494,494,493,456
495,493,495,493,294
493,494,494,494,203
492,493,494,494,182
492,493,496,493,210
492,494,493,494,283
495,494,495,492,398
495,494,493,492,545
493,494,493,491,718
494,494,494,493,853
496,494,492,493,849
495,494,495,492,773
493,494,495,495,571
495,493,494,492,381
495,493,495,494,239
493,493,495,493,185
494,494,494,492,191
494,494,493,494,231
492,494,495,493,329
492,494,494,492,465
493,494,494,491,615
493,494,494,492,790
495,494,495,491,865
493,494,496,491,828
493,494,494,496,690
497,493,496,495,480
495,493,495,495,319
495,493,495,493,211
495,494,494,492,180
493,494,495,492,206
494,493,495,493,270
495,494,494,491,383
493,494,493,492,531
493,494,493,491,692
492,494,494,491,839
493,494,493,494,853
496,494,493,492,783
495,494,495,493,595
495,494,496,493,406
494,493,495,494,253
494,493,495,494,190
494,493,495,494,188
495,493,494,492,227
496,493,495,492,318
494,494,494,492,447
493,494,495,492,596
493,494,494,490,772
492,494,493,491,863
494,494,496,491,838
495,494,496,495,717
494,494,494,493,502
494,493,494,494,336
494,493,495,493,218
495,493,495,493,181
494,494,493,492,202
492,494,495,492,258
493,494,494,493,368
494,494,494,491,511
494,494,493,492,670
493,494,494,492,831
493,494,495,492,858
496,494,495,494,804
494,494,494,495,628
495,494,495,495,426
494,493,495,494,266
495,493,495,493,195
494,493,494,493,186
494,493,493,492,220
496,494,496,492,304
494,493,494,492,426
494,494,494,491,575
493,494,494,491,753
494,494,493,492,860
492,494,493,493,839
493,494,498,493,741
496,494,494,494,528
495,494,495,493,355
495,494,495,494,226
493,493,495,493,184
495,493,495,492,199
495,493,494,492,249
495,494,494,493,354
494,494,494,492,493
492,494,494,491,644
492,494,493,493,816
494,494,493,492,860
493,494,497,490,819
494,494,494,492,650
495,493,496,493,443
496,494,495,493,284
495,493,495,493,202
492,493,497,492,182
493,493,495,492,216
493,494,494,493,292
494,494,495,492,410
493,494,493,492,558
494,494,495,491,730
493,494,494,491,856
494,494,496,491,847
495,494,494,493,756
494,494,494,492,557
496,494,494,495,377
494,494,496,493,236
495,493,494,494,185
494,493,495,492,196
495,494,494,492,238
495,494,494,492,339
494,494,493,493,476
493,494,493,492,626
493,494,494,491,800
495,494,493,491,861
495,494,494,493,827
495,493,494,492,680
496,494,497,494,471
497,493,495,493,309
496,493,494,493,207
494,493,495,492,181
493,493,495,493,209
493,494,493,493,275
492,494,494,492,392
493,494,494,492,539
495,494,495,493,707
495,494,493,491,846
494,494,494,494,850
496,494,495,492,779
494,493,497,492,581
495,494,496,493,391
494,493,496,493,243
494,493,494,492,190
493,493,495,493,190
493,494,494,494,230
494,493,493,493,325
494,494,494,493,454
494,494,494,491,605
494,494,492,492,783
493,494,495,493,862
494,494,495,494,835
494,494,493,494,701
496,493,497,494,487
493,493,495,495,322
494,493,495,493,217
494,493,494,494,181
492,493,495,494,207
494,494,496,493,264
493,494,495,491,375
492,494,493,493,519
495,493,492,493,683
495,494,493,493,837
499,494,493,491,856
499,494,495,495,792
499,494,495,494,612
497,494,496,496,415
495,493,494,495,259
493,494,495,493,195
492,493,496,494,188
493,494,494,493,225
494,494,495,492,312
492,494,493,493,438
493,494,493,492,587
492,494,493,491,764
492,494,495,491,863
495,494,493,492,838
497,494,494,493,722
498,493,493,495,516
496,493,496,492,344
495,493,494,493,222
493,494,496,494,183
492,494,494,492,201
493,494,495,492,254
494,494,495,492,363
495,494,493,491,501
494,494,494,492,660
494,494,492,493,827
495,494,493,494,859
497,494,495,491,811
493,494,495,493,636
495,493,496,493,432
494,494,496,494,274
494,493,495,492,202
495,493,494,492,185
494,494,493,492,219
494,494,493,494,297
492,494,495,493,419
495,494,493,492,569
493,494,494,493,742
493,494,495,492,859
495,494,495,491,845
494,494,495,492,750
498,494,494,493,539
495,493,497,494,364
495,493,495,493,233
494,493,495,492,188
493,493,495,492,199
494,493,493,493,246
495,493,493,493,350
493,494,493,491,483
494,494,495,492,635
495,494,493,493,809
494,494,493,492,864
494,494,495,491,821
494,493,496,494,662
496,493,498,494,455
494,493,494,494,297
495,493,496,494,204
496,493,493,494,184
494,493,493,493,212
496,493,494,492,283
495,494,493,493,402
494,494,494,494,549
493,494,495,491,720
492,494,495,492,853
494,494,495,493,847
495,494,492,494,767
495,494,497,493,567
493,494,496,495,383
493,493,494,494,237
493,493,494,493,186
494,493,495,493,193
493,493,495,492,233
494,494,494,491,333
494,494,493,492,467
493,494,492,491,617
493,494,494,492,795
494,494,495,493,865
496,494,496,493,827
494,494,496,495,685
495,493,494,494,477
496,493,496,495,314
495,493,495,494,212
494,494,493,492,181
493,493,494,495,207
492,494,492,491,271
494,494,495,493,387
493,494,495,492,531
492,494,493,493,698
492,494,493,492,838
494,494,495,492,849
494,494,494,494,780
495,494,497,494,595
497,493,495,494,397
494,493,494,495,247
495,494,494,492,193
492,494,494,493,188
493,494,493,494,228
494,493,496,492,321
494,494,494,493,446
494,494,493,493,595
494,494,493,491,776
495,494,492,491,863
493,494,493,494,837
495,494,494,492,710
497,494,494,492,501
495,493,494,494,332
494,493,493,494,219
494,493,496,492,181
493,493,494,493,206
494,494,494,491,261
493,494,493,491,369
493,494,493,492,511
494,494,493,491,673
494,494,495,493,831
497,494,493,493,858
494,494,493,492,803
495,494,498,494,623
494,494,496,493,421
495,494,495,493,263
495,493,494,494,195
493,493,496,492,187
494,493,495,493,220
492,494,494,492,305
495,494,493,493,426
494,494,494,492,576
494,494,493,491,757
493,494,493,493,862
496,494,494,494,842
496,494,497,491,738
494,494,495,495,527
494,493,495,493,350
495,494,495,493,227
494,493,494,492,186
492,493,495,493,199
492,494,494,492,252
494,494,494,493,357
494,494,494,492,495
494,494,494,492,649
494,494,494,492,819
493,494,493,491,858
494,494,493,494,816
496,494,495,491,649
496,494,496,495,443
494,493,495,495,287
495,493,495,494,203
494,493,495,493,187
495,493,494,492,216
494,494,495,493,294
494,494,493,492,414
493,494,494,492,564
494,494,494,491,731
494,494,494,491,856
496,494,496,494,845
494,494,495,495,755
497,493,495,495,552
494,493,496,493,374
495,494,496,494,235
494,493,496,493,186
494,493,495,493,197
494,493,495,493,242
494,494,494,493,340
493,494,494,492,477
493,494,494,493,628
494,494,494,492,799
493,494,495,492,860
495,494,493,491,823
493,493,494,492,673
495,494,494,492,466
494,493,496,495,302
495,493,495,495,208
495,494,494,492,185
494,494,494,494,213
494,493,496,491,278
495,494,495,493,394
493,494,493,492,539
492,494,493,491,712
492,494,493,492,849
495,494,495,492,849
496,494,496,491,777
497,494,497,495,582
495,494,496,494,388
495,494,495,493,243
494,493,494,493,190
494,494,496,492,191
492,494,495,495,231
492,494,494,493,327
492,494,494,492,458
492,494,494,492,609
493,494,493,492,785
494,494,492,491,864
494,494,495,492,831
493,494,497,494,698
495,494,495,493,485
497,493,497,494,323
495,494,495,495,215
494,494,494,492,182
493,494,494,492,209
493,494,494,494,266
493,494,494,491,379
493,494,494,492,523
494,494,493,491,687
493,494,494,492,837
494,494,495,494,852
493,494,495,492,787
494,494,497,495,606
494,494,496,493,410
494,494,494,494,257
496,493,495,493,196
494,493,494,493,190
493,494,494,493,227
492,494,493,493,315
493,494,494,492,441
494,494,494,492,590
495,494,493,492,767
495,494,495,493,860
496,494,495,495,835
495,494,494,494,721
496,494,497,492,510
495,494,495,495,343
495,493,495,492,222
494,493,494,494,183
492,494,494,492,204
493,494,495,494,255
494,494,494,492,364
494,494,494,492,505
494,494,494,492,663
495,494,492,491,828
494,494,495,491,856
495,493,494,494,809
494,494,496,491,630
496,493,496,494,431
495,493,496,493,274
496,493,495,495,200
494,494,494,494,187
495,493,494,493,220
492,494,494,492,300
493,494,493,493,425
493,494,493,493,572
492,494,493,492,746
493,494,494,490,857
494,494,495,492,839
495,494,496,495,743
494,493,494,495,534
495,493,497,494,360
495,493,495,494,228
495,493,495,496,187
494,493,494,494,199
494,494,494,493,249
493,494,494,493,351
494,494,493,492,488
495,494,494,492,638
495,494,492,492,809
495,494,494,491,860
494,494,495,495,818
494,494,496,493,657
494,494,496,495,450
494,493,495,493,293
493,493,495,495,207
494,493,494,493,185
494,493,494,493,216
494,494,493,492,289
495,494,494,492,406
494,494,493,492,553
494,494,493,493,722
493,494,492,491,853
494,494,493,492,846
494,494,495,492,765
493,494,497,493,564
494,493,496,494,381
495,493,495,493,237
494,493,495,493,186
494,493,495,494,196
495,494,495,494,239
494,494,494,493,365
493,494,493,492,524
493,494,493,493,669
494,494,494,491,782
494,494,494,492,844
495,494,493,493,813
496,494,494,494,688
497,494,495,494,515
494,493,494,494,353
495,493,495,495,213
495,493,494,493,156
493,493,494,492,188
494,494,494,492,264
494,494,493,492,418
493,494,493,492,573
495,494,493,492,713
495,494,493,491,811
494,494,496,493,825
496,494,495,493,762
496,493,494,493,607
495,493,495,494,437
495,493,494,494,282
496,494,496,495,166
495,494,494,494,164
493,493,493,494,206
494,493,495,493,328
493,494,494,492,489
492,494,493,492,635
492,494,493,493,759
493,494,493,493,833
493,494,495,493,807
494,494,495,493,700
494,493,496,495,530
495,493,495,494,367
494,494,496,494,225
494,493,495,495,150
493,494,494,493,180
494,493,494,493,249
494,494,494,492,397
494,494,494,493,552
495,494,494,493,696
493,494,494,492,800
494,494,493,495,827
494,494,494,492,776
495,493,494,494,627
496,494,495,495,456
494,493,496,495,300
494,493,494,494,176
493,494,496,493,159
492,494,494,494,200
493,494,494,492,308
493,494,494,492,468
493,494,494,492,616
494,494,493,492,747
495,494,493,492,826
495,494,495,492,813
495,494,495,493,719
495,493,495,494,551
495,494,495,494,387
494,493,495,495,237
494,493,495,495,149
494,493,493,492,175
494,494,495,493,233
494,494,494,492,377
493,494,493,492,536
494,494,493,492,680
496,494,493,492,786
496,494,495,493,830
497,494,494,493,790
494,494,495,493,647
494,494,495,494,476
494,494,495,494,315
494,493,495,494,187
494,493,495,494,158
494,494,494,492,193
494,494,494,493,289
494,494,494,492,450
495,494,494,492,600
494,494,494,493,733
493,494,494,492,823
493,494,494,492,816
495,494,494,494,736
495,493,495,494,570
495,494,496,495,406
495,494,495,495,254
494,494,496,495,153
493,494,494,493,170
493,494,493,493,223
494,494,494,492,357
494,494,494,492,516
495,494,494,492,662
496,494,493,493,775
495,494,494,491,830
495,494,495,493,799
493,494,495,493,668
495,493,496,494,497
494,493,496,493,337
494,494,495,494,201
493,494,495,494,153
492,494,495,493,187
493,494,495,493,273
493,494,495,493,429
493,494,493,493,580
493,494,494,493,720
493,494,493,493,816
494,494,493,492,820
494,494,493,493,755
494,494,495,493,594
495,494,494,495,427
495,494,495,495,269
495,493,496,496,158
493,493,497,494,166
493,494,494,493,211
494,494,495,494,338
492,494,493,493,500
493,494,493,492,646
495,494,494,492,766
494,494,494,493,833
494,494,494,492,804
495,494,495,493,688
495,494,496,495,517
496,494,495,494,356
495,493,496,495,214
495,493,495,492,151
494,494,493,494,182
493,494,494,493,256
494,494,493,492,409
492,494,494,492,562
494,494,493,492,704
495,494,493,493,802
494,494,493,493,823
495,494,496,492,763
494,494,495,494,613
493,494,496,493,441
495,494,495,494,288
496,493,495,494,171
495,493,494,493,163
495,494,494,492,203
493,494,493,493,320
493,494,494,493,479
493,494,494,492,625
493,494,493,492,752
493,494,492,492,831
493,494,495,494,807
494,494,494,494,708
495,493,496,493,538
495,494,496,494,376
494,494,497,495,228
494,493,495,494,151
495,494,494,492,176
494,494,494,492,242
494,494,492,492,388
493,494,493,492,543
492,494,493,492,689
492,494,493,493,793
493,494,492,493,826
495,494,493,493,784
495,494,494,493,637
495,494,494,493,463
495,494,495,493,306
495,494,495,494,177
495,494,494,493,160
493,494,495,494,196
493,494,494,492,300
492,494,493,492,460
492,494,493,493,608
493,494,494,492,741
493,494,493,493,828
494,494,494,492,813
495,494,495,493,728
495,494,496,494,560
495,494,496,494,394
494,494,498,494,244
493,494,495,494,155
494,494,494,494,174
494,494,494,494,232
493,494,492,493,367
494,494,492,492,529
494,494,492,492,672
494,494,494,493,780
494,494,494,493,830
493,494,494,492,792
494,494,495,494,655
494,493,494,494,484
494,494,495,494,324
495,494,495,495,193
495,493,494,494,156
494,494,494,493,192
493,494,495,493,282
493,494,493,492,439
493,494,492,492,589
494,494,492,493,725
495,494,494,491,822
495,494,494,493,817
495,494,494,493,745
494,494,495,494,581
493,494,494,494,413
494,494,495,493,261
495,493,494,494,152
495,494,494,494,168
496,494,494,492,215
493,494,495,491,347
492,494,493,491,507
493,494,493,492,654
493,494,492,491,769
494,494,494,492,832
494,494,494,493,801
496,494,494,493,678
495,494,496,494,505
495,493,495,494,344
494,494,495,493,204
492,494,495,494,153
492,494,495,493,186
493,494,494,493,264
494,494,494,492,418
494,494,494,492,572
493,494,494,492,712
494,494,494,493,811
495,494,494,492,821
495,494,495,493,760
494,494,495,494,603
494,494,495,495,432
493,494,496,494,276
494,494,497,494,162
494,493,497,493,164
494,493,496,492,207
493,494,494,493,330
492,494,492,492,491
493,494,493,492,637
493,494,494,492,759
493,494,493,492,831
494,494,495,493,806
494,494,495,492,697
494,494,496,493,526
494,494,495,495,363
494,494,495,495,219
494,493,496,492,153
494,493,494,493,182
494,494,493,493,252
491,494,493,492,401
491,494,493,492,555
493,494,493,492,696
494,494,493,493,802
494,494,494,491,824
492,494,494,492,775
494,493,495,494,624
494,494,494,493,451
493,494,495,493,296
494,493,495,495,173
493,494,494,492,161
492,494,494,493,201
492,494,494,494,311
492,494,494,492,471
493,494,494,493,618
493,494,495,492,747
494,494,495,492,830
496,494,493,491,812
495,494,493,494,719
495,494,494,494,547
495,494,494,494,385
494,494,495,493,235
494,494,494,495,154
492,494,495,492,176
493,494,494,493,235
492,494,493,493,379
492,494,493,492,537
493,494,493,492,680
495,494,493,493,789
495,494,494,492,828
495,494,494,492,788
494,494,494,493,646
492,494,494,493,472
492,494,496,493,313
494,494,496,494,185
493,494,495,493,158
492,494,495,494,195
492,494,494,492,291
492,494,493,492,453
492,494,494,493,602
493,494,493,493,734
493,494,493,493,826
493,494,494,494,816
495,494,494,493,737
494,493,494,494,569
495,494,494,494,404
494,494,496,494,251
493,494,496,494,153
493,494,496,494,171
493,494,494,493,226
493,494,493,492,360
492,494,493,492,518
493,494,494,491,662
494,494,493,492,774
493,494,493,494,829
493,494,494,492,798
494,494,495,493,667
494,494,495,493,493
495,494,496,493,336
494,493,495,494,199
495,494,496,493,155
494,494,494,492,190
493,494,494,493,276
492,494,494,492,431
492,494,494,492,580
493,494,493,491,719
493,494,493,493,819
493,494,496,494,820
494,494,495,493,753
494,494,494,495,590
494,494,495,494,422
493,494,495,494,268
494,493,495,494,157
492,494,494,492,167
492,494,494,494,210
492,494,494,493,339
493,494,493,492,499
492,494,493,492,647
493,494,494,493,764
493,494,493,491,834
494,494,494,493,805
495,493,495,493,686
494,493,495,494,514
494,494,495,494,353
494,494,495,494,210
493,494,496,494,154
492,494,494,493,185
492,494,494,492,258
493,494,493,492,410
493,494,494,493,563
494,494,495,493,704
494,494,495,493,805
497,494,497,493,824
498,494,496,492,764
495,494,497,492,611
492,494,494,493,440
493,494,493,494,284
492,494,494,495,169
491,494,492,494,163
493,494,494,492,204
491,494,493,492,323
490,494,494,492,482
492,494,493,493,628
492,494,493,493,752
494,494,494,491,834
494,494,494,493,808
495,494,495,493,706
495,494,495,493,534
493,494,496,494,373
492,494,496,494,228
492,493,495,493,153
493,494,494,492,179
493,494,494,493,245
491,494,493,493,390
491,494,493,493,544
493,494,493,492,688
493,494,494,491,798
494,494,493,493,826
495,494,494,493,783
495,494,495,493,634
495,493,495,494,461
495,493,495,494,304
493,494,496,494,177
494,494,496,492,157
493,494,495,492,200
494,494,493,493,302
493,494,494,493,461
493,494,494,492,609
492,494,493,493,740
493,494,493,491,828
494,494,493,491,814
494,494,495,494,728
495,494,494,493,556
496,494,496,494,391
495,493,495,494,240
493,493,495,494,155
492,494,493,495,175
492,494,495,492,232
492,494,494,492,369
492,494,493,492,528
493,494,495,491,671
495,494,494,492,783
492,494,495,494,829
494,494,494,492,793
493,494,494,494,655
492,494,496,494,482
494,494,496,494,322
493,494,495,494,189
493,494,496,492,159
492,494,493,493,193
493,494,494,492,286
494,494,494,492,442
493,494,494,492,593
494,494,495,493,725
493,494,495,492,824
493,494,493,493,817
494,494,494,492,744
494,494,496,493,580
493,494,496,493,412
