Sensor0,Sensor1,Sensor2,Sensor3,Sensor4

4,493,495,491,788
495,493,494,491,753
494,494,494,494,629
493,494,496,493,479
494,495,496,492,339
495,494,495,493,223
493,493,494,493,197
493,495,495,493,228
493,492,494,493,316
492,491,494,492,455
492,492,493,491,586
494,491,494,491,705
494,493,495,491,785
494,495,494,493,776
495,493,495,492,706
494,494,494,491,562
496,495,497,491,416
497,491,496,496,282
493,493,495,494,196
494,492,494,492,209
493,493,495,493,257
493,493,493,493,373
493,492,495,491,514
494,493,496,491,643
494,492,494,491,743
494,493,494,492,790
494,495,495,492,762
495,493,496,492,645
494,494,495,493,495
495,495,496,495,353
494,494,496,494,233
493,494,495,492,194
493,494,494,493,224
494,491,494,492,298
493,492,495,492,437
493,491,493,493,572
494,493,494,492,692
494,492,494,492,778
494,493,494,491,781
493,493,494,493,720
496,494,496,494,580
495,494,495,492,434
495,493,495,493,296
495,494,495,493,200
494,492,495,493,206
493,493,496,493,243
493,492,494,492,356
492,492,495,492,498
494,494,493,492,626
494,493,494,491,732
493,494,495,490,790
493,495,495,493,768
494,494,496,493,664
494,495,495,493,514
495,494,495,493,373
494,494,496,493,248
494,493,496,493,193
494,493,494,493,218
493,493,495,492,285
492,492,495,491,419
493,492,495,491,553
494,493,495,492,679
493,492,494,491,768
495,494,495,492,784
495,493,494,493,733
495,494,496,494,599
496,494,496,493,450
494,494,496,493,311
494,493,495,493,206
494,492,495,494,201
493,494,495,492,235
492,493,495,492,339
492,492,495,492,478
493,493,494,491,611
493,493,494,492,724
493,493,494,493,790
494,494,494,492,772
494,493,495,493,681
495,495,496,492,532
493,493,494,493,388
493,493,495,493,259
494,493,496,493,193
494,493,495,494,214
494,492,496,493,271
493,493,494,492,401
492,493,494,492,538
494,493,494,492,663
494,493,495,493,758
495,494,495,492,785
494,494,495,492,746
494,495,495,492,617
494,494,496,493,467
494,494,496,493,328
494,495,495,493,218
494,494,495,492,197
493,492,495,493,230
493,492,494,492,322
493,493,494,492,463
494,493,494,492,593
494,494,494,492,709
493,493,494,491,788
495,493,495,492,776
495,493,495,492,697
495,493,496,492,551
495,493,496,494,408
495,494,496,493,273
493,494,496,494,194
493,493,495,493,210
493,493,495,492,259
493,492,494,493,383
494,493,494,491,521
493,492,494,492,649
494,493,494,492,747
494,493,494,492,789
495,493,494,493,757
496,494,495,492,637
495,495,495,493,486
493,495,496,493,344
492,494,496,493,225
492,493,496,492,196
493,494,495,493,225
494,493,495,493,307
493,493,494,492,445
494,494,494,491,577
493,493,493,492,698
493,492,494,491,783
494,494,495,492,778
495,494,495,493,715
494,494,495,493,569
495,494,496,494,425
496,494,496,493,287
494,492,495,492,199
492,492,495,493,207
494,493,494,493,252
492,493,494,492,365
494,492,494,492,505
494,493,493,491,635
494,493,494,492,734
493,493,494,492,791
493,494,494,491,766
494,494,494,493,655
496,494,496,494,504
496,495,496,494,361
495,493,496,493,239
493,494,496,493,196
492,493,495,492,222
493,493,495,494,292
492,492,494,492,428
493,493,495,493,561
495,494,494,492,684
494,493,494,492,776
494,494,494,492,783
496,494,495,493,728
496,494,496,493,589
496,495,496,494,442
495,495,496,494,303
493,494,496,493,200
492,492,494,493,205
494,493,495,492,239
493,491,495,491,348
492,492,495,491,487
494,492,495,492,617
493,493,494,492,726
493,493,494,491,793
494,494,495,491,769
494,494,495,492,673
495,493,495,492,522
494,494,495,493,378
493,495,496,494,251
493,494,495,493,194
493,493,494,493,217
494,493,495,492,277
494,492,494,491,409
493,493,494,491,544
494,492,494,491,670
493,493,495,491,765
494,494,495,492,784
495,495,495,493,740
493,494,495,493,608
494,495,496,493,457
494,494,496,492,317
493,494,497,493,210
493,493,495,494,201
494,493,494,492,232
493,492,494,492,332
494,493,494,492,472
494,493,494,491,603
493,494,495,492,716
493,494,495,491,790
494,495,494,491,775
493,494,495,492,690
495,495,495,493,541
495,495,495,494,396
496,495,496,493,265
496,494,495,494,194
493,493,495,493,212
493,493,495,492,267
493,493,495,493,393
494,493,495,491,529
494,493,494,492,656
494,493,494,491,754
494,493,495,493,789
494,493,495,492,753
493,494,496,492,626
493,494,495,493,475
493,496,496,493,335
494,494,496,492,221
493,494,496,493,199
492,492,495,493,228
492,493,495,493,316
493,492,494,492,455
494,492,494,491,584
494,493,494,492,705
494,495,494,492,786
493,494,494,492,778
493,495,494,492,706
495,494,494,493,560
495,495,496,494,414
497,494,496,494,279
495,494,495,493,196
494,493,496,492,208
494,494,495,492,256
492,492,494,492,373
492,493,494,493,512
492,492,495,492,641
493,494,494,491,742
495,494,494,491,790
494,494,495,493,761
493,495,495,493,646
493,495,495,492,493
493,495,496,492,349
494,494,496,493,231
494,494,495,493,195
493,493,495,492,222
493,493,496,493,300
493,493,494,491,436
492,492,495,492,557
494,493,494,492,666
493,493,495,492,784
496,494,496,492,787
496,496,497,496,716
497,495,495,493,543
497,494,496,494,360
496,494,495,492,267
494,493,496,493,219
492,493,494,493,220
493,492,494,492,258
490,492,494,493,343
493,494,495,493,446
491,493,495,492,591
494,492,494,491,752
494,492,495,492,814
493,492,495,493,788
494,494,495,492,662
496,496,497,492,475
494,495,496,494,315
494,494,495,494,251
494,493,494,492,223
494,492,494,493,243
493,493,494,492,298
493,493,494,492,394
494,493,496,492,497
492,492,494,492,672
493,493,493,493,802
495,494,495,492,805
494,494,495,492,757
493,494,495,493,601
495,495,496,493,433
495,495,496,494,299
494,494,496,493,225
493,495,496,493,222
493,493,496,493,253
493,492,494,494,332
493,494,494,492,458
492,494,494,492,596
494,492,494,492,732
494,493,494,493,811
496,493,495,492,790
494,494,495,493,682
495,494,497,493,518
493,494,495,493,378
493,494,495,494,252
494,494,495,494,212
493,493,496,492,231
494,494,494,493,279
493,493,494,492,378
491,493,494,492,510
493,494,493,493,645
493,494,494,491,783
494,494,495,492,806
494,493,496,492,762
495,494,495,493,619
496,494,495,494,463
496,495,496,494,322
495,494,496,493,223
494,492,495,493,214
492,494,496,493,243
492,492,495,492,333
494,493,494,491,473
494,495,495,492,603
495,494,495,492,720
494,494,494,492,794
495,494,494,492,782
494,494,494,492,701
494,495,496,493,553
494,495,496,493,409
492,494,496,494,277
493,495,496,494,196
492,493,496,492,212
494,493,494,493,258
493,492,495,492,368
494,493,494,490,498
493,493,495,492,624
493,492,494,492,760
493,493,494,493,800
494,494,495,491,766
495,495,495,494,619
494,495,496,493,450
493,494,497,493,309
494,493,496,492,232
495,492,495,494,216
494,493,495,492,242
495,493,495,493,308
496,494,494,493,412
495,493,494,492,544
494,494,493,489,701
493,493,494,492,808
494,495,495,491,797
493,494,494,493,724
496,494,496,494,545
495,495,496,492,389
494,494,495,494,266
491,492,494,492,224
493,492,495,491,231
493,493,496,494,268
494,494,495,493,355
495,493,494,492,481
495,493,494,491,613
493,492,493,492,760
494,494,494,492,814
495,495,495,492,784
495,494,495,493,651
493,494,495,493,487
494,495,496,493,344
493,495,495,493,239
492,494,496,493,216
492,494,494,493,239
493,493,494,492,299
493,493,494,492,420
493,493,495,492,550
494,494,494,491,672
493,494,494,492,795
494,494,495,493,800
495,495,494,493,735
495,495,496,493,577
495,494,496,493,425
494,493,496,493,285
493,494,495,493,219
493,494,495,493,221
493,494,495,493,254
493,493,494,492,340
492,492,494,492,468
494,493,494,491,595
492,494,494,492,739
494,493,495,492,811
494,494,493,491,786
496,496,495,492,669
495,496,497,494,494
497,494,496,493,349
495,495,495,494,247
494,493,494,493,216
495,493,495,493,236
495,493,494,492,287
494,493,494,492,387
492,493,494,491,514
491,494,493,491,658
493,493,495,491,789
493,494,494,491,806
493,495,495,492,752
493,494,494,493,593
493,495,496,494,428
494,495,495,493,291
493,494,495,493,229
494,493,494,494,223
493,493,495,492,254
494,494,494,493,330
495,495,494,491,450
497,493,494,492,581
494,494,493,491,728
493,495,494,491,813
492,495,495,492,792
494,494,494,492,693
495,494,495,493,521
495,496,496,494,373
495,494,496,494,255
494,494,495,493,217
494,493,495,493,234
492,494,495,493,279
492,494,494,492,379
492,493,493,493,510
494,493,493,492,637
493,493,494,492,778
495,494,494,493,808
496,494,496,492,770
495,495,494,493,617
495,495,495,493,452
492,493,496,492,310
493,495,495,494,233
493,494,495,493,219
493,493,495,492,247
492,493,495,491,316
495,493,495,493,430
494,492,494,492,559
496,494,495,491,708
496,494,494,492,809
493,493,495,492,797
493,496,496,493,713
493,495,496,493,534
494,495,496,493,386
493,496,496,495,263
494,494,495,493,223
493,493,495,493,232
494,493,495,492,271
493,494,495,493,360
494,493,494,492,486
493,493,494,491,618
493,491,493,492,769
494,494,495,491,814
495,495,495,492,781
493,495,496,492,640
494,496,496,493,469
493,495,495,494,325
492,495,495,494,240
497,493,495,492,219
500,493,494,492,245
502,494,496,492,306
498,493,495,493,420
497,494,495,492,550
494,494,495,492,690
488,495,494,492,804
488,494,494,493,802
495,494,495,493,731
495,494,496,493,562
495,494,495,492,405
495,494,494,493,270
492,495,495,493,223
489,493,495,492,226
490,493,495,493,261
492,494,495,493,348
495,493,494,492,473
494,494,494,492,605
494,494,494,491,752
497,495,494,492,815
498,495,494,493,788
499,495,495,493,660
498,494,496,494,484
497,495,496,493,342
493,494,496,494,245
487,494,495,493,218
490,494,494,492,240
492,494,494,493,295
493,494,495,492,398
493,493,496,491,526
493,493,495,492,669
491,493,494,491,795
491,494,496,493,805
493,495,495,493,747
495,495,496,494,580
496,496,496,494,420
496,494,496,494,285
495,492,495,493,226
493,494,497,492,225
493,493,495,492,255
493,492,496,493,335
495,493,496,493,456
494,493,494,492,587
496,496,496,491,737
491,495,494,491,815
491,495,495,492,792
495,494,496,493,683
497,495,496,493,507
494,496,496,493,359
493,494,495,494,250
492,493,495,493,218
491,495,495,493,235
492,493,495,492,283
491,492,494,492,384
491,493,494,492,513
493,493,494,492,647
492,493,494,491,787
494,493,495,492,808
495,494,495,492,761
494,495,496,494,606
494,496,496,493,438
493,495,496,493,298
495,493,496,493,233
494,494,496,493,222
492,493,496,492,250
492,492,495,493,323
494,493,495,492,439
493,493,494,492,570
494,494,494,491,719
496,494,494,491,812
495,495,494,493,796
495,495,495,493,703
494,495,496,493,524
493,495,495,494,375
494,494,495,494,260
496,494,496,494,219
497,494,495,492,233
496,492,495,492,276
493,494,494,493,368
493,493,495,491,497
493,494,495,492,628
489,492,494,491,776
492,493,494,492,811
494,493,495,494,776
495,495,495,493,628
495,495,496,493,460
494,494,495,493,320
494,493,495,493,237
492,495,495,494,218
492,493,495,491,245
491,493,495,493,311
494,491,494,492,425
495,493,493,491,556
496,493,494,491,699
493,493,494,492,808
494,494,495,491,800
493,494,495,493,722
494,495,496,494,551
495,495,495,494,397
493,496,495,493,265
493,494,495,493,221
493,493,494,493,229
495,494,495,493,266
495,494,494,492,354
494,492,494,492,481
492,493,493,491,612
491,493,494,492,762
492,494,495,490,813
492,495,495,492,784
494,495,495,492,651
494,494,496,493,476
493,495,496,492,333
494,494,495,493,242
494,494,494,493,218
492,493,495,493,239
491,494,496,494,300
492,493,495,492,409
490,493,495,492,539
493,493,493,492,679
495,493,493,491,801
497,493,495,492,803
497,495,494,493,741
494,495,496,493,570
493,495,496,494,413
494,495,495,493,277
493,494,495,493,225
491,493,494,493,225
491,493,495,492,258
493,493,495,492,341
492,493,494,492,467
494,493,494,491,597
494,493,494,491,745
494,494,495,491,814
495,493,495,491,790
495,494,496,492,672
495,495,496,494,498
496,495,495,494,354
495,495,495,493,248
494,495,494,492,216
491,493,494,492,236
491,494,494,492,289
492,494,495,493,392
493,493,494,492,520
492,493,494,491,657
492,493,495,490,789
493,495,494,492,807
494,494,495,492,753
495,494,495,493,593
497,495,495,494,430
496,495,496,494,291
495,494,495,493,229
497,494,495,493,223
493,494,495,493,252
494,493,495,493,329
494,493,494,492,448
493,494,494,492,579
492,493,495,490,729
490,495,495,492,815
493,494,495,492,795
494,495,495,492,694
494,496,495,493,516
495,494,495,493,367
494,495,496,494,253
494,493,495,494,217
493,493,495,492,233
493,494,495,492,279
492,493,495,492,378
492,492,494,492,505
491,493,495,491,638
490,493,495,492,781
491,494,496,491,809
492,494,495,493,770
493,494,496,494,616
495,494,496,493,446
497,493,495,493,307
495,494,495,493,235
494,493,495,493,220
493,496,495,493,248
490,494,496,493,318
492,494,495,492,432
493,494,495,492,563
493,494,495,491,709
494,494,495,492,809
493,494,495,493,799
493,495,495,492,713
493,495,496,493,537
493,495,496,493,386
491,495,496,493,262
492,494,495,493,220
493,494,494,492,230
493,494,495,493,272
493,493,495,493,363
494,494,495,493,490
493,493,494,491,622
492,493,495,491,768
491,494,494,491,814
493,494,494,494,781
493,496,495,494,638
493,495,495,494,469
495,494,496,494,326
495,495,496,493,237
494,493,495,492,218
490,493,495,492,243
490,493,496,493,306
494,493,495,492,418
498,495,493,492,549
498,494,494,492,691
493,493,494,491,805
489,494,494,492,802
489,495,495,493,731
493,495,497,493,558
493,495,496,493,402
494,494,497,493,269
492,494,495,494,223
491,494,494,492,227
490,492,495,493,262
490,492,495,492,348
490,493,494,492,474
491,493,495,492,606
490,493,494,491,753
493,493,495,492,815
491,493,496,492,786
494,495,495,494,662
495,494,496,493,486
494,494,495,493,342
494,495,495,493,244
496,494,496,493,217
495,493,494,492,239
493,494,494,493,295
489,493,495,493,402
489,494,494,491,532
494,495,494,491,669
493,492,494,491,796
496,494,496,491,805
492,495,495,493,746
491,495,496,493,580
490,494,496,494,421
491,494,495,493,283
491,493,496,493,226
491,493,495,492,223
492,494,495,492,255
492,494,494,493,335
491,493,494,493,458
491,494,495,492,589
493,492,491,492,738
495,495,495,492,815
497,495,495,492,793
496,495,495,493,683
493,496,495,493,506
489,494,495,493,359
489,494,496,492,249
491,493,495,492,217
493,492,495,493,236
492,494,495,493,284
490,493,495,493,385
492,493,494,493,513
492,493,493,491,647
494,491,493,490,786
493,495,494,492,807
492,495,495,493,760
492,495,497,493,605
493,496,496,492,438
493,495,496,495,298
493,494,496,493,231
491,494,495,493,222
491,494,495,493,250
492,494,496,492,322
492,492,495,492,440
492,494,495,493,572
491,492,495,490,719
491,494,496,491,812
492,494,495,493,796
493,495,495,493,702
493,495,496,493,526
493,495,497,493,375
492,496,496,493,258
493,494,495,492,219
492,494,497,492,232
492,494,495,493,275
492,493,494,492,369
492,493,495,491,495
492,493,494,492,627
493,494,493,492,776
493,493,495,492,812
495,494,495,493,777
494,495,495,493,626
494,496,496,493,454
492,494,495,494,313
492,494,496,492,237
492,492,497,494,219
492,492,495,492,247
493,491,495,493,312
492,493,494,492,423
491,494,495,492,554
490,493,493,491,701
492,494,494,491,809
493,494,495,492,801
493,493,495,493,723
494,495,496,493,549
494,494,496,494,395
492,494,495,494,265
491,494,495,493,222
493,494,495,493,230
496,494,494,493,269
495,494,496,492,356
494,493,494,493,486
493,494,495,492,615
490,493,494,490,761
490,493,494,491,814
492,495,494,493,784
493,495,496,492,649
493,495,496,492,478
492,494,496,493,333
490,494,495,493,239
491,493,495,492,217
491,494,495,493,240
491,495,493,492,299
491,495,494,492,410
492,493,493,492,539
491,492,495,492,681
492,491,495,492,801
493,494,495,492,803
494,492,495,492,738
493,495,496,494,568
494,497,497,494,410
493,495,496,494,272
492,496,497,494,224
492,495,495,492,225
491,495,495,493,258
493,494,495,492,342
492,494,495,492,466
493,495,494,492,597
493,494,495,491,746
493,494,494,493,816
492,495,495,492,791
492,494,495,492,671
493,493,496,494,492
493,495,497,494,349
493,494,494,493,248
493,496,495,493,217
492,496,496,493,237
492,495,495,493,290
493,494,494,492,394
493,492,494,491,521
491,493,493,492,660
492,493,494,491,792
494,494,495,493,806
493,493,495,492,751
493,496,497,493,591
491,496,496,493,428
490,495,496,494,291
490,495,495,493,227
491,494,495,492,223
492,494,496,493,253
495,493,495,493,330
493,495,494,493,451
492,493,495,492,583
492,494,494,492,729
494,494,495,491,814
493,495,495,491,793
493,495,496,493,692
494,495,497,493,515
493,495,496,492,367
492,494,496,494,252
492,494,495,492,217
492,494,495,494,233
492,494,494,493,279
493,493,496,493,377
492,493,495,492,505
492,494,495,492,640
491,494,494,490,783
492,494,494,492,811
494,494,496,492,769
494,495,497,494,614
493,496,497,494,445
494,495,496,492,304
493,494,495,493,234
493,493,495,492,222
492,494,495,493,248
492,494,495,492,319
493,494,494,492,435
493,495,495,492,564
493,495,495,492,712
492,494,494,493,811
494,495,494,492,798
494,494,496,493,712
494,494,496,493,535
494,496,497,494,385
492,494,495,494,261
493,493,495,493,221
493,494,495,492,230
493,494,496,493,273
493,493,495,491,365
493,494,496,491,493
492,494,494,491,623
493,494,494,491,770
494,494,495,492,812
494,494,495,492,779
494,494,496,492,636
495,494,496,494,468
493,495,495,493,324
493,495,495,493,237
493,495,496,493,219
492,493,495,492,244
492,493,495,493,307
493,493,494,493,418
492,492,494,492,550
492,493,495,492,693
494,495,495,492,806
493,495,495,492,801
493,496,495,492,730
492,495,495,493,556
493,495,496,493,402
493,496,496,493,268
494,496,495,493,223
494,494,494,493,228
494,494,495,493,263
494,493,494,493,349
493,495,494,491,476
493,495,494,492,607
492,493,495,491,754
493,495,495,492,814
493,494,495,493,786
494,495,496,492,658
493,495,497,493,483
492,495,496,493,338
493,494,495,494,243
494,492,495,493,218
494,493,495,493,240
494,495,495,492,296
492,493,495,493,404
493,494,494,491,533
490,495,494,491,672
490,495,495,491,796
493,494,496,492,803
495,494,495,491,741
495,495,495,493,577
495,495,496,494,418
495,494,496,495,281
492,495,496,493,226
492,493,494,492,224
493,495,495,492,256
493,493,494,493,337
494,494,494,493,459
494,493,495,492,589
495,494,494,491,739
493,493,493,493,814
493,495,496,492,791
494,495,496,492,678
493,495,496,494,501
494,496,496,493,356
494,496,496,493,249
494,494,495,493,217
494,493,494,492,236
492,493,495,492,285
491,493,495,493,385
491,493,494,491,514
492,493,494,492,650
494,495,494,491,787
494,495,494,493,806
494,493,494,493,758
495,495,496,493,601
495,495,496,493,436
494,495,496,494,297
494,494,495,493,230
494,494,496,493,223
494,493,494,492,250
493,494,495,492,324
492,494,495,492,445
490,494,494,491,575
491,494,495,491,721
492,494,494,491,811
494,494,495,493,794
496,495,495,492,700
498,497,497,494,524
499,496,496,493,373
496,495,496,494,256
494,495,495,493,218
492,493,495,493,232
492,494,495,492,276
491,493,495,492,372
492,492,494,492,500
493,494,494,490,631
492,494,494,491,777
494,494,495,492,811
497,495,496,492,774
496,495,496,493,624
496,496,497,493,453
494,495,495,494,312
493,496,495,493,236
493,495,495,493,220
492,494,495,493,246
492,494,494,493,314
493,493,496,492,428
494,494,495,493,557
494,494,494,492,703
494,493,494,491,808
495,495,494,493,799
493,495,494,494,720
495,496,496,494,545
496,495,496,494,393
495,496,496,495,264
493,493,496,492,222
493,494,495,493,229
492,493,495,493,269
493,494,494,493,358
493,494,494,492,483
494,494,494,492,616
492,495,494,492,762
494,494,494,491,813
494,494,495,492,783
494,495,495,493,646
495,495,496,493,473
493,495,496,494,329
493,494,495,493,240
493,494,495,493,218
493,494,494,493,242
494,494,494,492,302
493,494,494,492,409
494,494,494,492,543
493,495,495,492,683
494,495,495,491,803
495,494,496,492,802
496,495,496,493,736
496,495,495,493,565
493,494,496,493,408
494,493,495,492,271
493,494,495,493,223
493,495,495,493,226
493,495,496,493,260
492,495,494,492,343
492,495,494,493,469
494,495,494,492,599
494,494,493,492,747
494,494,495,492,814
496,495,495,492,788
497,494,496,492,668
497,496,496,493,492
494,497,495,494,348
493,497,496,494,246
493,497,496,492,217
494,494,494,493,236
494,494,494,492,291
493,495,494,491,397
492,494,493,491,525
493,494,494,492,660
493,493,495,491,791
494,495,494,492,805
494,495,495,493,748
496,495,496,493,588
495,496,496,493,427
494,496,496,494,289
494,495,495,494,228
496,495,494,494,223
495,496,493,493,254
494,495,494,492,331
493,493,493,491,452
493,493,495,492,583
494,494,494,491,731
494,495,495,491,813
494,495,495,492,793
494,495,495,493,688
495,495,495,493,511
495,496,494,493,362
493,493,496,493,253
494,496,495,493,216
494,495,495,492,234
493,494,495,493,281
494,493,494,492,380
493,492,493,492,509
494,492,492,492,643
495,492,493,491,784
494,494,492,492,810
493,493,492,492,766
496,498,494,492,611
496,499,495,493,444
495,496,497,494,305
496,494,496,494,233
496,489,495,493,221
494,487,493,493,249
493,484,493,492,320
491,484,491,492,437
493,485,491,491,567
494,491,492,492,714
493,496,493,491,810
493,500,494,491,797
494,500,495,492,708
494,505,498,493,532
494,507,499,494,382
494,505,498,494,260
494,497,497,493,219
492,488,495,493,231
493,485,495,492,274
492,486,495,492,366
495,484,492,492,494
495,487,491,491,624
494,492,490,490,771
494,494,491,491,813
494,499,495,492,778
495,504,498,495,634
497,501,500,495,464
497,499,498,495,322
497,497,495,494,239
494,497,493,492,219
493,497,495,491,245
493,499,496,492,310
494,499,496,492,421
494,499,496,492,552
492,498,496,491,695
494,496,494,492,807
494,499,496,492,801
494,499,495,493,728
495,499,497,494,554
497,497,497,494,399
494,498,495,494,268
494,497,496,493,222
494,496,495,493,228
493,496,495,493,265
494,495,494,493,351
494,495,494,492,478
494,493,495,492,609
493,495,494,492,757
493,494,494,491,813
494,495,494,493,785
494,495,495,492,656
494,496,496,493,478
493,496,496,493,336
492,497,495,492,241
494,497,496,492,219
497,495,496,493,241
498,496,495,493,297
496,496,495,492,401
495,494,494,492,531
494,495,494,490,674
492,495,494,491,798
494,495,496,492,804
493,496,495,493,742
493,497,496,493,573
495,496,496,493,413
494,494,496,492,277
493,495,494,493,227
494,496,495,493,226
493,495,494,492,257
492,496,495,492,339
493,494,495,492,461
493,494,495,493,590
494,492,496,491,740
493,494,495,491,814
494,495,494,491,791
495,496,496,492,678
495,497,496,493,504
496,497,497,494,358
497,495,496,494,249
495,491,495,493,218
494,492,495,492,235
492,493,495,493,288
492,494,494,492,392
494,496,494,491,519
495,500,495,492,654
495,497,496,491,787
495,496,496,491,806
495,497,495,492,756
494,498,497,492,599
495,497,497,493,437
493,497,497,494,296
493,496,496,493,229
494,496,497,493,221
494,495,495,494,251
494,495,495,492,325
493,495,495,491,444
494,495,495,491,576
494,495,494,491,723
495,496,495,491,810
494,495,494,492,794
494,497,495,492,698
494,496,495,492,517
494,495,496,492,370
495,496,498,495,254
494,498,497,494,217
493,496,495,492,232
493,496,495,491,278
494,495,496,492,370
494,495,495,491,499
495,495,495,491,632
494,494,495,491,778
495,493,496,492,811
495,495,494,492,773
494,496,495,492,621
495,497,496,494,451
495,495,495,492,311
495,496,496,492,237
493,495,496,493,222
493,495,496,493,249
494,496,496,492,316
493,495,495,491,429
494,493,495,493,559
493,494,495,491,703
494,495,495,491,807
497,498,496,491,798
497,496,496,493,717
496,496,496,494,542
495,495,496,493,392
494,493,497,493,263
493,495,494,492,221
494,494,494,493,230
494,495,495,492,271
495,497,495,492,359
494,497,494,492,485
494,495,495,491,615
495,496,494,491,765
495,495,496,492,812
497,498,496,491,781
495,498,496,493,644
496,497,497,494,470
496,498,496,494,328
495,496,496,494,241
494,495,496,494,219
493,496,496,492,243
493,497,495,493,303
493,494,495,492,411
494,493,495,491,543
494,494,495,491,687
494,494,495,491,804
495,497,495,492,802
496,497,496,494,734
495,497,496,493,563
495,496,497,493,407
494,495,497,494,272
494,496,497,492,224
494,495,495,493,228
493,496,495,493,261
494,496,496,493,345
494,494,495,492,471
494,493,494,492,602
494,493,495,491,750
495,499,496,492,812
494,499,495,493,788
495,499,496,493,665
497,498,497,494,489
496,496,497,493,344
496,496,496,493,247
495,496,495,493,219
493,495,496,492,241
495,496,496,491,294
493,494,494,491,397
493,493,494,491,525
494,493,495,491,665
494,494,494,490,791
495,493,494,491,805
495,492,495,493,747
495,495,497,493,584
495,496,496,492,423
495,495,496,493,287
494,494,496,493,227
494,496,496,492,225
494,497,496,493,256
495,497,495,492,335
496,497,495,491,454
496,497,495,492,584
495,497,495,490,734
495,496,495,492,813
494,496,496,492,792
495,497,495,493,687
496,496,495,494,510
496,497,497,494,361
495,498,496,493,253
494,497,497,494,218
494,497,496,494,235
494,496,496,492,283
494,494,494,492,381
494,495,495,492,509
494,495,495,491,644
495,494,495,492,785
495,495,495,491,807
495,495,496,493,765
496,496,496,493,608
496,497,496,493,441
496,497,496,493,301
495,496,496,494,233
495,496,496,493,223
493,496,495,491,250
494,495,494,492,321
494,494,495,492,436
494,495,494,491,567
494,495,494,492,715
494,494,494,491,809
495,498,496,492,796
496,498,496,493,705
497,499,496,494,529
495,497,496,493,378
494,497,496,493,260
494,495,496,494,220
493,495,497,493,232
494,494,495,494,274
497,495,495,492,369
496,495,495,492,495
496,493,495,491,624
493,492,494,491,772
494,494,494,492,811
494,497,495,493,777
496,499,496,494,631
496,498,496,493,460
494,498,496,494,320
494,496,497,492,238
494,497,495,494,220
493,496,496,492,245
494,496,494,493,311
494,496,494,492,421
494,497,495,492,550
495,497,495,492,697
495,496,495,491,806
495,496,495,491,799
495,495,496,493,725
496,495,496,493,550
496,496,496,493,398
496,494,496,493,266
495,495,495,492,222
493,495,495,492,229
494,496,496,494,266
493,497,494,493,353
494,495,494,492,478
495,492,493,492,609
493,494,494,490,758
495,495,494,491,812
495,495,495,492,785
496,496,497,493,654
496,497,495,494,478
496,497,497,496,334
496,498,496,494,242
494,497,496,493,219
494,497,495,493,240
494,494,495,494,299
494,495,494,493,404
495,493,494,492,534
496,492,494,492,677
496,494,495,492,799
497,496,497,493,804
496,497,496,493,741
498,498,497,493,571
495,498,497,493,413
495,497,498,495,278
495,496,496,492,225
495,498,495,493,226
494,498,496,493,259
493,496,496,492,339
492,496,495,492,465
494,496,495,491,594
493,496,495,491,742
495,496,495,492,813
494,497,496,492,789
496,498,495,492,672
497,498,497,494,499
496,498,496,494,355
495,498,496,493,248
494,497,496,493,218
494,494,496,493,238
494,495,495,492,288
495,495,495,493,392
493,496,495,492,517
494,495,494,492,654
495,495,495,491,786
495,497,495,492,805
496,496,494,493,752
496,497,495,494,593
497,497,496,493,431
497,497,496,493,293
495,496,495,494,230
495,497,495,492,223
494,496,496,492,252
494,496,495,492,328
495,496,496,492,445
494,493,492,493,575
495,493,492,492,727
495,494,494,491,813
496,493,494,492,794
496,493,495,492,696
496,492,495,493,516
495,492,497,494,369
495,495,498,494,255
494,497,494,493,218
494,494,496,493,234
494,497,496,493,280
494,497,495,492,375
494,500,494,492,504
495,498,495,492,635
496,498,496,492,779
495,498,496,492,809
496,497,496,493,770
496,499,495,494,618
496,498,496,494,451
496,498,496,493,311
496,497,496,494,234
495,497,496,493,221
495,497,496,494,248
495,498,495,492,317
493,497,496,492,433
493,497,494,492,562
494,496,494,492,706
496,497,493,492,808
496,497,495,492,796
496,496,495,492,715
497,497,497,494,537
495,498,496,494,388
495,498,495,494,262
495,495,496,492,221
494,495,496,493,232
495,496,495,493,272
494,495,495,493,361
494,496,494,492,487
495,496,495,491,616
494,497,496,491,767
495,496,495,492,812
497,496,495,492,779
496,498,496,493,640
497,497,496,493,467
496,498,496,495,323
495,496,495,493,241
495,496,494,494,221
495,495,495,492,245
494,493,494,492,307
494,495,495,493,414
494,496,495,492,544
495,496,495,492,689
493,495,495,492,805
495,496,494,492,802
495,497,494,493,732
496,498,497,494,561
497,497,496,494,405
496,496,496,494,272
496,498,496,493,225
496,497,496,493,229
496,495,496,493,263
496,496,496,492,349
496,496,494,492,475
496,495,495,492,605
494,493,494,491,751
494,495,494,493,812
495,497,495,493,786
496,496,495,493,663
496,497,497,494,489
495,497,497,494,344
496,496,496,494,245
495,495,495,492,217
493,495,495,493,240
494,497,495,493,294
495,496,493,492,400
494,495,494,492,528
495,495,495,492,665
495,496,495,491,791
496,496,495,492,804
496,495,494,493,744
496,497,496,493,580
495,497,496,493,421
495,497,495,493,285
495,497,495,493,228
495,496,495,493,224
495,496,494,493,256
494,496,494,492,336
494,496,494,492,456
494,496,493,492,586
495,495,493,491,735
493,496,494,492,813
495,494,496,493,791
496,495,496,493,682
496,497,495,493,507
497,498,497,494,360
495,499,496,493,252
495,499,496,493,218
496,498,495,493,237
496,497,495,493,285
494,494,494,492,384
493,494,493,492,512
495,494,494,493,646
494,495,494,490,784
495,496,494,491,807
496,497,495,493,762
496,499,497,495,605
495,498,496,493,440
496,497,496,493,301
494,496,495,493,232
494,496,494,494,222
495,496,494,493,252
494,496,495,492,323
495,497,495,492,440
495,498,494,491,571
494,496,494,491,718
496,496,495,492,810
496,496,496,493,794
495,498,495,493,704
496,497,496,494,526
496,496,496,495,377
496,497,494,494,259
495,496,496,493,221
495,496,495,493,232
495,496,495,494,276
495,496,495,493,370
494,496,494,492,498
494,495,494,492,628
495,496,496,492,773
496,497,494,492,809
495,495,495,493,775
497,497,495,493,626
497,499,496,494,458
496,498,496,494,317
497,498,495,493,237
494,497,495,494,221
494,497,495,494,247
494,497,495,492,312
495,495,494,492,426
494,496,494,492,555
496,497,495,494,698
497,497,495,492,807
496,497,495,493,799
495,496,494,492,722
494,495,495,493,549
494,496,496,494,398
495,496,496,493,266
495,497,495,493,223
494,497,495,493,229
494,498,495,492,267
494,494,495,492,354
493,494,494,493,481
494,494,493,492,612
493,498,494,491,759
495,499,495,492,812
495,498,495,493,783
496,498,496,493,650
497,498,496,494,478
497,497,496,494,334
496,498,495,493,243
495,496,494,494,220
494,497,494,492,241
496,496,495,493,301
495,496,495,493,406
495,497,495,492,537
494,496,493,493,680
495,496,493,492,799
496,497,495,493,802
496,498,495,492,738
496,497,495,494,568
497,498,495,494,410
496,498,496,495,275
497,496,495,493,227
497,497,495,493,228
498,498,495,493,260
496,494,494,492,342
494,496,494,492,465
493,496,493,492,596
494,498,494,491,745
495,499,495,491,814
496,498,496,493,789
495,498,495,493,672
496,499,495,494,497
495,497,496,494,353
495,496,496,493,249
495,496,495,493,218
495,496,495,492,239
496,496,495,492,289
495,496,495,493,396
496,497,494,491,523
493,497,493,491,655
494,496,495,491,787
495,496,496,492,805
496,497,495,491,751
496,499,496,493,590
496,498,496,494,430
496,498,496,493,292
495,497,496,493,230
495,496,495,492,223
494,496,493,493,253
494,497,494,493,330
494,496,495,492,446
495,496,494,493,577
495,494,494,491,727
495,495,494,492,813
496,496,494,492,794
496,497,495,492,694
497,497,497,493,514
497,497,495,494,365
496,497,497,495,255
495,497,494,493,220
493,495,494,493,234
494,498,495,493,280
495,497,494,493,377
495,496,495,493,504
496,496,495,492,637
495,495,493,491,783
494,496,495,492,808
494,496,495,493,769
496,497,494,494,616
497,498,497,494,449
496,498,496,494,309
495,498,495,493,235
496,495,495,493,222
495,496,496,493,249
496,496,495,493,317
495,496,494,493,436
494,496,494,491,564
494,496,493,490,709
496,496,493,492,806
497,496,495,492,796
498,494,495,493,711
499,495,496,494,537
498,495,496,495,385
496,496,495,495,263
495,499,494,493,221
494,499,494,492,232
493,498,495,493,272
493,496,495,492,363
494,498,495,491,490
494,495,495,492,620
494,495,493,492,768
494,497,494,492,811
496,498,494,493,780
497,499,496,493,637
497,498,496,493,464
495,498,496,494,324
496,498,496,493,241
495,496,495,493,221
494,496,495,494,245
493,494,493,493,308
495,496,495,492,416
495,495,495,494,547
496,495,494,492,691
495,495,496,492,805
496,497,494,492,800
496,498,494,492,729
495,498,497,495,558
497,498,496,494,402
496,496,495,492,270
495,495,494,493,224
495,495,494,493,228
495,497,495,493,264
493,495,495,493,349
494,495,494,493,475
495,495,494,491,604
495,494,495,490,753
495,496,495,492,812
498,497,495,492,784
497,498,495,494,661
496,499,496,494,484
495,498,496,495,340
494,497,496,494,244
494,497,495,492,219
494,494,495,493,242
495,496,493,493,296
494,496,494,493,400
495,495,494,493,530
495,495,494,491,670
494,496,493,490,793
495,497,494,492,802
496,498,496,492,744
497,499,496,493,577
496,496,495,494,418
496,496,497,495,282
496,496,496,494,228
495,495,495,492,225
493,498,496,493,257
496,497,494,492,337
494,497,495,492,458
495,496,496,492,588
495,494,493,492,736
496,498,495,492,813
497,497,495,493,791
496,497,496,494,680
498,498,496,494,503
496,498,496,494,359
497,498,495,493,251
496,497,495,493,220
495,497,495,493,238
495,496,495,493,286
494,495,495,493,386
496,495,495,493,514
494,495,494,492,648
496,497,494,492,785
496,496,494,492,807
496,496,495,491,757
497,497,496,494,602
496,496,496,493,438
493,496,497,492,298
495,495,495,493,233
495,496,494,493,223
495,498,495,492,252
496,496,496,493,325
495,496,494,492,441
495,496,495,491,571
495,496,495,493,720
494,496,494,492,811
495,497,495,493,794
496,496,494,493,701
497,499,496,493,523
497,498,496,494,373
495,497,496,495,258
495,495,495,494,220
494,494,495,492,232
495,495,495,493,277
494,494,494,491,369
494,495,494,492,497
493,494,492,490,629
495,498,494,491,775
496,499,495,491,811
497,499,494,492,774
495,499,496,493,625
496,498,497,494,451
497,496,496,495,311
495,497,495,493,237
493,497,498,492,223
493,494,494,492,249
494,496,494,492,314
495,495,495,493,420
496,494,496,492,550
495,496,495,492,703
495,496,494,491,809
496,496,496,492,798
497,496,495,492,721
496,498,496,494,542
496,497,496,494,387
496,497,495,496,269
496,496,495,494,225
496,497,494,492,233
494,496,496,492,272
495,495,494,492,358
494,494,494,492,480
495,496,493,492,611
495,496,493,492,762
496,495,495,493,816
496,497,494,493,783
496,498,495,493,648
496,499,495,493,476
497,499,496,494,335
496,498,496,494,243
495,497,496,493,220
495,496,495,492,245
495,497,494,493,302
494,494,495,493,414
495,495,495,492,545
495,495,494,492,680
495,495,494,493,801
497,493,494,492,801
496,495,495,493,735
496,497,496,494,568
498,498,497,494,411
498,499,496,495,272
497,499,495,493,225
497,496,495,492,227
496,497,495,493,259
494,496,495,492,343
495,494,496,493,462
494,494,494,492,594
494,495,495,490,747
495,496,494,491,813
496,497,496,492,788
497,497,495,494,668
497,499,496,493,486
495,497,496,493,343
495,496,496,492,249
494,495,495,492,221
495,496,496,493,242
494,495,496,493,293
496,495,494,493,390
495,494,493,493,517
495,496,493,491,662
494,496,493,493,792
496,498,495,491,807
495,497,496,492,752
496,499,497,494,588
497,498,497,493,425
496,497,496,494,290
495,496,495,494,232
495,496,496,492,227
495,495,495,493,257
495,494,495,492,354
494,495,494,493,492
494,495,495,491,620
494,494,495,492,731
495,496,496,492,799
496,496,494,493,781
496,497,496,492,692
497,498,497,493,544
496,497,496,494,399
497,498,497,493,268
495,499,495,492,198
494,496,495,493,218
495,496,495,492,272
495,495,494,492,398
495,495,494,491,536
495,496,494,492,664
496,496,496,492,759
496,496,496,492,788
496,496,496,494,750
496,497,496,493,624
496,498,497,494,474
496,496,495,493,334
497,496,496,493,221
495,496,496,493,199
496,496,495,494,231
494,496,495,493,320
494,493,494,492,460
495,494,495,492,590
494,494,495,492,709
494,496,494,493,785
496,497,495,493,774
496,497,495,493,701
497,497,495,492,555
496,497,496,494,410
495,497,495,494,279
496,496,495,493,195
494,496,495,492,209
496,497,495,494,259
495,496,495,491,380
495,495,494,492,519
496,496,494,492,647
495,496,495,492,745
495,496,494,492,790
496,496,495,492,758
497,496,496,493,639
497,496,496,495,490
496,497,496,493,351
496,497,496,494,233
496,496,496,493,196
495,495,496,493,225
494,495,495,492,304
495,493,494,493,442
495,493,494,492,575
495,494,495,492,695
497,495,495,493,779
495,498,495,493,779
498,496,495,492,716
497,497,495,493,575
496,497,495,493,429
493,499,495,493,292
495,496,495,494,198
494,494,494,493,207
494,494,495,491,247
493,495,494,493,361
495,494,494,492,501
495,495,494,492,631
495,495,494,491,735
494,497,494,492,791
497,498,495,492,765
495,498,495,493,658
496,497,495,493,508
496,496,497,493,368
496,496,496,495,244
495,496,495,493,195
495,495,495,494,220
496,495,494,493,288
494,495,494,492,425
494,495,494,491,559
495,494,493,492,683
495,495,494,493,771
496,496,495,493,780
496,496,495,493,729
496,497,495,493,593
497,499,494,494,444
494,497,495,495,307
495,497,495,492,205
495,496,494,493,204
494,495,494,492,239
494,495,494,493,345
494,495,494,492,485
493,495,494,491,615
495,494,495,492,725
496,496,494,493,788
497,499,493,493,769
497,495,494,492,676
495,496,496,495,525
496,496,496,495,384
496,496,495,495,259
496,496,495,493,194
494,495,495,493,217
495,495,495,493,277
495,494,494,492,407
495,495,493,492,542
495,495,494,491,669
495,494,494,491,760
495,495,494,493,785
496,497,495,492,740
495,497,497,494,611
495,497,496,493,462
497,496,495,494,325
495,496,495,494,216
496,496,495,494,202
496,496,494,492,233
494,494,494,493,329
496,493,493,493,469
494,494,495,493,599
495,493,494,492,715
494,496,493,492,789
495,497,495,493,774
495,497,494,493,692
496,497,496,494,545
497,497,495,492,400
497,498,496,495,269
496,496,496,495,194
496,494,495,494,213
495,494,495,492,265
495,495,494,492,390
495,494,494,492,528
494,495,494,492,656
495,494,494,492,751
496,496,494,492,788
496,495,495,492,754
496,496,495,493,631
497,497,495,494,481
496,496,495,494,341
495,496,495,493,226
496,495,495,493,199
495,494,495,493,228
493,494,495,492,314
494,494,495,492,453
494,494,493,490,584
494,494,494,491,701
496,497,493,493,784
496,496,496,492,776
497,496,494,493,708
496,497,495,493,562
495,496,496,493,418
495,494,495,495,283
496,496,494,494,198
495,495,494,493,209
494,495,493,493,256
495,494,495,492,372
494,493,495,492,511
495,493,495,492,638
495,493,494,491,736
496,494,495,493,789
496,494,495,493,762
496,497,495,494,648
496,500,496,494,498
495,498,496,494,357
495,496,496,494,236
495,495,494,493,198
494,496,495,493,225
494,496,494,492,299
494,495,494,492,434
495,495,493,491,566
494,495,495,491,688
495,495,496,491,778
496,495,494,492,780
496,497,495,493,721
496,497,496,493,582
496,495,496,494,435
496,496,496,494,297
495,495,496,494,200
495,494,495,494,207
495,494,496,494,243
494,494,494,492,354
494,495,495,493,494
495,494,494,493,623
495,495,494,493,728
495,495,495,492,790
496,495,496,492,767
496,495,496,493,666
497,496,495,494,516
496,497,495,494,375
495,495,496,494,249
496,496,494,494,196
495,494,494,492,221
494,495,496,493,285
494,495,494,492,417
495,494,494,492,551
496,495,493,493,675
496,494,495,493,765
496,495,495,492,781
497,494,497,494,733
496,497,495,493,598
496,496,495,494,452
496,496,497,495,314
497,496,495,493,209
496,497,495,493,204
496,496,496,493,237
494,496,494,493,337
494,495,494,492,478
494,493,494,493,606
495,494,494,492,717
495,495,494,491,788
495,495,493,491,771
496,495,495,493,681
496,496,497,494,534
495,496,496,493,392
495,495,496,494,263
495,497,494,494,196
493,495,494,493,217
495,496,495,492,271
494,496,495,492,398
495,493,494,492,534
494,494,494,491,660
495,495,494,492,756
495,495,495,492,785
497,496,495,492,747
497,496,496,494,619
496,496,496,493,470
496,494,496,493,329
496,494,495,493,219
495,493,495,493,202
493,494,495,494,233
494,494,494,492,320
495,496,494,492,459
494,496,495,493,591
495,496,494,492,708
496,495,496,492,786
496,494,496,492,774
496,497,495,492,699
495,496,495,493,553
496,498,495,493,408
497,495,495,494,275
496,496,494,494,198
495,496,496,493,213
495,495,494,492,262
494,495,494,492,382
494,494,494,492,519
495,493,495,492,645
495,493,494,493,744
495,493,494,493,788
496,494,494,491,756
496,496,495,493,638
496,496,496,493,486
496,498,496,494,346
497,498,496,495,231
497,497,495,493,200
495,497,494,493,228
495,495,495,493,307
495,496,494,492,445
495,494,495,492,575
495,495,494,492,694
496,495,494,492,781
495,495,494,493,779
496,497,495,492,714
497,496,496,493,571
496,496,496,494,427
496,496,496,494,290
496,496,496,493,199
494,494,495,494,209
495,496,494,493,251
495,496,495,492,365
494,494,494,491,503
494,495,494,492,631
495,495,494,491,731
495,495,494,492,790
496,496,495,492,764
496,497,496,493,654
497,497,496,495,506
496,496,496,494,364
496,496,496,494,240
495,495,494,492,198
494,495,495,494,224
495,495,494,492,292
495,495,493,492,427
495,493,493,492,560
494,496,494,491,681
494,494,493,491,773
494,494,494,493,780
497,496,494,493,726
496,496,495,493,589
497,496,495,493,442
496,496,494,494,304
496,496,495,493,205
494,495,495,492,206
494,494,494,493,241
495,493,493,493,348
494,494,493,493,488
495,493,493,492,616
495,494,494,492,724
496,493,493,492,791
496,494,494,493,769
496,495,495,493,673
497,498,496,494,525
496,500,495,493,382
494,499,496,495,256
495,497,496,493,197
495,495,495,492,219
494,493,495,492,280
494,494,493,492,410
494,495,493,492,543
495,495,494,492,668
496,495,494,492,761
496,495,496,493,783
497,496,496,492,739
496,495,496,494,608
495,496,495,493,459
495,496,496,494,322
496,496,496,494,213
495,495,494,494,203
494,495,495,492,236
493,494,494,492,332
494,493,494,492,469
495,494,496,492,598
495,496,494,491,712
496,495,494,492,788
498,495,495,493,772
496,493,495,492,690
496,494,495,493,543
495,494,495,493,399
495,496,494,493,268
495,498,495,494,197
494,497,495,493,215
494,499,496,492,267
493,496,495,492,391
494,496,494,491,528
495,495,494,491,653
494,496,493,493,753
495,496,494,492,786
496,495,494,493,752
496,496,496,493,628
496,495,495,493,478
497,496,495,492,337
495,497,495,494,224
495,497,495,494,201
495,497,495,492,231
495,495,495,492,316
494,493,492,492,454
495,493,493,492,584
495,494,492,491,702
496,495,492,491,783
495,495,494,492,775
497,496,495,493,705
496,497,496,493,561
496,495,496,494,415
495,496,495,494,282
496,496,494,494,200
494,495,494,492,212
495,495,494,492,258
495,494,493,492,375
495,494,494,492,512
495,494,493,492,640
495,494,494,491,736
494,496,494,492,787
496,497,495,493,760
496,496,494,493,644
496,498,496,493,494
496,496,496,493,353
496,496,496,493,235
495,495,494,493,199
494,495,495,492,227
494,495,494,492,301
493,494,493,492,436
494,495,494,491,568
495,494,494,491,689
496,494,494,491,777
495,495,495,492,777
495,495,494,492,718
496,495,496,493,579
496,496,496,493,433
495,495,496,494,295
495,495,495,494,201
496,494,493,493,208
494,494,495,492,245
496,494,493,493,355
495,494,494,492,495
496,493,494,490,622
495,495,493,491,728
494,496,494,491,790
495,498,496,491,765
496,498,495,493,663
496,498,496,494,513
496,496,496,494,371
494,494,495,493,244
494,495,494,492,197
495,496,495,494,221
495,495,494,492,287
494,494,494,493,419
495,492,495,492,551
495,495,493,491,676
494,495,491,493,766
496,495,494,494,780
496,497,495,492,731
495,496,495,493,596
496,495,495,493,449
497,496,496,494,312
495,494,495,493,209
494,496,495,492,205
496,495,495,494,237
494,496,494,492,340
494,495,494,492,480
495,494,493,491,609
495,494,493,492,717
495,495,494,492,789
495,496,496,492,771
496,495,494,493,681
496,495,495,494,531
497,494,496,494,389
496,495,496,493,261
496,495,494,494,196
495,495,495,493,217
495,495,494,492,274
494,493,494,493,402
495,495,494,493,535
494,493,493,493,663
494,493,493,491,757
495,495,494,492,784
496,496,495,491,745
494,498,494,493,616
494,499,496,493,468
495,496,496,493,327
497,496,496,494,218
495,495,494,493,201
495,494,494,493,233
494,494,494,492,324
495,494,493,492,463
494,493,494,491,593
495,493,493,492,707
495,495,495,491,786
497,496,494,493,774
496,496,494,492,696
496,496,495,493,550
496,496,495,493,406
495,496,494,493,273
495,497,496,494,199
494,494,495,493,214
495,496,494,493,264
494,495,493,492,385
495,494,493,492,522
495,495,494,491,649
495,494,494,493,746
496,494,495,492,787
497,495,494,492,756
497,496,496,494,634
496,497,495,494,483
495,496,495,494,344
495,497,495,494,229
496,495,494,493,200
496,494,495,493,228
495,494,494,492,309
495,494,494,492,447
494,494,494,491,577
493,494,494,492,696
494,496,494,492,781
495,494,494,492,776
495,495,495,492,712
497,496,496,493,568
495,496,495,492,423
495,494,495,493,289
494,496,495,494,200
494,495,495,494,210
495,495,495,492,253
494,495,494,492,365
493,493,494,492,505
494,494,494,491,632
495,494,493,493,733
495,495,495,492,790
495,496,495,492,763
495,495,495,493,653
496,495,495,494,504
496,496,495,494,362
495,495,494,494,241
495,495,494,493,198
496,494,494,493,224
495,494,495,492,294
495,494,494,491,429
496,494,494,491,561
494,494,493,492,683
496,495,495,492,773
496,494,495,492,777
494,494,495,493,724
495,497,494,492,586
496,495,496,493,440
495,495,497,493,300
495,496,496,493,203
494,494,495,493,207
495,495,495,493,242
495,494,495,493,349
495,494,494,492,489
496,495,493,492,617
495,494,493,491,725
493,494,494,491,790
494,496,494,493,768
494,496,496,493,671
496,495,495,494,521
496,496,497,493,380
497,494,495,493,252
495,494,496,495,199
494,494,495,492,220
494,496,496,494,278
495,493,493,493,411
494,495,494,492,544
494,493,494,492,669
494,495,494,491,762
496,493,493,493,782
495,496,495,493,737
496,495,496,492,605
496,495,496,494,457
496,495,495,496,319
496,496,496,494,213
495,494,494,494,205
495,493,496,493,236
492,496,496,493,314
494,493,496,494,417
495,494,495,492,543
495,494,494,492,719
496,492,494,490,812
498,494,495,497,773
496,495,494,491,687
495,495,495,494,503
496,496,496,495,333
494,496,494,493,258
494,495,496,493,221
493,495,495,492,239
496,494,496,492,283
495,494,494,492,373
495,494,494,493,473
495,493,493,492,640
495,494,493,491,784
495,494,493,492,809
495,494,495,492,770
497,496,496,493,619
496,496,497,494,430
495,494,496,493,301
496,494,496,493,244
494,494,496,493,229
494,495,494,493,256
495,494,494,493,333
495,495,495,493,470
495,497,494,491,528
493,495,495,492,707
495,495,494,492,806
495,493,495,493,795
495,495,495,493,710
496,494,497,491,535
495,494,496,494,397
496,495,496,495,267
494,494,494,493,224
496,493,494,493,229
494,494,494,494,273
493,495,493,493,364
494,494,494,492,501
494,495,494,491,634
495,493,493,491,760
496,495,494,493,805
496,495,495,492,774
496,496,495,492,640
496,496,495,492,478
497,495,496,493,340
496,495,495,494,235
494,495,495,494,216
495,496,496,494,240
493,495,496,493,305
493,493,493,493,420
494,493,493,492,552
493,495,495,492,682
496,494,494,492,797
496,495,494,493,794
496,496,495,492,726
497,495,496,492,576
496,495,496,494,425
496,496,495,495,288
495,496,496,494,214
494,494,494,494,221
493,493,495,492,259
494,494,494,493,369
494,495,494,491,508
495,495,494,491,635
495,493,495,492,733
497,493,495,492,795
496,495,495,493,769
496,495,495,493,655
496,496,495,493,497
495,495,495,493,352
495,494,495,494,231
495,494,495,493,207
494,496,494,492,231
494,494,496,493,287
495,494,494,493,399
494,493,494,491,527
494,494,494,491,660
495,493,494,492,784
497,493,494,492,796
497,493,495,492,738
496,494,495,493,573
496,495,496,494,412
497,496,496,496,277
496,496,495,493,228
496,494,494,492,226
494,494,494,492,256
495,494,494,492,336
494,495,494,492,451
493,495,494,492,582
494,494,493,493,736
494,493,494,493,810
495,495,495,492,789
496,496,495,493,680
496,494,496,493,501
495,494,495,493,358
494,494,495,494,255
494,494,495,492,220
495,494,495,493,239
494,495,495,493,287
494,493,494,492,391
495,494,494,493,520
494,493,493,492,646
494,494,494,491,782
495,494,494,492,804
495,496,494,493,758
496,496,495,493,608
495,496,496,493,451
496,495,496,494,311
496,496,495,494,230
494,494,495,494,219
493,494,495,492,251
494,494,495,493,325
494,494,495,492,452
495,494,495,492,579
495,494,494,491,711
494,494,495,491,803
495,494,495,491,789
496,495,495,492,697
495,495,496,494,530
496,496,495,494,380
495,495,495,495,255
495,495,496,494,216
494,494,494,492,232
494,493,496,493,274
494,494,495,492,369
494,494,494,491,496
496,494,493,491,627
494,493,494,491,773
495,493,495,492,807
496,494,494,493,771
496,495,496,494,623
497,496,496,495,452
496,496,496,494,313
494,495,495,494,239
493,493,496,492,223
493,493,496,494,250
494,494,496,493,315
494,494,495,493,423
494,493,494,493,558
494,492,494,490,699
494,494,494,492,805
495,494,494,493,796
495,496,495,492,727
495,496,495,493,581
496,496,497,494,436
496,498,496,493,300
496,495,497,494,209
495,494,495,493,219
494,493,495,494,262
494,493,494,492,376
494,493,495,492,514
494,493,496,492,641
495,494,494,492,740
494,496,494,491,792
495,495,495,493,765
495,496,495,493,653
495,496,497,493,503
497,495,496,493,364
496,495,496,494,243
495,494,495,493,199
494,493,495,494,226
494,493,495,493,297
494,493,495,493,432
494,493,495,493,567
495,495,495,491,689
495,494,494,491,774
495,494,496,493,780
495,495,496,493,724
496,495,496,493,585
496,495,496,493,440
495,495,496,494,302
495,496,496,494,203
494,495,495,493,207
494,494,494,493,244
495,493,494,492,352
495,493,494,492,492
494,494,495,492,621
494,493,495,493,727
494,494,494,491,789
495,495,494,493,768
497,496,495,493,668
496,496,497,494,520
495,494,497,494,380
496,494,496,494,253
495,494,496,494,197
494,492,495,493,221
495,494,494,492,282
495,493,494,492,416
494,493,494,492,549
495,493,494,491,674
495,493,495,493,762
496,493,495,493,782
497,495,495,492,735
495,495,496,494,603
496,496,495,493,455
495,495,496,494,316
495,495,496,493,213
494,494,496,492,203
494,494,495,492,235
494,494,496,493,337
494,492,494,492,476
494,494,494,492,605
494,494,495,492,717
494,493,495,492,786
495,495,495,493,771
496,495,495,493,684
496,495,496,494,537
495,496,496,494,394
495,495,496,495,266
494,494,495,494,195
494,494,496,493,215
493,493,495,492,269
494,494,494,492,396
494,494,493,492,532
493,494,494,493,660
494,492,494,491,755
495,493,495,492,785
495,494,494,493,749
495,495,494,492,622
495,495,496,494,474
497,495,496,493,335
495,495,496,494,222
495,495,495,493,199
494,494,495,493,231
494,493,495,492,319
494,493,494,492,458
494,492,495,492,589
494,494,495,491,706
494,496,494,491,783
495,494,495,492,775
495,494,496,492,702
496,496,495,493,555
495,495,497,493,412
495,496,496,494,276
495,495,495,493,197
495,493,494,493,212
494,492,495,493,257
494,493,494,493,377
495,494,494,492,518
494,494,494,491,645
495,493,494,492,743
495,494,494,492,787
495,494,495,492,758
495,495,496,493,640
496,495,496,495,492
495,495,497,493,350
495,495,496,493,233
494,494,496,492,197
494,493,495,493,226
494,494,495,494,304
494,493,495,492,441
495,492,494,493,572
495,493,494,491,693
495,494,495,492,779
494,495,495,492,778
495,495,495,493,716
496,495,495,493,575
495,494,496,493,430
496,495,496,493,294
495,495,496,493,199
496,493,496,492,207
494,493,494,492,248
494,493,494,491,360
494,492,494,492,500
494,493,495,491,628
494,494,493,493,731
495,495,495,492,787
495,493,496,493,765
495,496,495,493,659
496,495,495,494,509
494,496,496,493,368
496,494,496,493,246
495,495,496,492,196
495,495,495,493,221
495,494,494,493,288
495,493,494,493,423
495,493,494,493,557
494,493,494,491,681
495,493,494,493,770
495,494,495,492,781
496,493,495,492,723
498,496,497,494,560
495,495,496,493,377
496,494,497,493,268
493,494,496,492,220
494,496,495,493,216
493,493,496,491,252
494,491,496,493,332
493,493,495,494,433
492,492,492,492,568
494,490,496,490,736
493,495,492,491,810
496,495,494,493,788
497,492,493,492,679
496,497,494,494,492
497,495,494,493,327
496,492,495,492,258
493,496,497,495,224
496,496,494,493,243
492,495,493,491,290
492,493,494,490,387
494,492,495,490,484
494,493,494,491,654
492,491,496,493,790
494,494,493,490,810
493,492,496,491,761
496,495,497,496,605
496,494,495,493,456
496,495,495,493,321
495,496,497,492,230
493,493,495,491,218
495,494,497,494,248
494,491,497,493,323
495,494,494,491,427
496,493,493,491,565
493,492,495,491,720
495,492,495,493,813
493,494,493,492,794
496,494,496,492,705
496,497,494,493,526
496,494,495,494,385
495,495,494,495,257
496,492,496,492,216
496,494,496,492,229
494,493,496,494,273
494,492,494,491,366
494,494,494,492,490
495,493,494,492,630
494,495,493,491,778
494,495,495,491,811
494,493,493,491,774
495,495,497,492,626
495,494,496,493,464
496,495,495,495,321
496,495,497,492,234
495,493,494,492,220
495,494,495,492,246
493,493,495,492,318
494,494,495,493,449
494,493,494,493,577
494,494,494,491,694
495,494,493,492,800
496,494,494,491,792
495,494,496,493,721
495,494,496,493,576
495,495,496,494,429
495,496,497,494,285
496,493,496,494,206
494,494,495,493,216
494,494,495,491,256
494,494,494,493,359
495,494,495,492,490
494,493,493,491,614
493,495,495,493,749
494,495,496,491,801
495,494,495,492,773
495,496,495,493,640
496,496,496,493,463
495,494,496,493,320
496,494,495,492,238
495,494,496,494,215
495,492,494,493,239
495,494,494,492,300
494,494,495,492,400
494,493,495,493,527
494,493,495,491,684
494,493,494,491,804
496,493,494,493,803
495,495,494,493,739
496,494,495,495,567
496,494,496,494,403
495,495,496,494,276
494,493,494,493,227
494,493,495,494,229
493,493,495,493,263
493,494,494,493,345
495,493,495,492,468
494,495,493,492,601
494,493,494,492,749
494,493,494,492,815
495,494,494,491,789
495,494,496,493,672
495,494,495,493,510
496,495,496,494,365
496,493,495,494,241
494,495,494,492,213
494,492,495,493,237
494,493,494,493,291
494,492,495,493,411
494,493,495,492,542
494,493,495,492,665
494,493,494,490,784
494,493,494,494,799
495,494,494,493,747
496,496,496,493,596
496,495,496,493,438
495,494,496,493,296
495,493,496,493,220
493,492,495,493,216
494,493,494,492,246
494,492,495,493,327
493,493,494,492,453
495,493,495,493,580
493,493,495,492,725
494,494,496,491,808
494,493,494,491,790
495,493,497,492,687
495,497,494,492,504
495,495,497,493,356
493,495,496,495,255
493,495,494,493,217
494,494,494,493,233
494,494,493,493,280
495,494,493,491,376
494,494,494,491,495
495,493,494,493,641
495,495,495,492,786
495,495,495,491,810
496,493,494,491,769
493,496,495,494,615
496,496,495,494,431
494,494,495,493,296
495,494,496,494,239
494,496,497,495,225
492,492,496,492,252
492,493,494,493,322
494,492,493,492,427
495,494,493,491,557
494,494,495,492,718
495,493,493,491,815
494,492,495,492,801
495,494,496,492,716
496,495,496,493,532
495,495,496,492,383
495,495,497,493,263
493,494,495,493,224
495,492,495,493,235
494,493,494,493,276
493,494,495,493,368
493,494,494,493,499
493,493,494,491,630
494,493,493,491,773
493,492,494,491,814
493,494,496,492,780
495,494,496,493,637
495,495,496,493,471
494,494,495,493,325
493,494,494,495,236
493,494,494,494,218
493,494,495,493,244
493,494,495,493,307
494,493,494,493,419
493,493,495,492,548
495,492,495,493,694
494,494,493,491,806
494,494,494,493,802
495,494,495,493,728
494,495,495,494,552
494,495,496,494,395
494,494,497,493,271
494,493,495,493,224
493,494,495,493,229
494,494,494,493,265
492,492,494,492,351
494,493,494,492,468
494,493,495,492,599
494,494,495,493,758
494,493,494,492,815
495,495,495,490,787
494,495,496,493,659
495,495,496,494,476
494,495,496,493,334
493,493,496,493,247
494,493,495,493,220
493,494,494,492,242
493,493,495,492,299
492,493,494,492,401
493,492,494,492,533
493,493,494,492,675
493,495,493,492,801
494,495,494,491,808
493,495,495,493,746
495,495,496,493,581
494,494,496,493,423
494,494,495,492,284
493,494,494,493,225
494,494,495,493,224
492,495,494,493,256
492,495,496,492,339
493,493,494,491,468
494,493,494,491,598
493,493,494,492,740
494,495,495,491,812
495,493,496,492,789
494,493,496,492,678
494,494,495,493,505
494,494,494,494,357
496,493,494,493,248
494,495,496,492,216
493,494,494,493,235
493,493,495,492,286
493,493,494,493,385
493,492,494,492,514
493,493,494,492,652
492,493,494,492,785
493,494,494,491,807
493,495,494,492,757
494,497,495,494,597
494,497,496,494,429
494,495,497,495,291
493,494,495,493,232
493,494,495,494,224
493,494,495,494,251
493,493,494,493,327
493,494,494,492,440
493,494,494,491,570
494,494,494,491,725
494,495,494,492,814
494,494,495,492,796
493,496,495,494,700
495,495,495,494,522
494,495,495,494,374
495,496,495,495,257
495,494,494,493,218
495,494,495,494,233
495,495,494,493,278
493,494,495,493,375
492,494,495,492,503
493,493,494,494,636
493,494,494,491,779
492,494,495,492,811
493,494,496,492,774
493,496,495,494,624
493,496,496,494,459
493,496,496,493,316
495,495,495,494,235
492,494,495,493,220
492,493,496,493,247
493,493,495,492,313
492,494,494,492,430
492,495,494,493,559
492,494,495,492,705
493,494,495,491,807
494,496,494,492,797
494,494,496,492,719
493,494,496,493,540
494,495,496,493,390
494,495,495,492,263
493,495,494,493,223
493,494,494,493,229
492,494,495,492,269
493,493,495,492,358
493,494,494,492,483
492,493,495,492,615
493,494,494,491,764
493,494,495,492,813
493,496,494,491,782
495,495,495,492,644
495,496,497,494,470
494,495,496,492,329
493,496,495,493,242
493,494,495,493,218
493,493,496,493,243
492,494,495,492,304
492,494,495,492,414
492,495,495,492,544
494,494,494,491,684
492,495,495,493,803
494,495,493,490,800
494,497,495,493,735
495,497,497,493,566
496,496,496,493,410
496,497,496,494,272
494,496,495,492,224
493,494,494,493,226
494,495,495,493,260
492,494,495,493,345
492,493,495,492,470
492,494,495,491,601
493,494,494,491,748
494,494,494,492,813
495,498,495,493,787
494,497,496,493,666
494,498,497,493,492
493,495,496,493,347
493,494,495,494,247
494,494,495,494,217
492,494,496,493,239
492,495,495,493,292
492,495,494,492,394
492,495,494,492,524
493,495,494,493,666
493,495,495,491,791
494,495,496,495,805
494,495,495,492,747
494,498,496,493,584
493,496,496,493,423
494,495,495,494,286
494,495,496,494,229
495,494,496,493,225
494,493,495,493,255
493,492,495,493,334
494,494,494,493,454
493,494,494,492,585
493,495,493,491,733
493,495,494,492,813
494,496,494,492,792
493,495,495,492,688
494,497,496,493,511
495,495,495,494,364
494,495,495,493,254
494,495,494,493,218
493,495,495,493,236
493,494,495,492,283
494,494,495,492,383
493,494,494,492,511
492,494,494,491,643
493,494,495,491,783
494,495,495,492,806
493,496,494,492,763
494,497,496,493,608
495,496,496,494,444
494,496,496,494,304
494,497,496,494,233
494,495,495,492,223
494,494,495,493,250
494,495,495,493,322
494,495,495,492,437
493,495,494,492,567
493,494,494,492,714
493,496,494,491,809
494,496,495,492,797
495,495,496,493,708
497,496,496,493,528
493,497,496,493,380
494,495,497,494,260
495,495,496,494,222
496,495,495,493,233
494,496,494,493,276
494,496,495,493,367
492,495,494,492,493
494,494,493,492,626
493,494,494,492,774
494,496,495,491,811
493,498,493,492,778
493,495,496,492,631
493,495,496,493,461
493,494,496,494,320
494,495,496,493,239
493,495,495,493,221
494,496,495,492,247
493,496,495,492,311
492,496,495,492,424
493,496,493,492,555
494,494,494,491,697
493,496,494,492,805
495,497,495,492,799
494,497,495,493,726
496,497,495,494,553
495,496,497,494,400
495,496,495,493,266
493,494,495,493,224
494,496,494,492,230
494,496,495,492,267
494,496,494,492,355
493,495,495,492,480
495,495,493,492,610
494,495,493,493,756
494,496,494,492,812
494,497,494,493,782
494,496,496,493,652
494,497,496,493,479
494,498,495,494,338
495,498,494,493,244
493,495,494,493,220
493,494,494,492,243
493,495,494,491,300
494,495,495,493,407
493,494,494,493,535
493,494,495,492,677
493,494,494,492,799
494,496,494,491,802
495,497,496,492,739
495,497,496,493,574
495,498,496,493,415
494,497,496,493,279
492,497,495,493,226
494,495,495,493,227
494,496,495,492,258
493,494,496,492,342
494,495,494,491,465
493,496,494,492,593
495,496,494,491,743
495,495,493,492,813
494,498,494,492,789
496,498,495,493,674
497,497,496,493,499
496,498,496,493,354
495,497,494,493,248
493,497,493,492,218
492,497,494,493,238
493,495,496,494,289
493,496,495,492,389
494,496,494,492,518
493,496,493,491,656
493,496,493,490,785
495,496,494,492,806
495,496,494,492,754
495,498,496,493,594
496,497,496,493,428
495,496,497,494,291
496,498,496,494,231
495,496,495,494,225
495,496,494,493,254
494,495,494,492,330
493,495,494,493,447
493,495,494,492,577
494,496,495,491,725
494,496,494,492,811
495,496,495,491,793
495,497,496,493,694
496,498,496,494,520
495,498,497,493,371
493,497,497,493,255
493,496,495,493,219
494,496,495,493,234
493,496,494,492,280
494,495,494,492,379
493,494,493,492,507
494,496,494,492,635
494,495,494,492,779
494,496,494,492,807
493,498,495,493,769
495,497,495,493,617
496,498,496,494,453
496,497,496,494,312
495,497,494,493,234
494,496,495,493,220
495,495,494,493,247
494,496,494,492,316
494,497,494,493,432
494,496,495,492,561
495,496,493,491,707
493,496,494,491,808
495,496,495,492,794
495,496,495,493,713
496,498,496,493,536
496,499,497,493,384
495,499,495,493,261
495,497,495,493,222
494,496,496,492,231
495,496,494,492,272
494,496,494,492,361
493,496,494,492,488
494,495,495,492,619
493,496,494,491,766
494,497,494,491,809
496,496,494,493,779
496,498,496,494,639
496,498,497,494,466
495,496,496,494,325
495,496,495,493,240
494,495,494,492,219
494,495,494,493,244
496,497,493,493,306
495,497,495,493,417
495,497,494,492,547
495,497,493,492,688
494,497,494,491,803
494,498,496,493,799
496,498,495,493,732
495,496,495,493,560
496,497,495,495,406
495,498,495,494,271
493,494,494,491,223
494,497,495,492,229
493,497,495,494,263
493,496,494,492,347
493,496,493,492,471
494,496,494,492,601
495,496,493,491,752
495,497,495,491,814
495,497,496,492,785
497,497,495,493,661
496,497,495,495,482
496,497,495,493,339
494,498,494,495,246
495,498,495,493,219
494,496,494,492,241
494,498,494,492,296
494,497,493,492,398
494,496,493,492,527
495,495,493,493,669
493,495,493,492,793
496,498,494,493,804
496,497,495,493,745
496,499,496,494,582
496,499,496,494,421
496,497,495,494,284
496,498,496,495,227
495,497,495,493,224
494,498,494,494,257
493,497,495,493,337
493,497,494,492,462
494,498,494,492,592
494,497,493,490,735
495,496,493,493,812
495,499,494,492,788
496,497,496,493,682
497,499,497,494,508
495,497,496,495,361
495,498,496,493,250
494,496,495,492,217
494,495,494,493,236
494,496,495,493,283
494,495,494,493,385
494,497,493,491,513
494,498,495,492,645
494,496,493,491,784
494,496,495,492,806
495,499,494,493,758
496,498,496,494,600
496,498,496,494,435
495,497,496,493,298
494,497,494,492,232
495,497,495,493,224
493,496,494,493,251
495,496,493,493,324
494,497,495,493,440
494,497,494,492,569
494,497,493,492,718
494,496,494,492,810
495,498,495,493,794
496,499,495,493,701
496,500,495,494,524
495,500,496,494,375
495,498,496,493,258
494,498,496,493,219
494,496,494,492,233
494,496,494,493,276
494,497,495,493,371
494,497,493,493,498
495,496,495,492,630
493,497,494,491,776
495,496,494,493,809
496,498,495,492,771
496,496,495,493,625
496,498,495,494,457
495,497,495,494,315
494,497,494,494,235
494,498,493,493,219
495,498,495,494,246
494,497,495,493,313
494,496,494,493,427
494,496,495,492,556
495,496,495,492,701
496,497,494,493,806
496,497,495,493,796
494,498,495,493,721
496,498,496,493,544
495,497,496,494,392
494,498,495,493,264
493,496,494,493,221
494,497,493,493,229
494,497,494,493,268
494,497,494,494,356
494,496,494,493,483
494,496,493,492,612
494,496,493,492,759
494,497,494,492,812
495,499,496,492,782
496,496,494,493,648
496,497,495,494,473
496,497,495,494,331
495,498,494,493,241
495,498,495,494,218
494,497,494,493,243
494,497,496,494,301
493,498,494,492,411
494,496,494,491,540
495,496,493,492,680
494,496,493,492,800
494,498,494,493,802
495,498,494,493,735
496,499,495,493,568
497,499,495,493,412
496,499,495,493,274
495,498,495,494,224
495,497,495,493,226
495,498,494,493,260
494,497,494,492,343
493,497,494,492,469
494,496,494,491,598
495,496,494,491,746
495,496,493,493,812
496,498,494,492,788
497,499,494,493,670
496,499,496,494,493
496,498,496,493,348
496,498,496,493,245
494,498,494,493,217
494,497,494,493,239
493,498,494,492,291
495,496,494,492,394
493,496,494,492,521
493,496,495,492,661
494,496,494,492,788
495,496,495,492,805
494,497,496,492,750
496,498,495,493,589
495,499,496,494,425
495,498,495,494,289
495,497,495,493,229
495,496,494,492,225
495,494,493,493,253
493,496,493,493,331
493,496,495,493,448
494,495,495,491,581
493,498,495,493,729
496,498,492,491,811
494,497,493,490,792
494,497,496,494,691
495,496,494,494,504
496,500,497,495,356
496,500,495,492,256
496,498,496,495,220
495,497,494,492,237
495,498,492,492,284
495,495,491,493,377
494,495,495,493,492
494,497,494,493,643
494,494,495,491,786
494,494,494,492,811
496,496,496,492,769
494,497,496,494,614
496,500,497,494,429
494,499,495,493,295
495,496,494,494,237
494,496,494,495,226
496,498,493,493,252
494,496,496,492,323
495,494,495,491,426
493,497,492,494,557
496,497,494,492,717
496,497,492,491,813
497,498,496,492,800
494,500,496,493,714
495,502,497,495,528
495,500,495,492,377
494,496,494,492,263
495,495,497,493,224
494,497,493,492,234
496,494,495,494,275
493,495,495,495,364
493,497,494,493,485
495,494,495,493,620
494,496,492,493,772
493,493,492,492,811
494,497,494,492,778
497,497,497,495,634
495,501,496,492,454
495,498,496,493,311
495,496,497,492,243
494,500,496,490,222
494,496,494,492,248
495,496,496,491,310
495,498,492,494,411
495,495,495,491,540
493,496,493,493,699
495,496,492,492,809
495,496,493,495,801
494,499,495,493,732
495,497,497,492,552
496,499,497,493,388
496,500,497,494,275
494,497,494,496,227
494,496,495,491,232
495,498,495,494,269
495,497,494,493,355
493,498,494,492,467
494,496,493,490,600
495,498,492,490,759
496,496,497,492,816
495,500,496,490,788
497,499,495,492,659
495,500,495,495,475
497,498,497,495,334
494,496,495,495,247
496,496,496,490,223
492,496,494,491,244
493,496,493,493,299
493,499,493,494,399
494,498,493,490,524
495,496,495,490,676
493,495,496,490,800
496,496,493,490,807
494,499,495,494,744
496,500,497,492,578
497,500,497,491,408
495,500,497,494,279
495,499,494,496,231
493,495,494,494,228
492,494,496,492,259
495,494,494,492,341
493,496,494,491,450
496,496,493,490,582
494,496,492,493,745
496,496,493,494,815
497,496,496,493,790
493,499,495,496,681
496,499,498,494,493
495,496,497,495,346
494,496,493,491,255
494,496,495,495,223
497,500,493,491,240
494,498,495,491,290
494,496,495,491,387
495,498,494,491,507
493,498,495,492,655
494,495,493,493,789
495,495,496,494,809
494,499,494,491,757
496,496,494,492,598
495,500,495,493,426
494,497,497,495,289
496,496,495,494,238
494,498,496,493,226
494,498,494,495,255
494,496,495,491,331
494,495,494,493,436
493,496,492,490,568
495,496,494,490,724
496,499,496,490,815
496,496,496,490,794
493,497,494,492,698
494,499,497,492,515
495,499,496,495,365
494,498,494,492,261
494,496,496,495,224
492,496,493,494,239
495,497,495,493,282
495,496,492,494,372
493,495,495,491,490
492,497,494,492,635
493,495,492,493,779
494,497,494,493,811
496,498,493,493,773
497,500,496,495,622
494,497,496,494,445
496,499,494,494,304
493,500,493,494,240
495,500,494,492,226
495,497,494,493,253
494,496,494,491,319
494,497,493,492,421
493,494,493,490,549
493,495,495,491,707
495,494,495,491,808
496,495,492,490,799
494,496,494,493,720
497,496,497,495,541
496,498,496,495,383
496,497,497,494,268
495,497,495,495,228
495,496,496,494,237
493,495,493,494,275
494,496,495,494,360
495,499,494,493,478
494,497,494,492,612
493,497,493,492,766
495,496,493,492,814
496,499,494,493,781
497,499,495,493,645
497,498,495,493,464
496,498,496,494,325
495,496,495,494,247
495,496,495,493,224
493,497,494,493,249
494,497,493,494,308
495,496,495,492,413
496,497,494,493,545
496,496,494,492,685
495,496,494,491,802
494,496,494,491,802
493,498,495,493,735
494,498,496,495,568
494,500,495,493,416
495,498,495,493,278
495,496,494,495,226
495,498,494,493,228
495,496,493,493,264
495,496,494,492,347
494,496,495,492,469
494,496,494,492,599
494,495,494,492,746
495,496,494,492,813
496,499,493,494,784
495,498,494,494,664
495,499,496,494,484
495,496,496,494,341
496,497,495,495,248
493,494,494,491,223
492,494,497,494,243
493,496,493,494,295
495,494,492,492,393
493,498,493,493,515
494,498,494,490,666
495,498,492,491,794
495,499,493,494,805
495,496,496,493,747
496,498,494,494,584
495,500,494,495,411
495,499,495,494,285
494,498,493,494,232
496,497,494,493,231
496,496,493,492,259
495,498,493,494,337
495,495,495,492,447
493,496,493,491,581
493,494,493,493,735
493,495,493,492,814
494,496,495,493,794
494,499,497,495,690
497,497,496,494,507
495,497,495,495,361
494,496,497,495,258
496,496,494,491,225
493,498,494,494,239
495,494,493,492,287
493,497,493,492,382
494,497,494,493,507
493,495,492,490,644
493,495,494,491,784
493,498,495,491,807
495,495,493,491,764
494,498,494,493,608
496,498,497,493,437
494,499,497,495,300
496,496,494,494,237
494,495,495,495,227
493,496,496,493,254
494,496,492,491,324
495,496,496,492,429
494,495,495,492,558
495,495,494,493,718
493,497,492,490,813
497,498,496,494,799
497,498,495,495,708
496,500,494,496,527
496,496,495,494,370
494,494,494,493,267
496,496,495,492,228
496,495,496,492,239
493,496,494,492,281
495,496,492,494,369
493,497,492,493,487
493,498,492,493,627
492,496,492,490,776
493,496,493,492,814
494,495,492,492,778
495,499,495,493,632
496,499,495,494,456
496,499,496,494,315
495,498,495,493,243
494,498,494,492,226
494,496,494,492,251
493,497,493,492,312
495,496,495,492,421
495,495,494,492,551
495,495,494,492,697
495,495,492,492,808
494,498,494,493,800
495,498,495,492,725
496,498,495,493,549
497,496,495,495,396
495,498,496,495,270
497,496,496,495,226
494,495,493,492,232
493,497,494,492,271
494,497,493,492,356
493,495,494,493,473
493,496,493,492,604
494,497,492,493,758
496,494,494,494,813
496,498,495,494,785
495,496,493,495,653
494,497,495,493,471
496,497,495,494,329
496,498,495,495,248
494,494,493,491,225
495,493,496,491,246
495,495,493,492,302
494,495,493,491,401
494,496,494,491,526
494,497,494,491,681
494,496,493,492,800
495,497,496,492,803
497,499,493,493,742
498,498,494,494,574
497,498,495,494,407
496,497,495,492,279
494,495,495,493,229
492,495,495,492,231
493,494,494,493,263
493,495,494,492,343
494,496,493,492,461
493,496,493,491,593
494,494,494,491,743
494,494,495,492,815
494,497,494,492,789
495,497,494,494,675
496,498,495,495,502
496,498,494,494,356
496,497,496,493,250
494,494,494,495,221
495,497,493,494,241
493,497,494,493,290
494,496,493,492,395
494,496,493,492,522
494,497,492,491,653
494,495,493,492,785
495,497,493,494,803
496,497,495,493,752
496,499,495,495,593
496,498,494,494,428
494,497,496,494,293
494,497,495,495,231
495,495,492,492,226
494,495,493,494,255
493,496,495,493,331
494,496,493,492,442
493,495,494,493,571
493,495,492,492,727
495,496,493,492,812
494,496,495,492,792
496,496,494,494,695
495,498,495,493,510
495,497,495,494,363
494,497,494,493,260
494,496,493,493,222
494,496,493,494,238
493,496,494,493,283
494,496,494,492,375
493,495,494,492,500
493,494,494,491,636
494,495,494,491,781
494,496,494,492,810
495,495,493,491,770
495,496,495,494,619
495,496,494,493,454
495,496,496,494,314
496,495,495,494,237
494,497,494,494,223
494,496,495,493,252
495,496,495,492,318
493,495,493,492,439
494,494,493,492,568
494,496,493,491,705
494,496,492,492,805
494,496,495,492,795
496,496,494,492,713
496,497,496,494,543
496,497,495,494,393
496,496,496,493,260
494,497,495,493,221
494,496,493,493,232
493,496,493,493,271
494,496,493,492,362
493,494,493,492,489
494,494,494,491,617
494,494,494,492,764
494,495,493,492,810
496,495,494,492,777
495,499,495,493,638
496,497,495,494,463
495,497,496,493,321
494,495,494,494,242
495,495,494,494,222
495,496,496,494,246
494,494,494,493,307
494,494,494,492,413
494,495,495,491,542
493,493,493,491,688
494,495,493,492,804
496,496,495,493,801
496,499,495,494,731
496,498,495,494,571
496,495,495,494,417
494,496,495,494,279
494,494,496,494,223
493,495,495,494,226
493,494,494,493,262
493,494,494,492,347
493,495,494,492,471
493,495,494,491,600
493,495,494,492,750
494,496,494,493,811
495,495,493,493,785
494,497,495,494,660
495,497,495,494,478
495,496,494,494,338
494,496,495,495,247
493,496,495,494,221
494,494,494,493,244
493,495,495,493,297
494,495,494,493,395
495,494,493,493,523
493,493,492,492,670
494,495,492,492,795
494,497,493,493,805
494,498,494,493,746
495,498,495,494,580
496,498,495,494,419
495,496,495,494,283
494,496,495,494,229
494,496,495,493,228
493,495,495,493,259
493,495,493,493,338
493,493,493,492,462
492,495,493,492,591
494,495,493,492,735
494,496,494,493,811
494,494,494,493,789
495,496,495,492,680
495,497,495,494,514
495,497,495,494,367
495,497,495,494,250
494,496,494,494,217
494,495,494,493,236
493,494,494,493,285
494,493,493,492,391
493,494,493,492,519
494,494,493,492,644
493,494,493,491,781
494,495,495,491,803
496,496,494,493,758
496,495,496,493,602
497,497,495,493,439
496,495,495,494,301
495,495,495,493,232
494,495,495,493,222
494,495,494,493,251
494,496,495,493,325
494,494,493,492,438
494,493,493,491,566
493,494,492,491,716
492,495,493,491,808
491,495,494,492,792
494,495,495,494,702
496,496,496,495,522
495,495,495,493,375
494,496,495,495,259
495,494,495,494,221
492,495,494,493,235
493,496,494,492,279
494,495,494,491,370
493,495,494,492,497
492,496,494,492,628
493,495,492,490,774
493,496,493,492,809
494,496,495,495,773
495,496,495,494,626
495,495,496,495,459
494,496,496,494,318
494,495,495,493,237
494,495,495,493,223
493,494,495,494,249
493,495,494,492,314
494,495,494,492,430
493,494,493,492,557
493,496,494,493,698
494,495,494,492,805
495,495,494,493,796
494,494,494,493,722
495,495,495,494,549
496,497,497,494,397
494,497,497,495,266
493,497,495,494,224
493,494,496,492,231
493,494,495,493,270
494,496,494,492,358
493,494,493,491,483
493,495,493,491,612
493,493,493,492,757
493,493,493,493,811
493,494,495,492,779
494,495,493,493,648
495,497,494,494,471
494,497,496,493,332
494,496,497,494,244
494,494,495,494,221
493,495,494,493,244
492,493,495,494,304
493,494,494,493,408
494,494,493,493,536
493,494,495,493,680
493,495,495,492,799
494,495,494,493,801
493,495,495,493,735
494,495,495,494,566
493,496,494,494,410
494,495,495,494,276
495,493,494,493,227
493,494,495,493,229
494,495,495,493,263
493,493,494,492,345
493,494,493,492,467
494,494,493,492,598
493,492,493,492,745
494,494,493,491,813
494,495,493,492,785
495,496,494,492,670
495,496,495,493,496
494,496,495,494,352
494,496,496,492,248
493,494,496,493,218
493,494,495,493,240
492,495,494,493,292
493,495,495,493,396
494,494,494,494,525
494,494,494,492,658
493,494,493,492,786
493,496,493,492,802
494,496,494,492,747
495,497,496,494,589
494,497,496,494,429
494,497,495,495,290
494,496,494,495,230
492,495,496,493,226
492,495,495,493,255
493,493,494,493,333
493,492,494,492,452
494,493,493,492,581
492,493,495,491,727
492,494,494,491,810
495,496,494,494,788
494,495,494,494,689
494,495,495,493,510
494,494,494,493,363
494,495,496,495,256
493,494,495,493,221
493,495,496,493,238
494,496,495,493,284
493,495,494,493,380
494,495,494,492,507
494,493,493,492,637
494,493,494,492,781
494,494,494,492,807
493,494,493,491,764
494,495,495,493,612
495,496,495,494,446
495,495,495,494,308
493,496,494,494,236
495,495,494,494,223
495,493,494,492,252
494,493,494,493,321
494,493,494,493,436
492,495,493,493,563
492,495,494,491,709
492,494,494,491,807
493,496,495,493,795
493,495,495,493,708
494,495,495,493,535
494,496,495,494,385
493,495,496,494,262
493,494,495,494,222
493,492,494,494,234
494,494,495,493,276
493,492,495,492,365
492,493,494,493,492
492,494,494,492,622
493,495,493,491,767
494,494,493,492,808
494,495,495,491,775
494,495,494,492,634
495,496,495,494,464
493,495,496,493,322
494,496,494,494,240
493,494,495,492,223
493,494,495,493,249
494,495,493,492,310
492,492,493,493,418
494,494,494,492,549
494,493,495,491,690
494,495,492,492,803
493,495,493,491,798
493,495,494,494,726
495,494,495,494,550
495,494,496,495,396
494,495,496,494,273
494,494,494,494,229
492,493,495,493,234
492,494,494,493,270
494,493,494,493,353
494,494,494,491,469
493,492,493,491,599
492,490,493,491,755
493,492,493,492,812
494,494,494,493,785
494,496,495,492,657
495,496,496,493,477
495,495,495,493,338
493,495,496,491,249
492,494,495,492,222
493,494,494,493,246
493,494,493,492,301
492,494,494,492,406
494,493,493,492,534
493,492,493,491,673
493,492,493,493,795
493,494,496,492,802
495,495,494,492,741
494,495,496,493,580
495,494,495,494,424
494,494,495,495,287
495,496,496,494,226
494,493,494,493,226
493,492,494,494,258
494,495,495,494,339
492,492,494,493,460
493,493,494,491,589
493,492,493,491,739
493,492,492,491,812
492,493,493,493,787
491,495,494,492,676
493,493,497,495,494
495,494,494,494,349
495,495,493,492,253
493,493,496,492,222
492,495,493,492,242
493,495,494,492,288
493,494,495,492,386
493,493,495,491,503
493,492,492,493,654
494,495,494,491,787
493,495,494,493,805
494,495,493,491,756
495,494,497,492,597
493,494,495,494,422
492,495,494,495,290
494,495,494,495,236
492,493,497,495,229
495,495,495,492,256
493,495,492,492,331
490,493,493,492,438
491,493,494,491,570
493,493,493,491,722
493,491,494,492,811
494,494,494,494,793
493,493,494,492,698
494,496,496,494,521
493,496,496,492,374
493,494,497,494,260
492,493,494,494,224
493,493,494,492,238
492,495,495,493,282
492,495,495,493,375
493,492,494,491,502
492,492,493,492,633
493,494,493,492,777
493,494,494,493,809
492,495,496,493,770
494,494,494,494,620
494,495,496,494,450
494,493,496,494,312
493,495,494,493,238
493,492,494,494,224
492,493,494,492,251
493,494,493,493,318
492,495,494,493,423
493,494,494,491,552
492,493,494,493,705
493,494,494,493,808
494,493,496,491,798
494,495,495,492,720
494,495,497,492,538
494,495,495,493,383
494,493,495,492,269
493,494,496,495,227
495,494,495,492,234
492,494,496,493,273
493,493,495,491,361
492,492,495,491,479
492,491,494,491,611
493,492,493,492,762
494,495,495,491,810
492,491,493,493,781
494,492,495,494,644
493,494,495,493,465
493,494,495,494,324
493,493,495,494,244
494,494,494,494,224
495,492,493,494,248
493,493,493,493,307
493,491,493,491,412
492,492,495,491,540
494,493,494,490,685
492,493,493,493,802
492,493,495,494,800
493,493,496,492,735
494,494,495,493,561
494,495,495,493,405
493,493,496,494,274
493,494,494,495,227
492,494,495,493,229
492,492,496,494,264
494,493,493,492,348
493,492,493,492,467
493,493,493,493,596
494,492,494,491,749
494,494,494,491,813
493,494,493,491,787
493,494,495,493,665
495,494,494,495,486
494,493,494,493,343
493,494,496,494,251
494,494,496,492,223
491,491,495,492,244
492,491,494,494,298
494,490,494,492,393
492,491,494,494,519
494,491,494,491,667
493,491,492,492,791
493,491,494,491,806
495,492,494,492,750
495,493,496,492,585
495,493,494,493,418
493,495,496,494,284
493,493,495,495,231
493,495,494,493,228
493,493,495,493,261
492,492,494,491,337
491,493,495,491,449
493,493,493,491,580
492,493,492,490,734
492,493,493,492,813
494,492,495,491,792
494,492,495,493,685
495,493,497,494,505
494,493,494,493,359
494,492,495,492,257
494,493,495,493,223
492,492,495,494,241
492,493,493,493,287
493,492,493,492,382
493,490,493,494,507
493,491,495,492,643
493,490,493,490,784
493,492,494,493,808
493,493,495,493,764
494,494,495,494,607
493,494,496,495,438
492,494,495,493,301
492,493,496,495,237
492,493,494,494,227
492,492,493,493,255
493,492,495,493,325
491,492,493,492,434
492,491,493,492,561
493,492,495,491,716
494,492,494,491,810
495,495,493,493,795
493,493,495,492,705
493,492,494,492,525
494,492,495,493,373
493,493,496,493,263
491,494,493,493,225
492,492,494,493,235
492,491,493,494,280
492,491,494,492,369
493,491,494,492,490
491,491,493,492,624
493,490,495,491,775
494,492,493,492,811
494,495,495,491,776
493,494,494,493,631
493,494,495,493,455
494,494,496,493,314
494,495,495,492,243
492,494,494,493,224
493,493,495,493,251
492,491,493,492,315
493,492,494,491,420
491,492,494,491,550
493,490,492,491,697
492,489,492,491,805
492,490,494,493,798
494,492,495,492,724
494,493,494,494,547
494,494,496,493,394
494,494,495,494,269
494,493,496,492,225
492,492,494,493,233
493,491,496,494,269
494,491,495,494,355
493,493,494,493,477
493,491,494,491,607
492,492,492,491,757
494,493,493,493,813
492,493,493,494,783
492,493,496,493,652
492,494,496,494,474
493,493,495,494,333
493,493,495,494,247
493,491,495,493,223
491,492,494,493,245
493,493,495,492,303
491,492,494,491,403
491,492,494,491,531
492,491,495,494,678
491,493,494,493,800
494,493,496,491,801
494,493,494,492,738
494,494,495,492,570
494,492,497,495,405
493,494,495,493,278
493,491,497,495,229
491,492,494,492,230
491,493,494,495,264
493,492,494,491,344
492,491,493,491,454
493,490,493,492,586
492,492,495,491,745
493,492,492,491,815
494,493,496,491,790
494,493,495,494,674
495,493,497,493,491
494,493,496,493,348
493,494,497,495,252
492,493,494,495,223
491,493,495,492,242
493,491,494,494,292
492,491,496,492,388
491,491,493,491,514
493,492,494,493,657
492,490,495,491,788
494,491,493,492,805
495,491,494,494,754
496,491,494,492,592
494,491,494,493,425
491,491,495,495,289
491,493,495,494,235
493,493,495,494,227
493,491,493,494,257
493,494,494,493,331
491,493,493,492,442
494,492,494,491,572
492,491,492,490,728
493,491,495,493,812
493,491,496,491,793
492,492,494,491,694
494,493,494,493,511
492,492,496,492,362
492,492,494,495,261
492,489,493,494,224
493,490,494,494,237
494,493,494,492,283
491,493,494,494,375
491,491,494,491,495
492,491,493,491,635
490,489,492,493,781
492,492,495,492,808
495,494,495,492,768
493,491,495,493,618
494,494,496,494,439
492,493,495,494,301
493,491,495,494,240
494,491,495,493,226
492,491,495,494,253
493,490,495,494,322
492,490,494,493,427
491,490,493,491,556
491,490,494,491,711
491,491,494,490,810
492,492,494,490,798
494,492,495,492,723
493,492,495,494,576
494,491,495,493,431
494,490,495,494,295
493,492,495,494,208
493,491,495,493,222
492,490,495,493,268
492,490,494,493,384
491,491,493,492,523
492,491,494,492,650
493,492,494,492,746
493,493,494,491,792
492,492,496,492,761
493,493,495,493,647
493,492,496,493,495
493,492,494,494,354
492,491,495,495,236
492,493,494,492,199
492,492,494,493,228
491,492,494,492,304
492,491,494,491,441
492,491,493,492,574
492,490,494,492,693
492,492,493,493,778
493,491,494,492,778
493,490,494,493,717
493,491,495,493,577
493,492,494,494,432
493,492,496,494,297
493,493,496,494,200
493,491,494,493,208
490,492,494,493,246
491,490,494,493,333
492,491,494,493,439
492,490,493,492,580
493,490,493,490,742
492,492,494,492,805
493,492,496,494,777
495,493,494,493,654
493,494,495,494,468
493,493,495,494,311
492,492,494,492,248
492,492,495,493,222
492,491,495,492,243
492,491,494,492,297
492,490,494,492,424
492,491,494,491,559
492,490,494,492,684
493,492,495,492,785
493,491,493,492,794
494,491,495,492,737
492,492,495,493,603
493,493,496,493,418
493,492,496,493,289
493,491,495,494,220
491,492,495,493,221
492,491,494,493,254
492,490,495,493,333
491,489,495,492,453
492,490,494,492,588
493,492,493,490,733
493,493,493,492,809
495,492,495,492,786
494,491,496,492,691
493,492,495,494,531
492,492,495,493,383
492,493,496,495,258
493,493,495,492,209
492,492,495,494,230
492,491,495,492,284
491,490,494,491,413
490,490,495,491,548
491,490,494,491,672
491,490,494,492,763
491,491,495,493,788
491,493,494,493,746
492,493,495,494,615
493,492,496,494,467
494,492,496,494,330
493,493,496,494,221
492,492,494,491,204
491,492,494,493,235
492,491,494,492,329
491,491,494,492,465
491,491,493,491,586
492,491,493,492,696
492,491,493,491,791
494,492,494,492,776
494,492,495,493,687
493,493,495,494,526
494,492,496,494,380
494,493,495,495,246
492,491,495,493,210
491,491,495,493,225
494,490,494,494,269
492,490,494,492,364
491,489,492,492,492
491,491,493,491,621
490,492,493,491,769
492,493,494,491,804
492,491,495,493,769
493,492,496,493,622
493,492,496,494,450
494,492,495,493,311
493,491,495,493,236
493,490,493,494,221
493,491,496,491,247
491,489,495,492,314
491,492,495,492,423
492,491,494,492,555
493,492,494,491,701
492,491,494,491,804
492,492,494,493,795
493,490,495,493,720
494,493,495,493,549
493,493,496,493,399
493,492,496,493,265
492,491,495,494,222
492,490,494,493,231
492,491,495,492,270
491,491,494,492,365
491,490,493,493,496
491,490,494,492,622
492,490,494,491,753
492,491,493,492,804
492,489,496,493,776
493,492,497,494,644
494,491,496,493,485
493,489,494,494,342
493,490,495,493,236
492,490,496,492,216
493,490,495,493,241
492,489,494,492,300
492,490,494,493,411
491,491,494,492,539
492,492,494,491,673
491,490,495,491,795
493,491,496,493,795
494,492,497,493,731
494,492,497,493,562
494,492,496,493,406
493,492,495,494,273
491,490,495,492,225
491,489,495,492,228
491,491,495,494,260
489,491,492,493,343
491,488,495,492,459
491,491,494,490,591
492,491,493,490,744
491,490,495,490,812
493,491,495,492,786
491,491,495,493,668
493,494,497,494,487
493,492,495,494,344
493,493,495,494,251
492,491,495,492,222
492,490,496,493,243
492,491,495,493,294
491,490,494,492,391
492,489,494,492,518
492,490,494,492,662
491,489,495,490,788
493,492,494,492,803
494,491,495,490,747
493,490,496,494,588
494,491,496,493,428
493,492,496,494,293
492,491,495,492,230
493,491,494,493,227
491,490,494,493,257
492,489,494,493,334
492,490,494,492,458
491,490,494,492,587
492,490,493,491,726
492,491,495,492,808
492,492,494,493,790
494,492,496,492,688
493,493,496,494,516
493,492,495,494,369
492,493,496,493,253
492,491,496,493,218
492,491,495,493,237
492,489,494,493,283
492,490,495,492,379
491,489,493,492,505
492,489,493,492,637
492,489,494,491,779
492,489,494,491,805
492,491,494,491,764
493,491,496,494,609
493,490,495,494,439
492,492,496,493,302
492,492,495,493,238
493,492,496,493,225
491,490,494,492,254
492,491,494,492,323
492,488,494,492,430
491,489,494,492,560
492,490,494,491,713
493,490,495,492,810
492,490,495,492,794
494,491,496,493,707
494,491,496,493,529
494,491,496,494,382
493,491,495,494,265
491,490,495,493,224
492,490,494,492,236
492,490,495,492,277
492,489,494,493,367
492,489,494,491,493
492,490,494,492,624
492,488,495,491,769
492,488,494,492,809
492,491,495,491,774
493,490,495,493,634
493,491,495,493,468
493,491,495,494,326
492,490,496,493,239
490,490,496,493,222
491,489,495,493,247
491,489,494,492,310
492,489,493,491,424
491,491,493,492,553
492,491,494,492,691
493,491,493,492,802
493,492,495,491,795
491,494,495,493,724
493,492,495,492,553
493,492,495,493,402
492,491,496,493,269
493,490,495,493,225
492,491,494,493,229
491,489,495,493,267
492,489,494,492,353
492,490,494,492,475
491,489,494,491,605
492,490,493,491,753
492,490,495,492,811
493,491,494,494,782
494,491,495,493,654
494,490,496,494,478
494,491,496,493,339
492,491,496,492,247
491,490,496,492,222
491,489,495,492,244
491,490,495,493,300
491,490,494,492,403
491,489,494,491,532
492,489,494,491,673
490,489,495,492,795
493,490,495,493,801
491,491,495,492,740
493,492,495,493,576
493,491,496,493,418
493,490,495,493,281
491,491,496,492,227
490,491,496,492,228
491,489,495,493,259
491,489,495,491,340
491,489,495,492,463
491,488,495,491,592
492,490,494,491,737
493,490,495,492,811
494,493,494,492,786
493,491,495,493,676
494,491,496,494,501
493,492,495,493,356
493,492,495,493,250
491,490,494,492,219
492,490,494,492,239
492,491,495,492,288
491,491,494,491,390
492,489,494,491,516
491,489,494,492,650
490,490,494,490,783
490,489,495,492,803
492,490,494,491,754
493,492,495,493,596
493,492,495,493,431
492,491,496,494,295
492,491,494,494,233
491,491,494,492,226
490,489,494,493,256
491,490,495,493,329
492,489,494,492,444
492,489,494,491,574
493,489,494,491,721
493,489,495,492,809
493,490,495,492,792
492,491,495,492,694
492,491,496,493,518
493,490,496,493,373
492,490,495,493,258
491,489,495,493,219
491,489,495,492,236
491,490,496,492,280
491,490,496,492,375
491,489,495,491,501
491,488,494,491,631
491,491,494,492,776
492,489,495,493,807
493,490,494,493,768
493,491,495,493,619
493,492,495,494,453
492,491,496,493,313
491,491,495,494,235
492,488,494,493,221
491,489,495,492,249
492,490,495,493,316
490,489,494,492,430
491,489,495,492,558
491,489,494,491,702
492,489,493,491,806
492,490,494,492,795
493,491,495,492,716
493,491,496,494,540
494,491,496,493,388
493,491,496,494,265
490,490,495,493,224
490,489,494,493,233
491,489,495,492,272
491,490,495,493,360
491,490,494,492,487
492,489,495,492,617
492,488,494,491,763
493,490,493,492,809
493,490,494,493,778
492,491,496,492,641
493,491,496,493,469
493,492,497,494,329
492,491,495,492,242
491,489,494,492,221
491,489,495,493,245
492,490,495,491,305
491,490,494,491,416
491,489,494,492,545
491,489,493,491,684
491,489,494,491,800
492,490,495,492,798
492,491,495,491,729
493,491,496,493,561
493,490,496,493,408
492,489,495,493,273
492,489,495,492,224
492,488,495,494,229
492,489,495,493,263
492,489,495,492,347
491,489,494,491,471
492,488,494,492,600
491,490,494,491,747
492,490,495,491,811
494,490,495,492,782
492,490,497,492,662
493,491,496,492,488
492,490,496,493,346
493,490,496,492,248
492,489,494,494,219
492,489,495,492,241
491,488,493,491,294
491,488,494,492,397
491,489,495,492,526
492,488,494,491,664
491,489,494,492,790
492,490,495,492,803
493,490,495,491,746
492,490,495,492,582
493,491,496,493,422
493,491,496,494,285
492,489,496,492,229
492,489,494,493,227
492,489,495,493,256
491,490,495,492,336
492,489,494,491,453
491,489,494,491,584
492,489,493,493,733
492,488,493,492,809
492,489,495,492,790
492,490,494,491,684
493,491,496,494,506
492,492,497,493,361
492,490,462,520,263
498,498,500,494,223
491,488,495,493,240
490,489,496,493,288
490,489,495,491,386
490,488,494,490,512
489,488,495,490,645
489,487,494,489,785
489,489,494,490,807
491,490,496,490,763
491,491,496,492,606
493,492,497,493,442
492,492,497,492,305
492,491,498,493,235
491,491,496,494,222
492,489,496,492,252
491,490,496,492,323
490,489,495,490,440
489,489,494,490,568
490,489,494,489,713
490,488,494,489,806
491,491,495,490,794
491,492,497,492,703
493,492,497,493,528
493,491,497,493,378
492,490,497,494,258
493,491,496,493,220
491,490,497,492,233
491,489,495,492,276
490,490,496,491,368
491,489,495,491,494
489,489,494,490,625
489,489,494,489,772
489,488,494,490,809
490,490,495,493,775
492,491,496,492,629
493,491,497,493,459
493,492,496,494,318
492,491,497,493,237
492,489,495,492,222
492,489,495,492,247
492,489,496,492,311
491,490,495,490,423
490,488,493,490,552
490,490,495,490,697
490,491,494,490,805
491,490,494,490,797
493,491,496,491,724
493,490,496,493,548
493,492,496,492,394
494,491,495,492,266
492,490,496,493,222
493,493,497,491,230
491,491,497,492,268
491,489,495,492,354
491,488,494,490,478
490,489,493,489,609
490,487,493,489,757
491,489,495,490,811
492,490,497,490,782
492,491,496,493,651
494,491,498,493,475
492,490,496,493,333
493,490,496,493,243
492,489,495,493,221
492,490,496,492,243
491,490,495,492,302
492,489,494,491,408
491,490,494,490,536
491,489,494,490,678
490,488,494,490,799
491,489,496,491,802
492,491,496,493,738
493,492,497,493,572
493,491,496,493,415
492,489,496,493,277
492,490,496,494,225
492,490,497,494,226
491,488,495,493,259
492,486,494,491,341
492,487,493,491,465
491,487,493,490,594
491,488,491,489,743
490,488,494,490,813
492,489,494,489,788
493,492,497,491,671
493,494,497,493,496
494,493,497,494,352
494,492,498,492,248
492,491,496,493,217
492,490,496,492,239
492,489,495,492,290
491,488,495,492,390
490,487,494,490,520
490,488,494,491,657
490,487,493,490,786
491,489,494,490,805
492,489,495,490,751
494,491,496,493,592
493,492,495,493,427
493,492,496,492,290
493,491,497,493,231
492,489,495,492,225
492,489,496,492,255
492,489,495,491,329
491,489,495,491,449
490,489,493,490,580
491,488,494,489,727
490,488,493,490,812
492,489,495,491,793
493,489,496,492,693
493,492,497,494,516
493,492,496,494,368
493,490,496,493,255
492,489,496,492,217
491,490,495,493,234
491,490,495,493,279
490,487,495,491,378
491,487,494,490,505
491,487,494,490,636
491,487,493,489,780
491,489,494,490,808
491,491,495,491,767
492,491,495,493,614
493,491,496,494,449
493,490,496,493,309
492,491,495,494,232
492,491,495,494,219
492,490,495,493,246
491,486,494,492,317
491,487,495,491,432
490,489,494,490,560
491,488,494,490,709
490,487,492,489,809
492,489,495,491,796
491,489,496,492,711
491,490,497,492,534
493,490,496,492,384
493,491,496,492,260
493,489,496,493,219
491,489,496,493,230
491,489,495,493,272
490,487,493,491,361
490,487,493,491,489
490,488,493,491,621
490,487,493,489,768
490,488,494,490,811
492,489,496,491,781
492,489,496,492,638
493,491,496,493,467
493,491,497,493,323
493,491,496,494,238
492,490,495,494,219
492,489,495,493,244
491,488,495,493,306
491,488,495,491,419
490,488,492,491,550
490,487,493,490,691
491,487,492,489,804
491,488,494,492,800
492,488,497,492,730
493,489,495,493,558
493,491,496,493,404
493,490,496,493,270
491,489,496,494,222
491,488,495,492,227
491,488,495,492,263
491,489,495,492,349
490,487,494,491,475
490,486,494,490,605
490,487,493,488,754
490,487,494,489,813
492,488,495,491,786
492,488,495,492,660
493,490,497,493,485
493,491,496,494,342
493,489,496,493,243
491,488,496,492,217
491,487,496,493,239
492,488,495,492,295
491,489,495,490,401
491,486,494,490,530
491,488,493,490,671
490,488,494,489,797
490,488,494,490,805
491,488,495,491,745
492,491,495,493,579
493,490,496,494,418
494,490,496,493,279
492,489,496,494,224
492,489,495,495,223
491,487,495,492,255
491,487,495,492,336
491,488,495,491,458
490,487,494,490,591
490,486,493,489,741
490,487,494,490,816
492,488,495,491,792
491,490,496,492,682
494,488,496,494,505
492,489,497,492,356
492,488,497,493,250
492,489,495,493,217
493,490,495,492,235
492,489,495,492,285
491,488,495,491,386
491,488,495,490,514
490,487,494,490,650
490,488,494,489,786
490,487,493,490,808
492,488,495,491,761
493,488,495,492,600
493,490,496,493,435
492,489,496,493,296
493,489,496,492,231
492,487,494,492,221
491,488,495,492,251
490,487,494,492,325
491,488,494,491,442
490,487,495,490,573
490,486,493,490,721
490,486,494,490,813
491,489,496,490,796
493,490,495,493,702
493,490,496,493,524
493,490,496,492,374
492,490,496,493,256
492,488,496,492,218
493,487,495,494,232
491,487,495,491,276
491,486,494,491,371
490,485,493,491,500
490,486,492,490,631
490,486,492,490,779
491,487,493,491,812
492,490,497,489,774
492,491,495,492,624
493,491,496,494,457
492,490,496,493,314
492,488,497,493,234
492,487,495,492,219
491,488,494,493,245
492,488,495,492,313
491,488,493,492,426
490,487,493,490,558
490,486,493,490,705
490,488,493,490,808
491,488,494,490,800
491,489,495,492,720
494,489,496,493,544
493,489,495,494,392
492,489,495,494,263
491,488,496,493,223
489,489,495,492,229
491,488,495,493,267
490,487,494,491,382
489,486,493,491,522
490,487,493,490,649
490,488,492,490,749
489,486,493,490,801
492,487,493,492,772
493,489,495,493,658
493,490,496,492,505
492,490,496,493,363
492,489,496,493,242
492,489,495,494,198
489,487,494,492,225
490,487,494,492,299
490,486,492,490,437
490,487,493,491,571
489,488,493,491,692
490,488,492,490,780
492,488,494,491,784
490,488,494,492,725
494,490,495,492,585
493,490,496,493,440
494,490,496,494,300
492,489,496,494,200
491,487,493,493,203
489,488,495,493,242
490,488,494,491,354
489,486,494,491,494
489,487,492,490,625
490,488,493,490,733
490,487,493,491,793
490,489,494,491,771
490,489,495,492,669
492,490,495,493,519
492,489,495,494,377
492,490,495,493,247
492,490,495,494,193
491,488,496,493,218
492,488,494,492,283
490,488,494,490,416
490,487,493,491,551
488,487,493,490,677
490,488,492,490,768
489,487,493,491,784
490,488,495,491,734
489,489,495,492,602
491,489,496,493,453
492,490,496,494,313
492,490,497,495,208
491,487,494,493,201
492,487,495,499,234
492,489,495,493,335
490,489,495,493,477
489,487,495,492,609
490,485,495,492,719
490,486,494,492,789
492,486,495,494,772
491,489,495,493,683
491,490,495,494,536
491,489,495,495,390
491,489,496,495,262
491,488,496,495,194
492,487,494,493,213
489,487,494,493,268
489,486,494,493,398
488,485,493,493,534
489,485,494,494,661
490,485,494,493,757
489,487,493,493,787
490,487,495,494,747
490,489,495,493,621
491,490,496,493,471
491,489,496,494,331
490,488,497,495,219
490,487,495,493,198
489,487,495,494,228
489,487,494,492,320
487,487,493,492,459
489,486,494,491,589
488,487,492,492,709
489,487,494,491,784
489,489,494,492,776
490,489,496,492,698
490,488,496,493,553
490,488,496,494,409
490,487,495,494,274
489,487,495,494,191
490,487,495,493,208
488,487,494,492,256
488,486,494,492,379
488,486,493,491,517
489,488,494,491,647
490,488,493,491,745
490,488,494,492,789
491,488,494,493,759
491,488,495,493,638
490,489,496,492,487
490,489,496,493,345
490,487,496,494,227
489,487,494,493,192
488,487,494,493,223
489,487,494,492,303
489,486,493,491,442
486,485,494,491,576
487,488,494,491,697
488,488,494,492,782
490,489,494,492,779
490,489,495,493,712
491,489,494,493,571
491,490,495,493,425
490,490,495,494,289
489,489,495,495,196
489,489,493,491,206
489,488,495,492,247
489,488,494,491,361
488,486,494,491,503
487,487,494,491,632
487,489,493,490,734
487,489,494,492,790
488,489,495,490,764
490,491,495,493,656
489,492,495,493,504
489,490,495,493,363
490,491,496,494,239
489,489,494,493,192
488,487,494,492,219
488,486,494,491,290
489,487,494,491,426
489,489,494,492,560
488,489,494,491,685
489,490,495,490,775
489,490,496,491,783
490,491,496,491,727
490,491,495,493,590
489,490,496,494,442
491,489,496,493,303
489,490,496,493,202
489,488,496,492,202
488,488,494,492,238
488,489,495,491,346
488,488,493,491,487
489,490,494,491,618
488,488,494,491,728
489,490,495,492,791
489,489,495,491,770
490,489,495,491,674
490,492,496,494,524
490,490,496,494,380
490,491,496,494,251
490,491,495,493,193
490,490,495,492,217
490,489,494,492,275
490,489,494,492,409
490,489,494,491,543
487,489,494,491,671
488,490,495,492,761
486,489,493,490,785
487,490,496,491,738
488,490,496,492,607
489,492,496,493,457
489,490,497,493,318
489,492,497,494,210
488,490,496,494,200
488,490,495,492,232
489,490,494,492,330
488,489,493,491,470
489,491,494,492,602
487,490,495,492,716
488,490,495,490,789
489,490,494,492,774
489,491,495,492,690
490,491,497,492,542
490,492,496,493,396
489,491,496,493,264
487,491,496,492,192
487,490,495,491,211
488,490,495,492,265
487,490,494,491,390
488,489,494,491,527
488,490,495,492,656
488,490,493,491,756
489,490,494,492,789
490,491,496,493,753
490,492,494,492,626
489,491,496,493,475
489,490,496,494,334
489,490,496,494,218
489,490,495,492,196
487,489,495,493,227
488,489,494,492,314
487,490,495,491,452
487,491,494,491,586
488,492,494,491,705
488,492,494,491,787
488,493,495,491,778
488,490,496,492,706
490,490,496,493,559
489,490,497,494,414
489,491,497,493,277
488,492,496,494,195
487,491,497,491,207
487,490,496,491,255
487,491,494,492,374
486,490,495,492,514
488,490,494,491,643
488,491,495,492,742
489,491,495,491,790
489,491,495,492,763
490,493,496,492,642
490,492,496,492,492
489,492,496,494,349
490,492,496,493,229
488,491,495,493,194
488,490,496,493,223
487,491,495,492,299
488,490,495,492,437
488,491,494,492,571
488,490,494,491,693
488,491,495,491,782
489,491,495,492,781
489,491,496,492,718
490,492,496,493,576
490,493,496,493,430
489,491,496,493,293
489,493,497,493,197
488,490,493,491,205
487,490,495,493,242
486,489,495,491,356
487,491,495,492,497
488,492,494,492,626
488,491,494,490,731
487,492,495,491,793
489,493,496,492,768
489,492,494,492,662
489,494,496,493,511
490,493,497,492,368
488,492,496,494,242
489,492,496,493,194
486,489,496,492,217
488,491,495,492,286
488,490,495,491,419
487,491,494,491,554
487,491,494,491,680
487,491,495,492,770
488,492,495,492,782
489,492,495,491,730
489,492,495,492,594
489,493,496,493,446
489,493,496,493,306
489,492,496,493,201
489,491,496,492,201
488,491,495,492,236
488,492,495,491,341
487,490,495,491,480
487,492,494,492,611
488,491,495,491,721
488,492,494,491,791
488,492,495,491,771
489,493,495,491,676
490,493,496,494,526
488,492,496,494,383
489,492,498,493,253
488,492,496,493,192
488,489,495,492,213
487,488,494,492,272
488,487,494,491,401
488,490,494,491,538
488,492,495,491,665
488,494,495,492,760
488,495,495,491,786
489,495,495,491,743
490,493,496,493,613
491,494,496,494,461
491,493,496,493,322
490,494,496,494,212
489,492,494,493,196
486,491,495,492,228
486,492,496,492,324
488,490,494,492,464
488,492,494,491,595
488,493,494,491,712
487,492,494,491,790
488,492,495,491,774
489,493,497,492,694
489,493,497,492,546
490,494,497,493,402
490,494,497,493,266
488,492,497,493,191
489,493,497,492,208
488,493,494,491,260
487,492,494,490,384
488,493,495,491,523
488,493,495,490,653
488,492,494,491,752
488,493,495,491,789
489,492,495,492,756
489,491,496,493,633
490,494,496,492,481
489,494,496,493,338
490,493,497,493,220
489,492,496,492,193
488,491,496,494,224
488,492,496,491,305
489,491,494,491,446
488,492,494,491,580
489,492,494,492,702
489,492,494,491,786
489,494,494,492,781
490,493,495,492,712
490,495,496,493,566
490,493,496,494,419
490,493,497,493,282
490,493,496,493,195
488,493,496,493,205
490,493,496,493,251
489,493,494,491,367
488,493,494,491,509
490,492,495,491,639
489,492,494,491,740
490,492,496,491,794
490,494,496,491,766
491,494,496,492,650
490,494,497,493,499
489,495,495,493,354
489,494,496,493,233
489,493,495,492,192
489,493,495,492,218
488,492,495,492,293
488,493,494,491,431
488,492,494,491,565
488,493,495,491,689
490,493,494,492,781
490,493,495,491,782
490,495,495,492,723
491,494,496,492,584
491,495,497,493,435
491,494,497,494,295
490,494,496,493,194
488,493,495,493,200
489,493,495,492,237
488,493,494,491,348
489,493,494,491,489
489,494,495,491,622
489,493,494,490,730
490,493,495,490,793
491,495,495,492,769
491,494,494,491,667
490,495,496,492,515
490,495,496,492,372
491,494,496,493,243
490,494,495,492,188
490,492,495,493,214
491,493,495,493,276
489,493,495,491,411
488,494,495,491,549
490,494,495,492,676
489,493,494,490,767
490,494,496,492,785
489,494,496,492,737
492,495,496,492,602
492,496,497,493,451
491,496,497,493,308
490,496,497,493,203
490,495,497,492,198
489,493,496,492,231
488,494,494,492,333
489,493,494,490,476
488,494,495,491,607
490,494,495,491,721
490,496,495,491,792
490,496,495,492,775
491,495,497,495,685
490,495,496,493,534
492,495,496,493,389
491,495,496,493,257
491,495,496,493,190
489,495,495,492,210
489,495,495,491,265
489,494,495,491,396
488,493,495,492,533
489,493,495,492,662
490,494,495,491,760
490,494,494,492,790
492,496,495,492,751
491,495,497,492,621
491,495,496,493,469
491,496,496,493,329
491,495,496,492,215
490,493,495,492,194
490,494,496,491,226
490,494,495,491,318
490,494,495,491,459
490,493,495,491,591
490,494,495,491,711
490,494,494,491,791
491,495,496,491,779
492,497,496,492,701
491,496,496,493,554
491,498,497,493,407
491,496,497,494,270
491,496,497,493,191
489,495,495,492,206
490,494,496,492,256
490,494,495,492,378
490,493,496,491,519
490,494,495,491,649
491,495,494,491,749
490,495,495,492,793
491,495,495,491,762
492,495,496,492,639
493,496,497,493,487
491,496,497,493,344
492,495,496,493,224
492,493,496,490,192
490,493,495,492,222
490,494,495,491,303
490,494,496,491,442
491,494,494,492,577
491,496,495,490,698
491,498,494,490,784
491,496,495,492,780
492,496,495,492,717
492,496,497,493,571
492,496,498,493,425
492,496,496,493,286
492,495,496,494,194
491,494,496,492,204
491,495,496,492,245
490,495,496,491,361
490,495,495,492,502
491,494,494,491,632
491,495,494,491,735
491,496,496,490,793
492,496,496,491,768
492,497,496,492,656
493,497,497,492,505
491,497,496,493,362
492,496,496,493,237
491,495,496,492,191
491,495,495,491,217
491,495,495,492,288
490,495,495,491,424
490,495,495,491,559
491,494,495,491,685
491,495,495,491,777
491,494,494,491,784
492,498,496,490,731
491,497,497,492,591
492,497,497,493,441
492,497,497,494,301
491,497,496,493,197
491,495,496,493,200
490,495,496,492,235
491,495,495,492,344
490,494,495,492,485
491,495,495,491,616
492,495,496,491,728
491,496,495,491,793
492,497,495,491,773
493,497,496,493,674
492,497,496,492,523
492,497,496,493,380
492,496,497,492,249
492,496,497,493,189
491,496,497,492,213
490,495,496,492,274
491,494,495,491,407
490,495,495,491,544
491,495,495,490,671
491,496,496,491,764
491,495,495,492,787
493,497,495,492,743
492,497,496,492,608
493,496,496,493,457
492,498,497,493,317
492,496,497,493,208
491,496,496,492,195
490,496,495,492,230
490,494,495,491,329
490,494,495,492,469
491,496,494,491,602
490,496,496,491,716
491,495,495,491,793
492,496,495,493,778
491,497,496,492,692
491,498,497,493,541
492,497,497,493,394
492,498,497,493,261
492,497,496,493,189
490,495,496,493,208
491,497,495,491,262
491,495,496,491,389
491,495,494,491,527
491,495,495,491,658
491,496,495,491,759
492,496,494,491,791
492,496,495,492,757
493,498,496,492,629
493,498,497,492,477
492,499,498,494,333
492,497,497,493,216
492,496,496,492,194
491,497,495,492,223
490,496,495,492,312
491,495,495,491,452
490,495,494,491,584
491,496,495,492,707
492,496,495,491,789
492,497,496,491,781
492,498,495,493,709
492,498,496,492,560
492,499,498,493,413
492,497,497,493,276
492,498,496,493,192
491,496,498,491,203
491,496,495,492,253
491,496,494,492,372
491,495,495,492,513
491,496,496,491,644
492,496,495,491,745
491,498,495,492,794
493,499,496,491,765
493,498,496,493,647
493,498,497,493,494
492,499,498,492,349
492,498,497,494,227
492,496,497,491,191
491,495,496,493,217
491,497,496,491,296
490,495,494,492,436
491,495,494,490,571
491,496,495,491,694
492,496,496,490,786
492,498,495,493,785
492,497,497,493,721
494,498,497,493,579
494,498,497,494,430
493,498,496,493,290
492,498,497,493,191
491,495,497,493,200
491,496,496,492,239
491,496,495,492,354
491,496,496,492,495
491,496,494,491,627
492,496,495,491,736
492,498,494,491,797
492,498,496,490,772
493,499,496,493,666
493,498,497,492,512
492,499,496,493,368
493,498,496,493,239
492,498,496,493,189
491,497,496,492,212
491,498,494,491,281
490,496,494,492,417
492,496,495,490,554
492,497,495,491,682
492,497,495,491,775
493,497,495,491,788
493,498,496,493,736
492,498,496,493,598
493,498,496,494,446
493,498,496,494,304
493,497,496,493,198
493,496,494,491,194
492,496,496,491,231
490,496,496,492,336
491,499,494,492,477
491,496,494,492,613
491,497,495,491,725
492,497,495,492,797
493,498,495,491,780
493,500,497,493,682
493,499,496,493,530
493,499,497,493,384
493,499,496,493,252
493,499,495,493,189
491,497,496,491,210
493,497,494,491,268
492,497,495,492,401
491,496,495,492,540
492,497,495,491,669
493,498,495,491,765
493,498,495,492,792
494,498,495,493,751
494,499,496,493,617
493,499,495,493,464
494,499,497,493,323
493,499,496,493,209
492,498,496,493,195
492,497,495,492,225
492,497,496,492,322
491,496,495,492,464
492,498,495,492,597
492,498,494,492,716
492,498,496,491,795
492,498,496,491,781
493,499,494,493,699
493,499,495,492,550
494,500,497,493,401
493,499,496,493,265
494,499,496,492,188
493,499,496,491,203
492,497,496,492,256
492,498,494,493,382
492,498,494,491,523
491,498,495,492,655
492,499,495,491,756
494,498,494,492,795
493,499,495,492,761
494,499,498,492,638
493,500,496,493,483
493,499,497,494,337
493,499,496,493,216
492,499,496,494,189
491,498,495,492,220
492,499,495,492,305
491,497,495,491,446
492,498,495,492,582
492,498,494,491,705
493,499,494,492,789
493,499,495,492,784
493,499,495,492,714
495,499,496,493,567
494,500,495,493,419
493,500,497,493,280
494,500,496,493,190
493,499,494,491,201
493,499,496,492,247
493,498,495,492,364
492,498,494,492,509
491,499,495,490,638
493,499,496,491,742
493,499,496,491,797
494,498,495,491,769
495,500,497,492,654
495,500,496,494,500
495,499,497,493,356
496,499,497,494,230
493,499,496,493,188
491,499,496,492,214
492,499,495,492,288
492,499,494,492,429
493,498,496,491,566
494,498,495,492,691
494,498,494,491,784
494,498,496,492,788
495,499,496,492,729
493,500,496,492,586
493,500,496,492,435
493,501,496,493,293
493,500,496,493,191
494,499,496,492,196
493,498,495,493,234
492,499,495,492,346
492,499,495,491,491
493,498,495,491,624
494,499,494,492,735
493,500,494,491,800
494,499,495,492,774
494,501,496,492,672
494,501,496,493,518
494,500,496,493,373
494,501,496,494,240
494,499,496,494,186
494,499,494,492,210
493,499,494,492,276
494,498,495,491,413
494,498,494,492,549
495,499,494,490,679
494,499,495,492,771
495,499,495,491,790
494,500,496,493,741
494,502,496,492,604
493,501,495,493,451
493,499,496,492,309
493,500,497,492,200
493,499,494,491,192
493,499,495,492,227
493,500,494,492,330
492,499,494,492,475
494,500,494,491,609
494,499,494,491,724
494,499,494,491,797
493,500,494,493,777
494,500,496,492,689
495,501,496,492,536
494,501,497,493,388
494,501,496,493,255
494,501,496,493,184
494,500,496,492,205
495,499,495,492,262
493,498,495,492,392
493,498,495,491,533
493,499,494,491,663
494,500,495,491,761
495,500,495,490,793
495,500,495,491,754
495,500,497,493,624
494,501,496,492,471
494,500,496,493,325
495,501,497,493,210
493,501,496,492,192
493,499,495,491,221
494,499,495,491,314
494,498,495,492,456
494,500,495,491,590
494,499,494,492,713
494,499,494,491,794
495,501,495,491,781
494,502,495,492,706
495,502,496,492,555
495,501,496,493,406
495,501,496,494,269
495,500,495,492,187
494,501,496,492,202
494,499,495,491,253
494,499,494,491,376
494,499,494,491,516
494,499,494,491,650
493,499,495,490,751
495,500,495,492,796
496,501,495,492,765
495,501,496,493,642
496,501,496,493,486
495,501,496,493,343
495,501,496,493,222
494,500,496,494,189
494,500,494,492,218
493,499,494,492,298
493,499,494,491,440
493,499,494,491,577
495,500,494,491,700
495,500,494,492,788
494,501,494,492,786
495,502,496,492,721
496,502,495,492,575
496,501,496,493,426
495,502,497,493,287
496,501,496,494,192
493,500,496,493,201
494,500,495,492,242
493,499,494,492,359
494,499,494,491,502
494,500,495,490,633
494,501,494,491,738
493,500,495,490,797
495,501,495,491,772
496,503,495,492,660
496,502,497,493,507
495,502,496,494,363
496,501,496,493,234
495,501,497,493,188
494,501,496,492,214
495,500,495,492,284
494,500,495,492,423
494,500,494,490,560
494,500,494,491,684
494,500,495,492,780
494,501,496,491,787
495,502,495,493,731
496,503,496,492,594
496,503,496,492,442
496,502,496,493,301
496,502,496,493,195
493,501,496,491,198
495,500,495,491,233
495,500,496,492,342
494,500,494,491,485
495,500,495,491,618
495,501,495,491,729
494,500,495,492,797
495,502,494,492,775
495,503,495,493,677
497,503,496,493,525
496,502,497,493,378
495,502,496,492,249
494,502,496,492,190
493,502,496,491,211
494,501,496,492,273
493,501,495,491,405
494,501,495,491,543
493,502,495,490,671
494,501,494,492,766
494,501,495,492,788
496,502,496,493,743
496,503,496,493,610
497,503,497,493,460
496,503,496,493,318
496,502,495,492,209
494,501,497,494,196
493,501,495,493,229
494,501,495,492,327
493,501,495,491,470
494,500,495,491,601
495,500,494,492,718
495,501,494,491,794
495,502,495,491,777
495,502,497,492,691
496,504,496,493,544
496,503,496,492,397
496,502,496,493,264
496,503,496,493,192
493,503,495,492,208
494,501,496,493,262
495,501,495,492,388
494,500,495,492,528
494,500,494,491,657
495,502,494,490,758
495,501,494,492,791
496,503,496,491,758
495,502,496,493,630
495,503,495,492,477
497,503,496,493,334
496,502,496,493,218
495,501,496,490,194
495,502,495,492,224
494,501,495,492,311
494,501,495,491,452
494,501,494,490,585
494,501,493,491,706
496,503,494,490,789
496,501,495,492,780
496,502,496,493,709
496,503,496,493,561
497,503,495,493,415
496,503,496,493,277
496,503,496,493,193
493,501,497,491,204
494,502,495,493,252
495,501,494,492,372
494,501,495,491,512
495,501,493,490,643
495,501,494,489,743
496,501,495,493,793
495,502,496,491,766
496,502,496,491,646
496,504,496,492,494
497,505,496,493,352
498,502,497,494,230
497,503,496,492,192
495,500,496,492,220
493,503,494,492,297
492,502,495,491,435
493,501,494,491,570
494,501,494,491,690
495,503,494,492,784
495,502,496,491,784
495,505,495,493,723
497,504,496,492,580
497,503,496,494,433
496,503,496,492,290
496,502,496,493,196
494,502,495,492,202
494,502,494,492,241
494,502,495,491,352
495,502,495,490,492
495,501,494,492,623
495,501,494,491,729
496,503,494,492,793
498,502,496,492,770
497,503,495,491,647
495,505,495,494,461
497,503,497,494,304
494,503,496,493,237
495,502,492,494,213
499,503,493,493,239
493,506,496,495,282
493,501,496,491,384
493,502,493,493,489
495,502,494,490,672
495,503,494,491,796
495,502,494,489,807
494,506,496,494,749
497,506,495,494,580
496,503,498,494,392
496,504,495,491,283
497,502,497,493,231
494,502,496,493,224
495,503,496,493,256
494,503,494,493,337
494,502,495,492,437
493,503,493,490,571
496,501,495,492,745
496,502,493,490,818
495,501,494,491,800
498,504,494,491,688
497,505,495,491,499
497,505,495,492,336
498,501,498,493,258
498,501,495,491,223
496,502,497,492,240
495,501,493,489,286
497,503,497,493,381
495,502,495,491,488
492,503,493,492,656
496,499,493,492,791
494,501,494,494,808
496,502,495,494,770
498,503,498,494,609
499,502,496,492,433
497,505,497,491,292
497,502,494,491,231
494,503,494,492,220
494,503,494,490,250
496,501,493,494,326
495,504,496,491,426
495,500,493,490,545
497,500,492,490,725
496,501,495,492,814
493,502,494,492,802
495,504,494,494,711
494,502,496,495,530
495,506,496,491,381
494,505,498,495,261
496,503,495,491,219
493,502,496,493,233
496,500,496,491,275
493,500,494,489,365
496,500,496,490,495
496,500,493,489,630
494,500,496,491,781
494,503,497,493,814
495,501,497,494,781
496,501,498,493,631
496,503,497,492,459
496,502,496,492,315
497,501,496,491,235
497,503,497,492,218
495,501,495,491,243
495,503,494,492,310
497,500,493,491,419
495,504,494,491,550
495,502,495,491,704
495,504,496,490,808
496,504,497,491,802
494,501,493,490,724
495,503,498,495,543
498,505,495,491,379
497,505,495,494,269
495,502,496,490,224
494,504,496,492,229
496,499,496,494,266
494,500,493,492,356
495,501,495,492,464
496,501,494,492,606
495,503,492,489,763
493,503,495,489,819
493,501,494,490,789
499,502,494,495,650
499,503,497,492,463
497,504,498,492,322
495,503,494,492,247
498,502,495,492,220
494,500,494,495,246
497,504,497,494,303
496,502,496,490,401
496,500,495,493,533
495,501,495,489,688
493,500,493,491,806
496,504,497,491,808
497,505,495,495,743
497,506,496,495,569
498,504,496,495,407
497,503,496,492,276
496,503,496,495,223
493,502,494,492,224
496,501,497,493,259
493,502,493,493,340
495,500,495,492,457
497,502,493,493,589
494,503,496,488,752
494,502,496,491,821
497,504,494,494,794
494,505,494,494,672
497,504,498,491,483
496,505,497,493,334
498,503,494,491,251
495,504,498,493,221
497,500,494,493,241
493,500,497,494,290
495,504,493,493,388
495,502,493,491,509
496,501,493,489,668
495,502,494,489,797
496,504,496,491,809
496,502,497,494,756
499,506,495,495,592
498,505,496,492,415
498,504,496,492,283
496,502,495,492,231
495,500,494,494,225
497,504,494,494,254
494,504,494,491,330
496,500,493,490,440
494,501,495,492,575
495,504,495,492,733
495,503,496,492,819
498,503,496,493,801
495,504,498,492,693
496,504,496,491,508
496,503,495,492,358
495,504,497,493,255
498,500,496,491,219
496,504,496,494,233
495,502,495,493,280
495,504,494,491,375
495,502,495,490,496
496,503,494,489,644
495,503,495,493,790
495,501,494,493,813
495,506,493,491,772
497,503,497,495,617
499,502,496,495,433
495,502,494,492,293
497,506,494,494,235
496,501,495,491,223
497,501,493,491,248
493,503,492,493,319
495,502,494,491,419
496,501,495,491,549
494,501,492,490,721
494,502,494,490,817
497,502,494,491,805
496,503,495,491,715
498,503,494,494,531
497,502,497,492,366
495,505,493,495,263
494,504,497,491,221
495,502,496,491,233
498,502,495,490,271
494,501,496,491,364
494,501,496,493,476
496,501,493,493,626
496,502,491,490,776
496,504,496,490,820
496,503,494,490,786
498,503,494,493,641
499,504,498,494,449
498,505,494,492,310
497,506,497,492,243
497,504,497,493,220
494,501,493,493,245
497,504,496,494,310
497,503,497,494,411
497,502,495,491,539
496,500,495,493,699
498,503,492,489,814
497,503,494,490,809
497,503,497,491,735
497,507,498,495,557
496,504,495,491,391
497,504,496,492,271
498,506,497,495,223
496,503,494,491,229
498,502,493,493,266
496,502,492,491,350
497,501,493,490,467
497,503,493,492,600
496,504,492,492,764
494,502,493,489,821
497,506,496,494,795
498,503,496,494,663
498,506,494,495,475
496,504,496,492,327
497,504,494,493,246
497,503,497,490,218
494,502,496,491,241
494,504,495,493,297
496,501,493,491,396
494,503,494,491,523
495,503,496,490,682
497,504,493,491,806
498,505,497,493,812
498,506,494,493,746
498,505,495,491,579
498,504,495,493,406
496,504,496,495,278
495,504,497,493,225
497,503,497,495,226
498,505,496,494,256
497,501,496,494,338
