Sensor0,Sensor1,Sensor2,Sensor3,Sensor4

263,496,494,492,492
382,496,494,492,492
527,496,494,495,490
705,497,494,495,490
847,494,494,496,493
861,497,494,496,493
793,499,494,494,492
600,498,494,494,494
392,495,494,494,493
245,494,493,494,492
189,497,493,492,493
184,497,494,493,492
218,497,494,494,493
313,495,494,492,490
438,495,494,493,490
591,495,494,495,491
781,498,494,492,492
872,495,494,494,492
846,496,494,497,492
721,498,494,496,495
499,497,494,496,494
323,496,494,494,494
218,497,494,495,492
178,496,494,493,494
197,494,494,495,492
256,496,494,493,493
368,495,494,495,492
512,494,494,493,493
676,495,494,494,490
839,496,494,493,491
868,496,494,495,494
815,496,494,495,493
628,497,494,496,493
428,497,494,495,494
267,496,494,495,494
191,496,493,496,492
178,496,494,496,492
213,496,494,493,493
299,494,494,494,492
434,496,494,494,491
584,495,494,495,492
755,496,494,494,491
868,496,494,495,492
846,499,494,495,491
743,496,494,495,493
533,496,494,496,494
357,496,494,496,494
218,495,493,496,494
177,496,494,494,492
189,496,494,493,494
242,496,494,495,491
346,496,494,493,493
489,495,494,493,493
647,496,494,492,493
824,494,494,495,493
870,496,494,495,490
827,497,494,496,492
653,496,494,497,492
437,496,494,497,494
275,497,493,493,494
196,497,493,495,491
178,494,494,493,493
208,494,494,493,491
282,493,494,492,492
404,494,494,494,492
548,496,494,494,493
739,496,494,493,491
868,497,494,496,491
857,496,494,494,491
767,498,494,494,494
562,495,493,497,495
363,498,493,496,491
232,497,493,494,494
184,495,493,494,494
192,494,493,496,491
235,494,494,495,490
332,496,494,493,492
467,496,494,494,491
624,494,494,492,493
806,495,494,493,490
876,498,494,495,492
839,496,494,496,493
687,496,494,496,494
471,498,494,497,494
306,497,493,494,491
207,496,493,496,494
175,494,494,493,494
204,497,494,493,493
270,496,494,493,492
385,495,494,493,492
532,494,494,495,491
711,496,494,495,491
854,496,494,494,491
860,495,494,495,490
789,497,494,494,495
588,498,493,494,496
386,497,493,497,494
239,494,493,496,492
186,494,494,494,494
183,497,494,495,492
225,495,494,495,491
319,496,494,492,490
442,496,494,492,491
599,494,494,493,491
789,494,494,494,493
877,495,494,492,494
843,497,494,494,492
714,496,494,497,494
490,497,494,494,495
317,497,493,497,491
211,495,493,496,491
175,496,494,495,494
199,493,494,493,491
258,496,494,493,494
369,496,494,493,493
510,494,494,495,492
686,496,494,492,493
842,495,494,491,493
864,498,494,496,493
807,498,494,495,492
620,497,494,496,493
411,496,494,497,494
250,496,494,493,494
191,495,494,494,492
183,493,494,496,494
218,494,494,495,491
303,496,494,492,491
426,494,494,494,491
581,496,494,492,489
767,496,494,494,493
871,498,494,495,495
847,496,494,496,494
738,496,493,495,493
523,497,494,496,492
338,497,493,494,495
222,495,493,497,492
177,494,493,495,494
196,496,494,493,493
248,496,494,493,494
356,496,494,494,490
491,494,494,493,491
657,493,494,495,490
830,495,494,492,494
872,495,494,496,494
824,498,494,494,494
648,498,494,495,493
434,496,493,496,492
274,495,493,497,491
196,494,493,494,494
179,494,494,493,492
211,494,494,494,491
292,495,494,495,491
410,494,494,493,491
560,496,494,495,492
747,496,494,493,491
872,496,494,493,492
855,495,494,493,494
766,496,494,494,492
553,498,494,495,493
364,497,493,494,492
232,495,494,496,494
182,494,493,495,491
190,494,494,496,490
239,496,494,496,491
340,496,494,495,493
474,496,494,492,490
629,494,494,496,493
810,495,494,494,490
871,494,494,494,494
835,497,494,496,495
677,499,494,495,493
456,497,494,495,495
290,495,493,495,495
204,495,494,494,494
176,494,494,493,493
204,496,493,494,490
274,495,494,495,492
394,495,494,495,490
535,496,494,493,494
721,496,494,493,493
855,497,494,495,493
857,495,494,496,493
781,497,494,497,494
577,497,493,497,495
379,497,493,497,492
240,497,493,496,495
181,497,493,494,491
184,494,494,495,492
226,496,494,496,492
321,495,494,494,491
451,495,494,495,490
606,494,494,495,492
795,494,494,494,494
872,496,494,496,491
843,495,494,493,492
701,497,494,495,493
482,496,494,496,494
310,497,494,494,495
210,494,493,493,491
176,494,494,493,495
203,495,494,492,491
264,497,494,495,491
378,494,494,493,493
517,495,494,491,490
695,496,494,495,491
845,494,494,494,490
864,496,494,492,494
799,497,494,496,495
610,496,494,494,494
402,495,493,494,495
251,495,493,497,495
191,495,494,493,493
182,497,494,493,494
220,494,494,494,492
309,494,494,493,491
435,494,494,494,493
586,494,494,494,491
772,496,494,494,491
872,495,494,495,493
848,498,494,496,492
728,496,494,497,492
511,496,494,495,492
332,496,493,497,494
215,494,493,494,495
176,496,494,493,493
196,494,494,494,494
248,496,494,493,493
358,495,494,495,492
493,494,494,492,491
669,496,494,494,492
833,495,494,494,490
867,496,494,493,491
820,495,494,494,494
639,496,493,496,494
424,497,494,495,492
266,496,493,493,494
199,496,493,496,493
181,496,493,495,491
216,494,494,495,494
296,496,494,493,493
416,496,494,493,491
565,496,494,495,490
751,495,494,495,491
872,496,494,496,490
853,495,494,495,494
759,498,494,495,493
543,497,494,494,492
359,495,493,496,492
228,496,494,493,493
183,495,494,496,491
194,494,494,494,491
239,494,494,496,490
344,497,494,495,490
479,494,494,495,491
639,496,494,492,489
817,495,494,496,491
870,494,494,495,494
831,496,494,496,494
666,495,494,495,492
447,496,493,494,494
281,495,493,494,493
203,496,493,495,493
177,496,494,493,492
207,495,494,493,491
279,495,494,493,491
396,495,494,494,491
546,495,494,492,490
730,495,494,492,490
862,495,494,492,491
859,495,494,493,495
776,497,494,494,492
570,498,494,496,493
382,497,493,496,495
237,497,493,496,493
184,497,493,495,491
188,496,493,495,493
229,496,494,495,494
331,495,494,493,492
469,494,494,495,493
620,494,494,492,490
801,494,494,493,493
872,494,494,495,493
836,495,494,494,492
693,496,494,495,494
478,496,494,493,494
308,496,493,494,495
207,495,494,492,491
173,497,493,492,492
205,494,494,493,494
265,495,494,493,493
382,498,494,495,491
520,495,494,495,492
703,494,494,493,490
850,495,494,493,491
863,497,494,493,494
796,496,493,494,492
603,497,493,495,493
390,496,493,495,494
251,494,493,495,493
187,496,494,496,494
185,496,494,495,493
222,494,494,495,493
313,494,494,495,494
438,495,494,493,490
592,495,494,494,490
781,496,494,496,491
877,495,494,492,491
844,497,494,494,492
722,497,494,494,494
506,495,494,497,494
333,496,494,495,495
214,497,493,495,494
175,495,493,496,495
200,496,494,492,494
256,494,494,496,492
363,494,494,493,491
510,494,494,495,493
677,496,494,495,493
841,494,494,496,494
868,496,494,496,492
814,497,493,495,495
630,496,493,494,495
416,496,493,495,495
259,494,493,494,493
195,496,494,496,493
185,493,493,492,490
216,496,494,495,492
301,494,494,495,493
416,494,494,494,491
569,495,494,494,493
759,496,494,495,491
870,497,494,496,492
849,497,494,496,494
747,496,493,494,493
535,497,493,496,494
347,494,493,495,493
225,494,493,496,495
182,493,493,494,491
196,496,494,495,493
247,495,494,493,493
348,494,494,493,492
484,494,494,495,492
647,495,494,492,490
824,493,494,496,492
869,496,494,496,491
830,496,494,495,492
656,497,494,495,495
448,497,494,494,495
280,495,493,497,494
200,496,493,495,491
177,496,493,493,494
213,493,493,492,492
287,494,494,494,491
403,495,494,494,493
549,495,494,495,493
737,496,494,492,490
866,494,494,496,494
856,494,494,495,493
765,495,494,494,494
566,497,493,496,494
371,495,493,494,494
235,497,494,496,493
182,494,493,496,492
188,496,494,493,492
230,492,494,493,494
334,493,494,495,491
466,495,494,494,491
621,496,494,494,490
805,495,494,495,493
871,495,494,493,491
836,495,494,494,494
685,496,493,495,493
465,496,493,497,493
299,495,493,497,492
208,493,493,494,494
176,493,493,495,495
205,494,494,495,493
268,493,494,492,491
388,495,494,495,491
525,493,494,495,491
710,494,494,496,493
850,496,494,495,492
859,495,494,496,492
788,497,493,497,493
592,496,494,496,494
380,496,493,495,493
245,495,493,494,491
191,495,493,496,492
185,496,494,495,492
227,496,494,493,491
322,494,494,494,493
439,495,494,493,491
592,494,494,492,491
786,496,494,493,491
876,494,494,494,492
844,498,494,496,491
715,495,493,494,493
495,497,493,495,493
321,496,493,494,493
217,496,493,495,494
179,494,493,494,492
204,493,493,493,494
261,495,494,495,491
369,496,494,494,493
507,494,494,493,491
683,495,494,494,492
844,496,494,493,491
865,496,494,496,492
808,496,494,494,492
626,495,493,494,493
410,496,494,494,495
257,493,493,497,494
194,496,494,497,490
181,494,494,494,494
219,494,494,493,492
306,493,494,492,493
429,493,494,493,492
577,495,494,493,490
768,496,494,493,490
870,495,494,494,492
848,494,494,496,493
739,497,494,494,492
527,495,494,494,495
343,495,494,497,495
224,494,494,494,492
180,493,493,494,494
198,493,494,494,492
247,493,494,496,494
353,493,494,494,491
490,494,494,494,492
653,493,494,491,490
825,495,494,491,493
868,494,494,496,494
826,495,494,494,492
651,496,493,495,492
432,496,494,494,493
274,494,493,494,494
198,494,493,496,494
182,496,494,494,491
214,494,494,494,491
293,493,494,493,493
410,494,494,493,491
554,494,494,492,492
744,495,494,495,492
865,497,494,497,493
852,495,494,494,491
765,496,494,496,495
553,495,494,496,494
361,495,494,496,493
231,493,493,496,491
180,496,494,496,490
193,494,493,494,491
236,496,494,493,491
337,493,494,495,493
473,495,494,495,492
630,494,494,493,491
807,494,494,492,490
871,496,494,494,492
833,496,494,493,492
677,497,493,494,494
462,496,493,495,495
296,496,493,497,493
203,496,493,494,492
181,494,494,494,492
209,492,494,494,494
278,493,494,494,493
392,494,494,493,493
532,494,494,493,491
717,494,494,493,493
859,494,494,494,492
859,495,494,495,493
783,495,493,494,495
583,497,494,496,495
383,496,493,495,493
241,495,493,493,495
187,493,493,494,491
186,495,493,496,491
222,496,494,493,493
321,493,494,493,492
454,494,494,494,492
609,494,494,493,491
792,494,494,492,492
872,496,494,495,493
841,495,494,494,492
705,495,493,495,494
490,495,493,495,493
323,495,493,494,495
209,494,493,493,491
175,496,494,493,493
200,495,494,494,491
259,495,494,495,491
376,494,494,494,491
525,494,494,495,492
685,494,494,494,492
843,495,494,494,492
861,496,494,494,491
798,496,494,496,495
609,496,494,495,492
413,495,494,495,495
254,495,493,494,493
191,493,493,494,493
179,492,494,494,491
219,496,494,494,491
307,496,494,494,491
432,494,494,494,491
583,495,494,493,491
769,494,494,495,491
871,495,494,495,492
847,495,494,494,494
730,497,494,496,495
518,495,493,496,494
337,496,493,497,495
221,494,493,495,495
178,496,493,495,492
194,495,494,496,493
250,495,494,494,491
358,494,494,495,492
498,495,494,494,492
664,495,494,494,491
833,495,494,495,492
868,496,494,496,494
819,496,494,497,495
640,495,493,496,493
434,494,493,496,494
273,495,493,494,494
192,494,493,493,491
179,493,493,494,494
211,496,494,493,494
292,493,494,494,493
418,495,494,494,492
570,495,494,494,492
745,495,494,495,491
864,494,494,493,492
849,496,494,497,493
757,493,493,496,495
543,496,494,497,494
366,494,493,495,492
223,495,494,494,491
182,494,493,496,494
192,495,494,493,494
237,495,494,494,490
340,495,494,493,490
478,493,494,493,491
631,492,494,496,492
810,493,494,495,492
866,495,494,494,491
831,497,494,496,494
667,497,493,497,495
447,496,493,495,495
284,497,494,495,493
204,493,493,496,494
176,495,494,495,493
206,494,494,496,493
278,493,494,493,494
396,494,494,494,492
537,495,494,494,492
723,495,494,492,494
863,495,494,495,491
859,495,494,494,492
780,496,494,497,493
575,496,494,496,494
380,496,494,495,494
239,494,493,497,494
181,496,493,494,492
189,492,494,493,494
231,492,494,495,493
326,492,494,493,493
454,493,494,494,493
610,493,494,496,489
797,494,494,494,491
874,496,494,494,494
842,495,494,495,492
696,498,494,495,495
478,495,493,496,494
309,495,493,496,493
210,495,493,496,492
177,496,494,495,493
207,494,494,495,491
267,493,493,496,494
380,495,494,496,494
518,496,494,496,492
698,492,494,492,493
849,495,494,493,491
862,494,494,497,495
795,495,494,497,494
605,497,494,497,495
396,495,493,497,493
246,495,493,494,492
189,496,494,496,495
184,494,494,496,491
223,495,494,494,493
311,493,494,496,493
440,495,494,495,493
587,495,494,493,491
779,495,494,493,492
871,496,494,496,493
846,495,494,494,492
724,495,493,498,494
505,496,493,496,492
325,494,493,497,492
218,496,494,494,495
177,494,494,493,493
201,495,494,495,494
257,493,494,493,493
363,493,494,492,490
496,494,494,494,492
671,495,494,495,492
839,493,494,493,494
867,495,494,493,492
816,497,494,494,493
634,495,493,495,493
419,495,494,496,494
263,496,494,497,491
194,493,493,493,492
183,493,493,494,492
215,495,494,494,494
298,494,494,493,492
420,496,494,495,491
570,495,494,492,489
757,493,494,496,489
870,495,494,495,492
849,496,494,497,494
751,497,493,495,492
535,494,494,497,495
352,494,494,495,495
224,496,493,497,494
180,493,493,493,494
192,493,494,495,493
242,496,494,494,494
345,492,494,494,493
480,493,494,495,493
646,493,494,494,491
822,493,494,496,492
872,496,494,496,491
829,494,494,495,493
661,496,494,494,495
442,495,493,496,492
278,495,494,496,492
203,495,493,495,496
182,496,494,493,495
210,494,494,494,492
287,496,494,493,491
405,494,494,493,492
553,494,494,494,492
730,493,494,494,492
864,495,494,494,492
853,495,494,494,492
770,497,494,494,493
567,496,493,496,494
377,494,493,496,495
233,494,493,496,492
183,493,494,497,492
189,494,494,494,495
233,495,494,494,492
331,495,494,494,492
471,494,494,494,492
622,494,494,494,491
801,494,494,495,492
870,495,494,495,492
833,496,494,496,491
689,495,493,496,493
476,496,493,496,493
313,494,493,494,493
205,494,493,496,494
173,495,494,494,492
201,496,494,496,493
269,494,494,495,494
385,494,494,494,492
532,494,494,493,492
703,495,494,494,491
845,496,494,494,491
858,497,494,493,494
789,496,494,494,495
595,495,494,495,494
396,495,493,495,493
244,495,493,493,493
184,494,494,494,493
187,493,493,494,493
221,493,494,496,492
316,494,494,494,492
444,494,494,494,491
599,494,494,494,492
784,494,494,493,492
871,494,494,494,492
842,497,494,496,494
714,495,494,497,494
500,495,493,495,493
327,495,494,496,492
215,494,493,493,492
175,496,494,495,494
201,494,494,493,494
256,493,494,493,493
369,495,494,494,492
516,494,494,493,491
677,494,494,493,491
839,495,494,494,492
864,496,494,493,492
810,495,494,494,494
624,495,494,496,493
422,495,494,495,493
264,494,493,495,494
193,494,493,496,495
183,496,493,495,494
215,493,494,496,493
303,493,494,493,492
428,494,494,494,491
579,494,494,494,492
760,494,494,493,493
866,495,494,495,493
848,495,494,496,494
741,497,494,494,492
526,496,493,495,494
351,494,493,496,494
224,493,493,495,493
178,493,494,496,493
194,494,494,494,490
247,495,494,494,491
350,495,494,493,492
491,494,494,493,492
649,494,494,493,492
824,495,494,495,492
866,495,494,494,494
825,495,494,495,495
655,494,494,495,494
442,495,493,496,492
281,495,493,495,493
197,494,493,496,493
178,493,493,494,491
211,493,494,495,494
287,494,494,494,492
409,494,494,494,493
563,495,494,493,492
737,495,494,494,492
863,495,494,494,493
853,496,494,495,492
764,495,493,497,494
555,496,493,496,493
374,495,493,496,494
228,495,493,493,495
177,493,494,495,492
188,496,493,494,491
234,495,494,493,491
336,494,494,494,492
475,494,494,495,492
626,495,494,493,492
804,495,494,493,493
869,495,494,495,492
829,494,494,495,492
679,494,494,495,493
466,496,493,494,493
303,496,493,494,494
206,495,494,494,495
178,495,494,496,492
206,495,494,494,491
272,494,494,494,493
390,494,494,493,491
536,494,494,494,491
710,495,494,493,491
851,495,494,495,492
856,495,494,494,493
783,495,493,494,495
585,495,494,496,493
391,496,493,496,494
241,494,493,493,492
186,494,494,493,491
186,495,494,493,492
225,493,494,495,491
319,494,494,494,493
452,494,494,494,493
608,494,494,494,492
789,493,494,493,492
870,495,494,494,492
839,496,494,493,492
708,497,493,496,493
494,495,493,496,494
324,496,493,495,492
209,493,494,494,492
176,496,494,493,493
199,495,494,494,491
259,495,494,494,492
373,495,494,494,493
519,493,494,494,491
687,495,494,492,492
841,494,494,495,493
860,496,494,495,492
804,495,494,496,492
613,494,493,495,492
412,494,493,494,495
254,494,493,496,493
189,493,493,496,495
184,495,494,496,492
218,495,494,494,492
303,495,494,492,495
431,495,494,495,491
578,496,494,493,490
769,493,494,493,490
870,494,494,494,490
846,495,494,493,492
733,494,494,496,494
517,497,493,497,495
333,494,494,494,493
223,496,494,494,495
181,493,493,496,494
196,494,494,495,493
248,493,494,495,493
357,495,494,494,491
491,494,494,493,492
658,494,494,493,492
831,494,494,493,490
869,495,494,493,493
823,496,494,495,495
647,495,493,495,493
439,495,493,495,493
280,494,493,495,495
199,494,494,494,492
181,495,494,496,491
212,495,494,493,492
292,495,494,495,492
420,493,494,493,491
573,494,494,495,493
744,494,494,492,493
865,495,494,494,492
848,494,494,493,491
756,496,494,496,494
552,495,493,497,494
370,495,493,496,493
225,494,493,494,494
177,495,493,494,494
188,494,494,493,492
237,495,494,494,492
339,493,494,494,493
478,494,494,494,492
630,495,494,494,492
810,495,494,494,493
866,495,494,493,494
831,495,494,496,492
673,496,494,497,494
453,496,493,496,494
291,495,493,494,493
204,495,493,496,495
175,495,494,495,491
207,495,494,495,494
275,494,494,494,492
395,494,494,493,493
542,494,494,493,491
719,495,494,493,492
856,495,494,493,493
857,496,494,495,492
780,495,494,494,494
577,496,493,494,493
385,495,493,494,494
237,496,493,495,494
182,495,494,496,491
188,496,494,494,492
224,496,494,494,494
326,495,494,494,492
465,494,494,493,492
616,495,494,494,491
792,494,494,493,491
871,495,494,495,492
835,494,493,494,494
698,496,494,495,494
490,495,493,495,494
323,495,493,494,493
205,493,493,494,492
171,492,494,494,491
200,495,494,495,492
263,493,494,493,492
377,494,494,494,493
525,494,494,494,492
690,494,494,494,491
841,494,494,494,493
859,496,494,493,491
795,495,493,496,494
606,495,494,495,494
405,495,493,496,493
250,495,493,495,492
188,495,494,496,492
180,493,494,495,492
219,496,494,495,491
309,494,494,493,491
436,493,494,494,492
591,494,494,493,491
773,495,494,494,491
870,495,494,494,491
843,495,494,493,494
726,495,493,496,494
509,496,493,495,494
335,494,494,496,492
214,493,493,495,494
178,496,493,494,493
196,495,494,495,493
253,493,494,494,492
361,494,494,494,492
508,494,494,493,491
665,494,494,494,491
834,495,494,494,492
865,495,494,496,491
817,496,494,494,491
636,496,493,496,492
434,494,493,494,492
274,496,494,493,495
193,493,493,494,495
182,493,494,493,492
213,495,494,496,491
295,493,494,494,492
422,493,494,493,493
573,494,494,494,492
751,494,494,493,493
866,495,494,494,492
848,495,494,496,492
753,496,494,496,493
540,496,493,495,494
359,495,493,496,493
226,495,493,495,494
182,493,494,495,493
193,494,494,494,494
241,493,494,494,492
346,494,494,494,492
483,493,494,493,492
637,494,494,494,491
815,494,494,494,492
867,494,494,495,492
829,495,494,494,494
665,496,493,496,492
452,496,493,495,493
290,494,493,493,492
199,493,494,494,493
178,493,493,495,492
209,494,494,495,492
280,493,494,493,492
404,494,494,494,492
556,494,494,493,491
726,494,494,493,492
859,495,494,493,493
853,495,494,494,494
774,496,493,495,493
570,495,493,496,493
386,496,494,496,494
231,494,493,493,494
179,493,494,494,494
184,495,494,495,492
230,493,494,494,492
329,494,494,494,492
471,493,494,493,492
623,494,494,493,492
797,495,494,495,492
868,495,494,495,492
835,495,494,494,492
690,495,493,495,494
479,496,494,496,494
313,495,493,495,493
207,495,493,495,493
176,494,494,493,492
201,494,494,494,492
266,494,494,495,492
384,494,494,494,492
529,493,494,493,491
698,494,494,493,492
843,495,494,494,492
857,494,494,494,492
788,496,494,495,493
598,496,493,496,494
403,495,493,495,494
248,495,493,496,493
187,494,493,494,493
184,496,494,494,493
221,494,494,495,492
315,494,494,494,491
448,494,494,493,492
601,494,494,494,490
777,495,494,494,493
869,496,494,494,491
840,495,494,494,493
718,497,493,495,493
508,495,493,495,493
336,495,494,496,493
211,494,493,495,493
174,495,494,493,494
196,493,494,494,493
254,493,494,494,493
367,493,494,493,492
515,494,494,495,492
670,494,494,493,492
834,494,494,493,492
863,495,494,495,493
809,496,494,495,493
625,495,494,496,494
427,494,493,495,493
268,495,493,495,493
191,494,493,495,493
180,493,493,496,492
214,494,494,494,494
301,495,494,494,492
430,494,494,494,492
581,495,494,493,491
753,494,494,493,492
864,495,494,495,493
846,496,494,494,493
742,496,493,496,493
529,495,493,496,493
356,494,493,495,493
220,495,494,494,494
177,494,493,495,491
193,495,494,494,494
241,494,494,494,492
348,495,494,494,492
495,495,494,494,491
647,494,494,492,492
818,495,494,494,491
866,495,494,494,491
822,497,494,494,493
654,495,494,496,494
450,495,493,495,494
288,495,493,494,494
197,494,493,495,493
176,494,493,494,493
207,493,494,494,493
286,494,494,493,492
411,494,494,494,491
562,494,494,493,492
731,494,494,494,492
860,495,494,494,492
850,496,494,493,493
763,495,493,496,495
560,495,493,495,494
380,495,493,495,494
229,494,493,495,492
179,494,493,495,493
189,494,494,495,493
230,494,494,494,493
332,494,494,494,492
478,494,494,494,492
629,493,494,493,491
803,494,494,495,492
868,495,494,495,493
831,494,494,494,493
683,495,494,496,493
473,496,494,496,494
310,495,493,495,493
201,494,493,495,492
175,493,494,494,492
203,493,494,494,493
272,495,494,494,492
389,494,494,494,492
541,494,494,493,491
705,495,494,493,492
847,495,494,494,492
856,495,494,494,492
787,495,494,496,493
587,496,493,496,494
398,494,494,494,493
242,494,493,496,493
183,494,493,494,492
185,493,494,493,493
223,494,494,494,492
319,494,494,494,492
456,494,494,493,492
607,494,494,493,491
781,495,494,494,492
870,496,494,494,492
837,496,494,496,492
709,495,494,496,493
498,496,493,495,494
328,496,493,495,492
210,495,493,495,493
174,494,493,494,492
199,494,494,494,493
258,494,494,494,492
370,493,494,493,492
520,495,494,494,491
679,493,494,494,492
839,494,494,494,493
862,495,494,494,492
805,495,494,496,493
618,496,494,496,493
422,494,494,495,494
263,493,494,495,494
190,493,494,495,493
180,493,494,493,492
216,494,494,494,492
303,494,494,494,492
435,494,494,493,491
588,494,494,494,492
761,495,494,494,492
867,494,494,495,492
845,496,494,494,494
733,496,494,495,493
523,496,493,495,494
351,494,493,494,493
219,495,493,495,492
176,493,494,495,494
193,493,493,494,492
245,494,494,494,492
352,494,494,494,491
501,494,494,494,492
653,494,494,493,491
823,495,494,493,492
864,495,494,494,493
818,496,494,495,493
647,495,493,496,493
444,495,493,495,494
282,496,493,495,492
197,495,493,495,493
177,493,494,494,493
211,495,494,494,493
290,494,494,494,492
416,494,494,493,492
569,494,494,494,492
735,495,494,493,491
863,495,494,495,493
850,495,494,494,493
757,495,493,494,494
551,496,494,495,493
373,496,494,495,493
228,495,493,494,493
177,495,493,494,494
190,493,494,495,492
235,495,494,493,493
338,493,494,494,492
482,494,494,493,492
632,494,494,493,491
807,494,494,493,492
867,495,494,494,494
827,496,494,496,494
677,496,494,496,493
466,496,493,496,493
303,496,494,494,493
200,494,493,495,492
176,494,493,494,492
205,494,493,494,493
273,494,494,495,492
395,494,494,494,492
546,494,494,493,491
713,494,494,494,492
852,494,494,494,492
855,495,494,494,492
780,496,494,495,493
580,496,493,495,493
392,496,493,495,494
237,495,493,495,493
182,495,493,494,493
185,494,494,494,493
225,494,494,494,493
321,493,494,494,492
460,493,494,494,492
614,495,494,494,491
789,494,494,494,492
868,494,494,493,491
839,495,494,495,492
703,496,493,495,493
491,494,493,496,493
323,494,493,496,493
208,494,493,494,493
173,494,494,494,493
201,494,493,495,493
261,494,494,494,493
378,493,494,493,492
526,494,494,493,491
684,494,494,493,491
838,494,494,494,492
858,495,494,493,492
794,496,493,496,494
608,495,493,495,494
413,495,493,496,494
257,495,493,494,493
187,495,493,495,493
183,494,494,494,492
217,494,494,494,491
308,494,494,494,492
442,495,494,494,492
592,494,494,495,492
765,495,494,493,493
866,495,494,494,492
841,495,494,494,493
727,495,493,495,493
516,496,493,496,493
345,495,494,495,494
214,494,493,495,492
175,494,493,495,493
195,493,494,494,493
248,494,494,494,493
358,493,494,494,492
505,494,494,494,492
661,495,494,493,492
830,495,494,494,492
864,495,494,495,491
815,495,494,494,493
639,496,494,494,492
438,495,493,496,494
276,495,493,495,493
193,494,493,495,493
179,494,494,495,493
211,494,494,495,493
294,493,494,495,492
421,494,494,493,492
573,494,494,493,491
747,495,494,494,492
862,495,494,494,492
847,496,494,493,492
749,496,493,495,494
541,495,494,495,494
364,495,494,495,493
224,495,493,494,493
179,494,493,494,492
191,495,493,493,493
240,493,494,494,492
341,495,494,494,492
484,494,494,494,492
637,493,494,493,492
812,494,494,493,492
868,495,494,495,492
827,496,494,496,492
666,495,494,496,494
458,495,494,495,494
296,495,493,495,493
200,494,493,495,493
176,494,494,494,494
208,495,494,494,492
280,494,494,493,492
401,493,494,493,491
551,495,494,493,492
720,494,494,492,493
857,494,494,495,493
854,496,494,496,492
772,495,494,497,492
573,496,494,496,494
387,495,493,495,493
233,494,493,495,492
183,494,493,494,493
185,495,494,494,493
227,494,494,495,493
326,494,494,493,492
465,494,494,494,492
618,494,494,493,492
794,495,494,494,492
870,495,494,493,494
836,497,494,495,492
696,495,494,495,493
484,495,493,495,494
316,495,493,495,493
205,494,493,495,493
175,494,493,494,493
202,495,493,496,494
265,494,494,495,493
381,494,494,494,492
531,494,494,495,492
694,495,494,493,491
843,495,494,495,493
856,494,494,493,495
790,495,494,495,495
601,496,493,496,493
406,495,493,495,493
251,495,493,495,493
186,493,493,495,493
183,494,494,496,493
221,495,494,494,492
311,495,494,494,492
446,494,494,494,493
600,495,494,494,491
773,495,494,494,492
868,495,494,495,492
843,494,494,495,493
721,495,494,495,493
507,496,493,496,494
338,495,494,496,494
215,494,493,495,493
174,494,493,495,494
197,494,493,496,493
253,494,494,494,493
363,495,494,494,492
511,494,494,493,492
668,494,494,494,492
835,494,494,494,494
865,495,494,494,493
813,496,494,495,493
631,496,493,496,493
429,495,493,496,494
269,495,493,495,494
193,495,493,495,492
180,494,494,495,492
213,494,494,496,492
298,494,494,494,492
426,494,494,494,492
577,495,494,493,491
753,494,494,493,492
865,494,494,495,493
848,495,494,494,493
748,495,494,496,493
535,495,493,496,493
360,496,494,496,494
222,494,493,494,493
178,494,494,495,494
193,495,494,494,494
243,495,494,494,492
348,494,494,493,492
492,495,494,495,492
644,493,494,494,491
819,495,494,494,492
866,495,494,495,492
825,495,494,495,493
658,496,493,496,492
449,495,494,496,493
287,495,493,494,492
198,495,493,494,493
176,494,493,496,492
207,494,493,493,493
284,495,494,494,492
405,494,494,494,492
557,494,494,494,492
728,494,494,493,492
858,495,494,495,492
853,495,494,493,492
767,496,493,496,494
562,496,493,495,494
378,495,494,496,493
231,494,493,496,493
182,495,494,494,492
188,494,494,494,493
230,495,494,495,493
332,495,494,494,492
472,495,494,494,492
625,494,494,493,491
799,494,494,494,492
868,495,494,495,492
833,495,494,494,493
687,496,494,496,493
479,495,494,495,494
314,496,494,495,493
204,494,493,496,493
176,495,494,495,492
203,494,494,494,493
268,494,494,495,492
386,494,494,494,492
535,493,494,493,491
700,494,494,494,491
846,495,494,495,492
856,495,494,494,492
786,496,494,496,494
592,496,493,495,494
401,495,494,495,494
244,495,493,496,493
183,495,493,495,492
183,494,494,494,492
220,494,494,494,493
316,494,494,494,493
451,494,494,494,491
605,494,494,494,491
782,494,494,494,491
867,495,494,494,492
838,496,494,494,491
714,496,493,496,494
499,496,493,496,494
329,495,493,496,492
213,494,493,494,494
175,495,494,494,493
198,495,494,495,492
257,494,494,495,491
368,494,494,496,492
515,494,494,495,491
676,495,494,494,492
836,495,494,494,492
861,495,494,493,494
809,495,493,496,494
622,495,494,496,493
421,495,493,495,493
264,495,493,494,494
192,494,493,495,493
181,493,494,495,493
217,493,494,495,492
301,494,494,495,492
431,493,494,494,493
582,495,494,494,491
757,494,494,494,491
866,495,494,495,492
847,495,494,495,493
737,496,494,495,494
529,495,494,497,494
355,496,493,495,493
220,494,494,495,494
177,494,493,495,493
192,493,494,494,493
243,493,494,495,492
350,495,494,494,492
499,494,494,493,491
649,494,494,493,491
822,494,494,493,493
866,496,494,495,492
820,497,494,496,494
653,495,493,496,493
447,495,493,495,494
284,494,493,497,493
198,493,494,496,494
176,495,494,494,491
208,493,494,496,492
285,493,494,493,491
406,493,494,493,492
560,494,494,495,491
740,495,494,495,493
865,496,494,495,491
852,496,494,497,493
763,496,494,497,493
555,495,494,495,493
364,495,493,496,492
230,495,493,494,492
184,493,493,496,493
193,493,493,496,492
237,495,494,495,493
336,495,494,494,493
472,496,494,494,490
626,496,494,494,490
807,494,494,494,494
872,496,494,495,492
835,496,494,495,494
682,496,494,497,495
463,496,493,496,493
302,494,493,495,493
205,494,494,494,492
176,495,494,495,492
208,495,494,496,492
273,493,494,495,492
393,494,494,494,492
544,493,494,493,491
709,494,494,495,491
851,494,494,495,493
855,494,494,496,492
780,496,494,495,494
584,496,494,495,494
400,495,493,496,494
243,495,493,494,492
182,494,493,494,493
185,494,494,496,493
224,495,494,495,491
320,494,494,494,493
460,493,494,494,492
612,494,494,493,493
786,494,494,495,491
868,495,494,495,491
836,494,494,495,494
706,496,494,496,495
495,496,493,496,493
323,495,493,495,492
209,494,494,495,493
173,493,494,496,493
199,495,494,495,492
257,494,494,495,493
373,494,494,494,492
517,495,494,494,493
687,494,494,494,491
840,494,494,494,492
860,496,494,493,494
798,496,493,495,494
615,496,493,496,492
411,496,494,496,493
255,495,493,495,492
191,494,493,494,493
181,495,494,495,492
217,494,494,495,492
305,494,494,494,492
434,494,494,493,491
587,494,494,492,492
765,494,494,495,491
867,495,494,494,493
843,494,494,495,494
733,496,493,496,493
519,496,494,495,494
346,495,494,496,495
219,495,493,494,493
177,494,494,495,492
196,494,494,493,493
248,494,494,494,492
357,494,494,495,493
507,495,494,494,492
658,495,494,494,491
825,494,494,495,493
865,495,494,495,492
819,495,493,495,493
642,495,494,496,493
445,495,494,495,494
284,494,493,495,492
194,495,493,494,492
178,493,493,495,493
211,494,493,494,492
291,493,494,494,491
418,494,494,494,492
570,495,494,494,491
739,494,494,493,491
861,495,494,494,492
847,496,494,496,491
758,496,494,495,493
548,495,493,495,494
368,495,493,495,493
224,495,494,495,492
180,495,493,494,491
190,494,494,495,492
237,495,494,494,492
339,494,494,495,491
481,494,494,493,492
633,495,494,493,492
809,495,494,494,492
866,494,494,495,492
827,496,494,495,493
671,497,494,495,493
462,496,494,495,494
299,495,493,495,493
201,493,493,495,492
176,493,494,495,492
206,494,494,494,492
276,494,494,493,492
397,494,494,494,492
550,494,494,494,492
717,495,494,493,492
853,494,494,495,491
854,495,494,495,494
776,496,493,495,494
576,495,494,496,493
391,496,494,495,494
237,495,493,494,494
181,495,493,494,494
185,495,494,495,493
227,495,494,494,493
324,495,494,494,493
464,494,494,494,492
616,494,494,492,491
790,494,494,494,492
867,495,494,494,493
837,495,494,494,492
716,495,494,496,493
537,495,493,495,493
372,495,493,495,493
223,495,493,495,493
153,493,494,494,493
184,494,494,493,493
256,494,494,495,492
412,493,494,494,492
567,494,494,493,492
713,495,494,494,492
813,494,494,495,492
836,496,494,495,492
777,494,493,495,493
624,495,493,496,493
451,495,493,496,493
289,494,493,495,493
166,495,494,495,493
155,495,494,493,494
195,494,494,495,493
312,494,494,493,492
478,494,494,493,492
628,494,494,494,492
758,495,494,494,491
839,494,494,494,494
817,496,493,495,493
718,495,494,495,493
544,495,493,495,492
375,495,493,495,494
227,495,493,495,494
143,495,493,494,493
170,494,493,495,492
233,494,494,493,492
383,494,494,494,492
543,494,494,494,492
690,494,494,494,492
798,494,494,494,491
835,495,494,495,492
792,494,493,494,493
644,495,493,495,493
468,496,494,494,494
308,495,493,496,493
178,494,494,494,492
149,494,493,495,492
189,494,494,495,491
292,494,494,494,493
455,493,494,493,492
609,494,494,494,491
745,494,494,493,492
834,494,494,494,493
823,495,494,495,492
736,496,494,495,494
565,495,494,494,492
399,495,493,495,494
242,495,493,496,494
146,495,493,494,493
163,494,494,495,492
222,494,494,493,492
361,494,494,493,492
523,495,494,494,493
672,495,494,493,493
784,495,494,493,493
840,495,494,494,493
805,496,494,495,493
665,496,494,496,494
492,496,493,495,493
328,496,493,495,494
189,495,493,495,494
145,494,493,494,494
182,493,494,494,493
272,494,494,493,492
432,495,494,494,492
588,494,494,494,492
729,494,494,494,491
827,495,494,495,491
828,497,494,494,492
755,496,493,495,494
592,496,493,496,493
419,495,493,495,494
261,494,493,495,494
151,495,493,494,493
159,494,494,494,491
205,494,494,494,492
339,493,494,493,492
502,494,494,494,493
654,494,494,494,491
774,495,494,493,491
841,495,494,495,493
808,495,494,494,493
690,495,493,495,493
513,495,493,495,494
349,495,493,495,494
207,494,494,494,492
145,495,493,495,494
178,494,494,495,492
254,495,494,494,492
412,495,494,493,492
569,494,494,492,492
712,494,494,494,491
813,494,494,494,493
831,496,494,494,493
768,495,493,494,494
611,495,493,495,493
439,496,494,496,494
282,495,493,494,494
161,493,493,494,494
155,493,494,493,492
198,495,494,494,492
319,494,494,494,492
482,495,494,494,491
633,494,494,493,491
761,494,494,493,491
838,495,494,494,492
814,496,494,495,492
709,496,493,495,494
535,495,494,495,493
367,494,494,495,493
218,494,493,495,493
144,494,493,494,492
169,495,494,495,493
238,494,494,494,493
387,493,494,493,492
544,494,494,493,491
692,494,494,494,491
803,495,494,495,493
831,495,494,493,492
786,496,494,495,494
636,496,494,495,494
460,496,493,496,493
297,494,494,495,494
171,494,493,494,493
150,494,493,494,493
190,495,494,494,492
296,494,494,493,492
460,494,494,494,492
610,494,494,493,492
744,495,494,494,492
834,495,494,494,493
819,496,494,495,493
729,496,493,495,494
556,495,494,495,494
387,495,493,495,494
233,495,493,496,493
145,494,493,494,492
163,494,494,495,492
223,495,494,494,492
362,494,494,494,493
524,493,494,493,492
670,494,494,493,491
780,495,494,494,492
832,495,494,495,491
795,495,494,495,493
654,495,494,495,493
478,496,494,495,494
315,496,494,495,493
180,494,493,496,494
141,494,493,495,493
179,494,494,494,492
272,494,494,495,493
435,494,494,494,491
589,495,494,493,492
729,494,494,494,492
827,495,494,494,493
823,494,494,494,493
747,495,493,495,493
581,495,494,496,494
411,495,493,495,494
252,495,494,495,493
144,493,493,495,492
157,494,493,493,492
207,493,494,494,493
338,494,494,494,492
505,495,494,494,491
654,494,494,493,493
774,495,494,494,492
842,495,494,495,492
809,494,494,494,492
681,495,494,495,493
506,495,494,495,493
340,495,493,495,493
197,495,493,495,492
144,495,493,495,492
176,495,494,495,493
258,494,494,494,493
417,494,494,493,491
571,494,494,494,491
716,495,494,493,493
818,495,494,494,493
828,496,494,495,494
767,495,494,495,493
606,496,494,496,494
432,496,493,495,494
273,496,493,495,493
156,495,494,494,492
156,495,493,494,493
199,494,494,494,493
323,494,494,493,492
487,493,494,494,492
639,495,494,494,492
765,496,494,493,492
842,496,494,495,493
817,496,494,494,493
705,495,494,495,492
529,495,493,495,493
363,495,493,496,494
216,495,493,494,492
145,494,493,496,493
172,495,494,494,493
244,494,494,494,491
394,492,494,493,491
552,493,494,493,493
699,494,494,494,492
807,495,494,495,492
834,496,494,495,493
784,495,494,495,493
632,495,494,495,494
454,496,493,495,493
292,496,494,494,493
164,496,494,494,494
153,495,494,493,493
191,495,494,494,493
301,494,494,494,493
461,494,494,494,492
614,494,494,494,491
748,494,494,494,491
842,495,494,494,493
824,495,494,495,493
729,495,494,495,493
555,496,493,495,493
388,495,494,496,493
233,495,493,495,493
147,494,493,494,493
169,494,493,493,492
227,495,494,494,492
372,494,494,493,491
535,494,494,493,493
684,494,494,493,492
794,494,494,494,491
838,495,494,494,493
798,495,494,495,493
656,495,494,496,492
478,496,494,496,493
315,495,493,495,493
180,496,494,494,493
149,494,493,494,493
184,494,494,494,492
283,494,494,494,492
446,494,494,493,491
600,494,494,493,491
738,494,494,494,492
834,495,494,494,491
826,495,494,494,492
737,496,494,495,493
532,495,494,495,493
337,495,494,496,493
218,495,493,494,493
173,495,494,495,492
172,493,494,491,497
228,494,494,493,493
329,494,494,494,492
450,495,494,493,492
623,494,494,493,491
805,494,494,493,492
868,495,494,493,494
828,496,494,495,492
674,497,493,496,493
454,497,494,496,494
277,495,493,495,494
206,495,493,494,493
178,494,493,495,492
208,495,494,494,492
273,495,494,493,492
391,494,494,494,492
514,495,494,493,491
718,495,494,493,491
858,495,494,495,492
858,495,494,494,491
806,496,494,496,492
632,495,494,497,495
358,495,493,495,493
232,496,493,495,494
179,494,493,495,492
183,494,494,495,492
222,495,494,493,492
330,494,494,493,493
450,495,494,493,492
611,495,494,494,492
786,494,494,494,492
866,495,494,495,493
832,496,494,494,493
700,496,494,496,493
511,496,494,496,494
349,495,493,496,493
206,494,493,495,493
167,495,493,494,493
193,494,493,495,493
253,495,494,494,492
369,494,494,494,491
522,495,494,494,492
684,495,494,493,491
837,496,494,494,492
856,496,494,494,493
795,497,494,495,493
626,496,494,495,493
439,495,494,496,494
277,496,493,495,493
176,495,493,494,492
171,493,494,494,492
209,494,494,495,492
322,495,494,495,491
483,495,494,494,493
634,495,494,494,492
764,495,494,494,492
846,494,494,495,493
825,496,494,495,493
724,496,494,496,493
551,495,494,496,493
384,496,493,496,493
232,495,493,495,494
147,494,493,495,493
169,495,493,494,493
229,494,494,495,493
367,494,494,494,491
521,495,494,493,492
666,495,494,494,492
809,495,494,495,492
847,496,494,496,491
803,496,494,495,492
629,496,494,495,493
439,495,493,495,493
274,496,494,495,494
181,494,493,495,493
168,494,493,494,493
204,494,494,494,492
285,494,494,494,492
412,494,494,494,492
567,495,494,495,491
742,495,494,493,492
859,495,494,495,492
844,496,494,495,492
751,496,494,495,494
539,496,494,495,494
362,495,493,495,494
224,494,493,494,493
178,494,493,494,492
190,495,494,494,493
240,494,494,495,493
341,495,494,493,492
491,494,494,494,492
642,495,494,493,492
811,494,494,495,493
865,495,494,495,491
827,495,494,496,493
666,497,494,495,494
474,496,493,496,492
311,494,493,495,492
195,493,493,495,492
170,494,493,495,492
203,495,494,494,492
276,494,494,493,492
417,494,494,494,492
568,495,494,493,491
711,494,494,494,492
850,495,494,494,491
848,497,494,493,493
767,496,493,495,494
583,496,494,495,493
405,496,494,495,494
244,495,493,495,493
172,494,493,494,492
179,494,494,494,493
222,494,494,494,492
325,495,494,493,492
476,494,494,494,492
624,495,494,493,492
785,495,494,493,491
863,497,494,495,492
830,495,494,494,493
690,497,494,495,494
487,495,493,495,494
318,496,493,495,494
202,496,493,494,493
171,495,493,494,494
199,494,493,494,493
262,495,494,494,492
380,494,494,493,491
530,494,494,493,492
692,494,494,493,491
840,495,494,494,493
855,496,494,493,492
786,496,494,495,493
600,496,494,495,493
409,496,494,495,494
251,495,493,495,494
187,494,493,494,492
183,496,493,495,493
219,496,494,494,492
311,494,494,494,492
451,494,494,494,491
603,495,494,494,492
771,495,494,494,491
866,496,494,494,492
840,496,494,493,493
719,497,494,495,494
517,497,494,495,493
346,495,493,495,493
211,495,493,494,493
172,494,493,495,492
193,495,493,494,492
251,494,494,494,492
370,494,494,494,492
521,495,494,493,492
669,495,494,493,491
829,495,494,493,493
859,495,494,495,493
810,496,494,495,494
630,496,494,495,493
441,496,493,495,494
279,496,493,495,494
188,495,493,495,492
176,495,494,495,493
210,495,494,494,492
293,494,494,494,493
432,495,494,495,493
582,494,494,494,491
747,495,494,494,491
861,496,494,494,493
844,494,494,495,493
744,496,494,496,493
538,496,494,495,494
364,496,494,495,493
220,495,493,494,493
177,494,494,494,492
189,494,494,495,492
240,495,494,493,492
346,495,494,494,492
494,495,494,493,491
646,495,494,494,492
815,495,494,493,492
864,495,494,495,492
825,495,494,495,493
657,496,494,496,494
457,496,494,496,494
293,495,494,496,493
196,495,493,495,492
176,494,494,495,493
207,495,493,494,492
281,495,494,495,492
413,495,494,494,491
564,495,494,495,491
724,495,494,493,491
856,496,494,494,492
848,496,494,494,494
764,496,494,495,492
565,496,493,495,493
386,496,494,495,494
231,496,493,494,493
180,495,493,494,492
184,494,494,494,492
230,495,494,494,492
331,495,494,494,492
475,496,494,494,491
625,495,494,493,490
796,495,494,494,492
865,496,494,494,493
830,496,494,496,493
685,496,494,496,494
480,496,493,495,494
317,495,493,496,494
204,494,493,494,494
174,495,494,494,492
201,495,493,495,494
267,495,494,494,492
390,494,494,494,492
539,494,494,494,491
699,495,494,493,491
843,495,494,494,492
853,496,494,494,492
784,496,494,496,493
593,496,494,496,493
408,495,494,496,493
250,496,494,495,493
183,495,493,495,492
182,495,494,496,492
221,495,494,494,493
313,494,494,493,491
458,494,494,494,492
608,494,494,494,491
776,495,494,494,492
865,496,494,494,493
836,497,494,496,494
712,497,494,495,494
506,497,494,496,493
336,496,493,496,493
209,494,493,495,493
174,494,494,494,493
198,494,493,495,492
255,495,494,495,492
371,494,494,495,492
520,495,494,494,492
673,495,494,493,491
833,495,494,494,493
858,496,494,494,493
805,496,494,495,493
621,496,494,496,494
427,497,494,496,494
268,496,494,495,492
192,495,494,494,492
180,494,493,495,493
215,495,494,494,493
301,494,494,494,492
437,495,494,494,492
584,494,494,494,491
753,494,494,493,491
862,496,494,495,492
842,496,494,495,493
737,496,494,495,493
533,496,494,495,493
359,496,494,496,494
220,495,493,496,492
176,495,493,495,492
194,494,494,494,492
244,494,494,495,492
352,495,494,494,493
500,495,494,493,492
652,495,494,495,491
821,495,494,493,492
862,496,494,495,494
818,496,494,494,492
650,496,494,496,493
451,496,494,495,493
291,496,493,494,492
196,494,493,495,492
177,495,494,495,493
210,494,493,494,493
286,495,494,495,493
416,494,494,494,492
568,495,494,494,491
732,495,494,494,492
859,494,494,494,491
846,495,494,494,492
759,496,494,495,493
560,496,494,495,493
380,496,493,496,493
227,495,493,495,493
179,495,493,495,492
188,495,494,495,492
231,493,494,494,493
336,494,494,493,492
482,494,494,494,491
632,495,494,493,491
801,495,494,494,492
862,496,494,494,490
829,497,494,494,493
678,497,494,496,494
470,496,493,495,493
306,495,494,496,493
202,496,493,495,493
177,495,493,494,493
203,495,493,494,492
272,494,494,494,493
393,494,494,494,492
544,495,494,494,492
706,494,494,494,490
846,495,494,494,491
852,495,494,495,493
780,497,494,496,493
585,496,493,496,494
401,496,494,495,493
246,496,494,496,492
182,494,493,495,492
184,494,494,494,493
224,494,494,495,492
320,495,494,494,491
464,494,494,494,492
614,494,494,493,490
780,496,494,494,491
865,495,494,495,492
834,496,494,496,493
704,496,494,496,494
504,496,494,497,495
334,495,493,495,492
207,495,494,495,492
172,494,494,495,492
198,496,494,495,493
258,495,494,495,492
377,495,494,494,492
527,494,494,494,491
679,495,494,493,491
835,496,494,495,493
856,496,494,494,492
798,497,494,497,493
612,496,494,496,494
422,496,493,496,493
260,496,494,496,493
187,495,494,495,492
181,495,494,495,492
216,495,494,494,493
304,494,494,494,493
439,495,494,494,492
589,494,494,494,491
761,495,494,494,491
862,496,494,495,493
841,497,494,496,493
728,495,494,496,494
521,497,494,495,493
349,496,494,495,493
218,496,493,495,493
177,494,493,495,492
194,494,493,495,492
247,494,494,494,491
360,494,494,494,492
506,494,494,495,492
657,495,494,494,490
824,494,494,495,491
862,496,494,495,493
817,497,494,495,493
642,496,494,496,493
446,496,494,496,494
287,496,493,496,492
194,495,493,495,492
177,496,494,496,492
211,495,494,494,492
291,496,494,494,491
425,495,494,494,492
573,495,494,494,492
737,495,494,495,492
858,496,494,495,492
844,495,494,495,491
754,496,494,496,493
552,495,493,496,494
374,495,493,496,493
225,495,493,495,493
178,494,493,494,492
189,494,494,494,493
237,494,494,495,492
339,495,494,495,492
486,494,494,494,491
637,494,494,495,491
806,494,494,494,493
863,495,494,495,492
825,497,494,496,493
670,496,494,496,494
467,496,493,496,494
304,495,494,496,494
199,495,493,495,492
176,495,493,495,493
206,495,494,494,492
277,494,494,495,492
402,494,494,494,491
553,494,494,494,491
713,494,494,494,492
850,495,494,495,492
849,496,494,497,492
774,497,494,496,493
577,496,493,497,493
392,496,493,497,494
237,495,493,495,493
181,495,493,495,493
185,494,493,494,493
225,494,494,494,493
324,494,494,494,492
467,495,494,494,492
616,494,494,494,492
786,494,494,494,492
865,496,494,495,491
832,495,494,494,493
695,496,494,496,493
490,495,493,496,493
324,496,494,496,492
208,494,493,494,492
173,494,493,495,492
200,494,494,495,493
263,494,494,493,492
383,495,494,494,491
529,495,494,494,491
687,495,494,493,490
837,496,494,495,493
854,496,494,493,492
789,496,494,495,494
605,496,494,496,494
416,496,494,496,493
257,494,493,494,493
187,495,494,495,494
182,494,494,492,491
218,495,493,495,493
309,495,494,494,492
446,494,494,494,491
597,495,494,493,491
768,495,494,494,491
865,495,494,495,492
838,495,494,495,492
723,496,494,496,493
516,496,494,496,493
345,497,494,495,494
214,495,493,495,493
175,495,493,495,493
196,495,493,495,493
252,494,494,495,492
364,494,494,494,492
513,495,494,494,492
664,495,494,493,491
827,496,494,494,492
860,495,494,496,493
812,496,494,495,493
634,496,494,496,493
439,496,494,495,493
279,496,494,496,493
193,495,493,495,492
179,495,493,493,493
213,494,494,495,492
295,493,494,494,492
429,494,494,495,491
579,494,494,494,491
744,494,494,494,492
860,495,494,495,492
842,495,494,495,494
747,496,493,496,493
544,496,494,495,493
368,496,494,496,493
223,495,494,496,493
179,494,493,494,492
190,494,493,495,492
242,495,494,495,492
346,494,494,494,492
492,495,494,494,492
643,494,494,494,492
810,495,494,494,492
863,495,494,496,494
822,495,494,496,493
660,496,494,497,493
459,495,494,495,494
297,495,493,495,494
198,495,493,494,493
175,495,493,496,492
208,495,494,493,493
280,495,494,494,492
406,495,494,495,491
556,495,494,494,492
721,495,494,495,492
856,496,494,495,493
850,496,494,496,493
768,497,494,496,493
570,495,494,495,493
389,495,494,496,492
232,495,493,496,493
179,494,493,495,493
188,494,493,494,492
228,494,494,493,492
328,495,494,494,492
473,494,494,494,491
622,494,494,494,491
793,495,494,494,493
864,495,494,495,492
830,496,494,496,493
689,495,494,495,492
482,496,494,496,494
317,495,494,496,492
206,494,494,496,493
176,495,493,494,493
203,494,493,495,492
266,494,494,495,492
385,494,494,495,492
535,494,494,494,493
696,494,494,494,492
840,494,494,494,493
854,496,494,494,492
784,496,494,496,493
595,496,493,496,493
409,496,494,496,494
253,495,493,494,493
187,494,493,495,492
183,494,493,495,492
219,494,494,494,492
315,495,494,494,492
452,495,494,494,491
601,495,494,494,491
773,495,494,495,492
865,495,494,494,492
835,496,494,497,493
714,495,493,496,492
506,495,493,497,493
335,495,494,496,496
215,497,493,494,493
176,495,494,497,490
197,496,494,494,493
256,495,494,493,491
362,497,494,495,490
506,493,494,493,494
673,496,494,493,489
831,496,494,497,494
859,497,494,495,492
809,498,494,498,492
627,498,494,498,495
414,496,494,495,492
257,496,494,493,491
198,493,494,494,491
183,492,494,496,491
217,495,494,495,495
302,492,494,493,494
417,495,494,496,491
569,493,494,495,491
756,495,494,493,493
868,496,494,494,493
846,493,494,496,493
745,494,494,496,491
532,495,494,495,493
348,494,493,497,493
229,493,494,495,494
187,493,493,496,493
200,496,494,495,493
248,495,494,493,492
352,493,494,493,492
490,494,494,493,491
645,494,494,493,493
821,495,494,493,491
866,497,494,496,493
823,495,494,495,494
655,497,494,496,493
451,496,493,495,493
292,496,494,495,494
202,494,493,494,493
182,494,493,495,493
212,495,494,494,492
287,494,494,495,492
416,494,494,494,491
565,495,494,493,491
727,495,494,493,493
857,495,494,495,492
848,494,494,496,494
762,496,494,495,493
565,497,494,496,494
386,496,494,496,494
231,495,493,495,493
181,495,494,494,492
188,493,494,494,492
232,494,494,494,492
331,494,494,494,492
478,495,494,494,492
628,494,494,494,490
798,495,494,493,492
865,496,494,495,493
829,496,494,496,493
682,496,494,495,493
476,496,494,495,493
311,496,494,495,494
204,495,493,495,492
177,495,494,494,492
204,495,494,494,493
271,495,494,493,492
389,494,494,494,491
537,494,494,494,492
703,495,494,493,492
844,496,494,495,492
853,496,494,496,494
782,495,494,495,493
587,496,494,495,494
401,496,493,495,494
245,496,493,494,493
185,495,493,494,494
185,494,494,493,492
223,494,494,494,492
318,494,494,494,493
461,494,494,494,491
608,495,494,494,491
778,494,494,494,492
865,497,494,494,493
833,495,494,494,494
709,496,494,496,493
503,497,493,496,495
334,496,493,495,493
211,497,494,495,492
175,496,493,495,493
199,496,494,494,493
258,495,494,494,492
375,494,494,494,493
521,495,494,494,492
672,495,494,493,492
833,495,494,495,492
856,496,494,494,491
800,495,494,496,493
618,496,493,496,494
424,496,493,495,493
267,494,493,496,492
192,494,493,494,492
181,493,494,494,491
217,494,494,494,492
305,494,494,494,491
436,494,494,495,491
585,494,494,494,491
756,495,494,494,492
862,495,494,495,493
838,496,494,494,492
734,497,494,496,494
526,496,494,497,492
354,496,494,495,492
218,495,493,494,493
178,493,493,495,492
196,495,494,494,493
246,494,494,495,491
353,494,494,494,492
499,493,494,494,492
651,495,494,494,492
821,495,494,495,492
860,495,494,494,494
817,497,494,495,493
645,496,494,495,493
444,495,494,496,494
283,495,493,495,492
198,495,493,494,493
179,494,493,495,492
212,495,494,495,492
289,495,494,494,493
421,494,494,494,492
570,494,494,494,492
733,495,494,494,491
858,495,494,495,492
846,496,494,495,492
758,496,493,496,494
557,495,494,495,493
380,496,493,496,493
227,495,493,496,493
180,493,493,495,493
190,494,494,495,493
236,494,494,494,493
339,494,494,493,492
486,494,494,494,491
634,494,494,493,491
799,494,494,494,492
861,496,494,496,492
825,495,494,495,493
671,497,494,495,493
472,496,494,495,493
309,497,493,496,494
201,495,493,495,493
177,493,494,495,493
206,494,493,494,493
274,495,494,494,492
396,494,494,495,492
545,495,494,494,492
708,494,494,494,491
846,495,494,495,492
850,496,494,494,493
779,495,494,494,494
581,496,493,496,494
398,495,493,495,494
242,495,493,495,494
183,495,493,494,492
187,493,494,495,492
226,495,494,494,492
321,495,494,494,491
463,494,494,494,491
615,495,494,493,492
785,495,494,495,491
863,495,494,495,492
832,496,494,495,492
701,497,494,495,494
497,495,493,496,493
329,495,493,495,493
208,494,493,494,492
175,495,493,494,492
202,495,493,495,492
259,495,494,494,492
381,494,494,494,493
530,495,494,495,492
681,494,494,494,491
835,494,494,494,492
855,496,494,494,491
790,496,494,496,493
609,496,494,496,493
420,496,493,496,493
262,495,494,495,493
189,494,493,495,493
183,494,494,496,491
218,494,494,495,493
308,494,494,494,492
444,494,494,494,492
593,494,494,493,492
760,495,494,493,491
862,496,494,495,493
839,497,494,495,493
724,497,494,496,493
519,496,494,496,493
350,495,494,495,494
217,494,493,495,493
177,494,493,495,492
196,495,493,494,493
248,494,494,494,492
360,495,494,494,491
506,494,494,494,492
658,494,494,494,492
827,496,494,495,492
861,495,494,494,492
814,495,494,495,492
639,496,494,496,494
443,495,494,496,493
283,495,493,495,493
194,495,493,495,493
180,494,493,495,493
214,495,494,494,492
293,495,494,495,493
427,495,494,494,492
576,494,494,494,492
740,495,494,494,493
858,494,494,494,492
843,495,494,496,494
751,496,494,496,495
549,496,493,496,493
374,497,493,496,493
225,495,493,495,493
181,494,494,495,492
191,495,493,494,494
239,494,494,494,492
343,494,494,493,492
490,495,494,494,492
640,494,494,494,491
806,494,494,494,492
863,495,494,495,493
824,495,494,495,493
665,497,494,496,493
464,496,493,495,493
302,495,494,495,493
200,494,493,494,494
177,494,493,495,493
208,494,494,494,492
278,494,494,494,492
404,494,494,493,491
553,495,494,495,491
714,494,494,495,491
850,494,494,495,492
848,493,494,494,493
771,495,493,496,495
574,496,494,496,494
393,495,493,495,493
237,495,493,495,493
181,494,493,494,492
186,494,494,495,492
228,494,494,494,492
328,494,494,494,492
471,494,494,494,492
621,493,494,494,492
790,495,494,494,491
864,497,494,495,492
829,495,494,495,492
693,496,493,495,493
490,496,493,495,493
324,495,493,496,493
207,494,493,495,493
174,494,493,495,492
200,494,493,494,492
263,493,494,494,492
385,493,494,494,492
534,494,494,495,492
689,494,494,495,491
837,494,494,494,492
852,495,494,495,494
787,496,493,495,493
601,495,494,496,494
413,495,493,496,493
254,495,493,496,493
188,494,493,494,491
184,495,494,495,492
221,494,494,494,493
310,494,494,494,491
449,494,494,494,492
601,495,494,494,491
768,494,494,495,491
862,495,494,495,493
836,495,494,494,493
718,495,494,495,493
511,496,494,496,493
341,495,494,496,493
214,495,493,494,493
177,495,494,494,492
197,494,493,495,492
251,495,494,495,493
367,494,494,494,492
514,495,494,494,493
664,494,494,494,493
828,496,494,495,492
857,495,494,495,491
809,497,494,495,493
631,496,493,496,493
438,495,493,496,493
278,495,493,496,493
194,494,493,495,492
180,495,493,496,491
214,495,494,494,492
296,495,494,494,492
431,494,494,494,492
577,494,494,494,491
744,495,494,493,491
860,495,494,496,493
842,496,494,494,492
745,496,494,495,494
540,496,493,495,493
366,495,493,496,493
222,494,493,495,492
180,495,493,495,493
192,495,493,494,493
243,494,494,494,492
347,494,494,493,491
493,494,494,494,492
645,495,494,493,494
813,494,494,495,491
860,495,494,496,492
820,495,494,495,492
657,496,494,496,494
459,496,494,495,495
296,495,493,495,493
198,494,493,495,493
178,495,493,495,494
208,494,493,494,491
282,494,494,494,492
411,495,494,494,492
560,494,494,493,492
722,494,494,494,492
854,496,493,496,492
846,495,494,496,493
766,496,494,496,494
566,496,494,496,494
387,496,494,496,494
233,495,493,496,493
182,494,493,494,493
189,495,494,495,492
231,494,494,495,493
330,495,494,494,492
477,494,494,494,491
625,496,494,495,491
793,495,494,493,490
863,496,494,493,491
827,495,494,496,492
683,495,494,495,493
481,495,493,496,494
316,495,494,496,495
205,495,493,494,494
177,494,494,496,493
205,493,494,493,492
269,493,494,494,491
386,495,494,494,492
533,494,494,493,491
699,494,494,495,493
843,495,494,495,492
854,497,494,494,492
783,497,494,494,492
594,496,493,495,494
395,496,494,495,495
246,495,494,494,492
189,493,493,494,492
188,494,494,494,493
226,494,494,495,493
318,493,494,496,493
442,494,494,495,492
594,493,494,495,493
784,495,494,496,491
867,496,494,495,493
841,496,494,496,491
715,497,493,496,495
497,495,493,497,494
324,496,493,497,494
218,494,493,494,493
180,495,493,494,493
203,493,494,493,491
262,494,494,495,494
367,493,494,494,490
510,495,494,496,492
680,496,494,493,493
835,494,494,496,491
860,495,494,497,494
805,496,494,494,495
623,494,493,495,495
414,496,493,495,493
261,495,493,496,494
194,494,494,496,491
185,495,494,495,493
219,494,494,493,492
305,494,494,495,492
421,493,494,494,491
567,494,494,493,489
758,496,494,493,491
865,494,494,494,494
845,496,494,494,495
743,498,494,495,492
530,498,494,496,493
340,497,494,495,494
229,495,494,494,491
187,495,494,496,494
197,493,494,495,493
250,496,494,495,491
357,496,494,495,494
481,494,494,494,491
649,496,494,493,491
820,496,494,496,492
861,495,494,494,491
821,496,494,494,494
653,495,494,496,495
440,497,494,494,495
278,496,493,496,494
201,494,494,496,494
182,493,494,495,492
215,494,494,496,491
288,494,494,496,491
405,493,494,496,494
554,493,494,493,491
735,495,494,494,490
863,497,494,495,494
847,496,494,495,495
763,497,494,497,493
555,495,494,497,492
363,496,493,494,493
235,494,494,496,494
187,493,494,494,492
193,496,494,494,491
238,496,494,496,491
340,494,494,497,494
464,493,494,494,490
622,496,494,495,493
802,493,494,497,493
867,495,494,493,494
832,498,493,497,494
680,497,494,495,496
460,496,493,495,495
298,497,494,494,493
212,493,494,497,492
187,494,493,497,492
211,493,494,494,492
277,494,494,496,491
390,495,494,494,492
531,493,494,493,489
713,493,494,496,490
851,494,494,494,495
852,496,494,495,492
780,496,494,495,494
588,497,494,496,493
388,495,493,495,493
247,496,494,497,494
193,493,494,495,491
193,493,494,493,494
230,496,494,494,494
324,494,494,493,491
443,496,494,495,494
596,494,494,495,493
785,497,494,493,493
867,497,494,495,491
836,493,494,494,494
709,494,493,494,492
493,494,494,494,492
315,496,493,497,492
216,496,493,493,494
184,495,494,496,495
207,493,494,494,493
262,494,494,492,490
377,495,494,493,493
508,493,494,492,490
686,492,494,492,489
839,493,494,495,494
862,495,494,493,491
801,495,494,497,493
620,497,493,497,492
406,495,493,496,493
256,496,494,494,493
195,493,494,497,491
189,494,494,497,494
223,493,494,493,490
311,493,494,493,492
429,496,494,495,493
580,494,494,494,491
768,494,494,494,493
865,497,494,494,493
844,495,494,494,493
736,496,493,496,493
520,496,494,496,493
342,495,494,495,493
226,495,494,495,494
184,495,493,493,492
201,494,493,494,492
251,495,494,494,492
359,495,494,494,491
502,495,494,494,491
657,494,494,494,492
825,495,494,493,491
863,495,494,496,493
817,496,494,496,494
645,495,493,497,494
450,496,493,496,494
290,496,493,496,493
194,494,493,496,492
183,494,493,496,492
212,496,494,495,492
293,493,494,496,492
413,494,494,495,490
561,495,494,494,492
737,496,494,493,490
861,494,494,495,491
846,495,494,494,492
756,495,493,496,495
548,496,493,497,494
355,495,494,495,495
234,495,494,495,493
187,494,493,494,491
198,494,494,495,491
244,493,494,496,491
345,494,494,494,492
463,494,494,494,492
632,494,494,493,491
810,495,494,495,492
867,495,494,496,491
830,495,493,495,493
674,497,493,497,494
486,495,494,496,493
330,496,493,496,494
198,496,493,494,493
175,495,493,494,492
205,494,493,494,491
275,494,494,495,492
402,495,493,494,492
553,494,494,494,492
709,496,494,495,491
846,496,494,495,493
847,496,494,495,493
774,496,494,496,493
599,495,494,496,494
422,496,493,496,494
262,495,494,495,492
173,495,493,495,493
178,495,493,493,494
220,494,493,494,492
345,495,494,494,493
508,494,494,494,491
653,495,494,495,492
768,495,494,494,491
843,495,494,494,491
815,495,494,495,493
688,496,494,496,493
503,496,493,496,494
333,496,494,495,493
193,495,493,495,494
163,494,493,494,493
190,494,493,494,494
252,494,494,495,492
376,495,494,494,492
522,495,494,494,492
677,495,494,494,492
829,495,494,495,492
848,496,494,497,492
783,496,494,497,493
601,495,493,496,494
406,495,493,496,493
249,496,493,494,494
189,495,493,494,493
182,495,493,494,492
219,494,494,494,493
310,493,493,494,492
436,494,494,493,491
589,495,494,493,491
767,494,494,494,491
863,496,494,494,492
837,495,494,496,493
722,496,494,495,494
516,495,493,496,493
348,496,493,495,493
216,494,493,495,492
178,495,493,494,492
197,494,493,494,493
252,495,494,494,492
371,495,494,494,491
521,494,494,493,491
669,494,494,494,493
823,495,494,494,493
855,495,494,494,494
809,497,493,495,493
641,497,493,496,494
456,496,494,496,494
294,496,493,495,493
187,495,493,494,493
175,494,494,494,493
210,494,494,495,492
294,494,494,493,492
441,494,494,494,492
587,495,494,494,490
732,494,494,494,491
848,494,494,495,492
836,496,494,495,492
743,495,493,495,493
548,496,493,495,493
375,496,493,496,494
220,495,493,495,493
174,495,493,495,493
190,494,493,495,492
237,494,494,493,492
343,494,494,493,493
490,494,494,494,491
638,495,494,493,491
805,495,494,495,493
859,496,494,495,491
818,495,493,494,494
660,496,493,495,494
458,496,494,495,494
295,496,493,495,493
200,494,493,494,493
178,495,493,496,492
208,494,493,495,492
281,494,494,494,493
403,494,494,494,492
553,495,494,493,492
718,493,494,494,491
851,495,494,495,491
847,494,494,494,492
769,497,494,496,494
573,496,493,495,495
393,496,493,496,494
237,495,493,494,494
182,495,493,494,493
188,494,493,495,493
229,495,494,494,492
330,494,494,494,491
480,494,494,494,492
627,494,494,493,491
789,494,494,494,492
861,495,494,495,493
827,496,493,495,493
688,496,494,495,493
492,495,494,495,493
326,495,493,494,495
204,495,493,494,494
174,494,493,494,493
201,494,493,495,494
265,494,494,495,492
390,494,494,494,492
540,494,494,494,491
690,494,494,494,492
834,495,494,494,492
850,495,494,494,493
780,496,493,495,493
597,496,494,496,494
411,496,494,495,495
254,496,493,495,493
186,495,494,494,492
183,494,494,495,493
221,495,494,495,492
314,494,494,493,492
452,495,494,494,491
601,495,494,494,491
770,494,494,493,492
861,496,494,495,494
834,495,494,494,493
713,496,494,495,494
507,495,493,495,493
339,495,493,495,493
214,495,493,495,494
177,495,493,495,494
199,495,493,495,492
256,495,494,494,492
367,494,494,493,492
514,494,494,494,492
667,495,494,494,492
831,495,494,495,492
858,495,494,495,492
806,495,493,496,494
626,496,493,495,494
433,496,493,495,494
274,496,493,495,493
194,495,494,495,493
183,495,494,494,492
217,495,493,494,493
300,493,494,494,492
434,493,494,494,492
582,494,494,494,491
750,495,494,495,491
859,495,494,495,492
842,497,494,496,494
742,497,494,495,494
539,496,494,496,493
364,495,493,495,494
222,494,493,494,493
178,494,493,495,492
194,495,493,494,492
244,495,494,494,493
351,495,494,494,491
499,494,494,493,492
647,494,494,495,490
814,495,494,494,493
857,496,494,496,493
817,495,493,495,493
652,496,493,495,494
454,495,493,495,492
294,494,493,496,493
200,495,493,495,494
180,494,493,495,493
211,495,494,494,493
284,495,494,494,493
412,495,494,494,492
561,494,494,493,491
723,495,494,493,492
853,495,494,494,493
845,496,494,496,492
760,496,493,496,494
561,496,494,495,494
384,495,493,495,492
233,494,493,495,494
181,494,493,495,494
188,494,493,494,492
232,494,494,494,491
333,495,494,493,491
477,494,494,494,492
626,495,494,494,492
796,495,494,494,492
862,495,494,494,492
825,495,494,495,493
682,496,493,495,494
477,496,493,495,493
316,496,493,495,493
203,494,493,495,493
178,495,493,494,492
205,493,494,494,493
271,495,494,494,492
392,494,494,494,492
539,495,494,493,492
698,495,494,492,491
842,495,494,494,492
851,495,494,496,492
780,495,494,495,494
590,495,493,496,493
404,494,493,495,493
246,495,493,495,492
185,494,493,494,493
186,494,494,494,492
224,493,494,494,493
319,495,494,493,492
457,494,494,493,492
609,495,494,494,491
776,494,494,494,491
861,495,494,495,493
836,496,494,495,492
707,496,493,496,494
502,496,493,496,493
333,495,494,495,493
213,494,493,494,493
177,494,494,494,493
201,493,494,494,492
259,494,494,495,492
374,494,494,493,492
521,494,494,495,491
674,494,494,494,491
832,494,494,494,492
856,495,494,493,491
801,496,493,495,493
617,496,494,496,493
425,495,493,494,495
268,495,493,494,494
192,494,493,495,493
182,495,494,494,492
218,495,494,493,492
304,494,494,495,492
437,494,494,495,491
584,494,494,494,492
755,493,494,493,491
861,496,494,494,491
839,496,494,496,493
732,496,493,496,494
526,495,494,494,493
356,495,493,495,493
220,494,493,495,493
180,494,493,495,492
196,495,494,493,492
247,494,494,494,492
355,494,494,494,492
501,494,494,494,491
654,494,494,493,491
821,494,494,494,492
860,495,494,496,492
816,495,493,495,492
647,496,494,495,494
450,496,494,496,494
289,496,493,495,494
197,494,493,494,494
180,495,494,494,492
212,495,494,494,492
289,494,494,494,492
419,494,494,494,492
569,494,494,494,492
732,494,494,493,492
856,494,494,495,492
842,495,494,494,493
756,496,493,495,493
552,496,493,495,493
378,496,493,496,493
230,495,493,495,492
182,495,493,495,493
190,494,494,494,492
238,494,494,495,492
338,494,494,493,492
484,494,494,493,492
633,494,494,493,491
799,495,494,493,492
864,495,494,492,493
826,495,494,494,493
671,494,494,496,494
470,495,493,495,494
310,495,493,494,492
203,495,493,494,493
178,493,493,496,494
207,495,494,494,493
275,494,494,494,492
395,495,494,494,492
544,494,494,493,492
707,494,494,493,492
847,494,494,493,492
848,494,494,494,492
776,495,494,496,493
580,495,494,496,494
398,495,493,495,493
242,494,493,494,493
184,495,493,495,493
187,494,494,494,491
225,494,494,494,492
322,494,494,494,492
464,494,494,494,492
615,494,494,493,491
784,495,494,494,492
864,495,494,494,492
831,496,494,496,492
702,496,493,494,493
497,495,493,495,494
328,495,493,496,493
210,495,493,494,492
175,494,493,496,493
201,495,494,494,492
258,494,494,495,492
374,493,494,495,493
524,494,494,493,491
683,493,494,495,490
837,496,494,495,494
855,497,494,494,492
795,496,493,498,493
611,495,494,496,492
408,494,493,495,493
252,494,493,496,492
194,493,494,493,491
186,496,494,496,491
222,496,494,496,493
309,495,494,495,493
428,494,494,495,493
578,495,494,493,493
767,496,494,494,491
864,495,494,493,492
845,496,494,496,492
729,494,494,494,493
514,497,493,496,494
337,494,493,496,492
222,496,494,497,492
185,496,494,497,492
201,495,494,496,494
255,493,494,495,490
358,492,494,492,490
497,494,494,493,492
663,493,494,496,490
830,494,494,495,491
863,497,494,493,490
818,496,494,495,494
643,497,493,496,494
437,495,493,496,492
279,495,493,496,493
202,495,493,495,492
185,494,493,495,492
217,496,494,494,492
295,495,494,494,492
422,494,494,495,491
573,494,494,493,491
743,494,494,494,491
862,495,494,495,493
846,494,494,496,492
754,495,493,496,492
551,494,494,495,494
377,496,493,496,494
225,493,494,496,493
181,494,493,495,492
193,494,493,494,494
237,493,494,493,490
343,493,494,495,491
487,495,494,494,491
638,495,494,494,490
806,495,494,494,492
861,496,494,497,493
823,495,493,497,494
667,496,493,497,494
457,495,493,496,494
296,494,493,496,493
204,494,493,495,492
179,495,493,495,494
209,495,494,494,492
281,494,494,494,491
398,493,494,494,491
547,495,494,494,492
717,494,494,494,491
851,495,494,494,493
851,495,494,496,493
775,495,493,496,493
572,496,494,496,493
389,495,493,496,494
238,495,493,495,493
185,494,493,494,493
190,495,494,494,491
228,494,494,494,493
328,494,494,495,493
468,493,494,495,492
619,495,494,494,490
788,496,494,494,491
866,496,494,492,492
831,495,494,494,491
694,495,493,495,493
491,494,494,497,495
324,494,493,496,493
209,495,493,496,494
177,495,493,493,491
201,495,493,496,491
263,493,494,494,491
378,494,494,494,492
524,495,494,494,490
692,495,494,494,492
841,495,494,495,491
856,495,494,495,490
791,495,494,495,491
604,497,493,497,493
395,496,493,495,492
252,493,494,494,492
193,495,493,495,491
186,493,493,495,492
221,493,494,495,491
312,493,494,495,494
432,494,494,494,493
588,493,494,495,490
773,496,494,494,490
869,496,494,493,493
841,496,494,495,491
721,494,494,496,494
508,494,493,497,492
333,494,493,495,493
219,494,494,494,491
181,494,494,496,492
202,494,494,495,491
255,494,494,495,492
364,494,494,494,492
508,494,494,494,492
667,493,494,494,491
831,495,494,494,491
862,494,494,494,493
814,495,494,495,493
632,496,494,496,493
439,495,493,496,493
280,495,493,495,493
195,496,493,495,493
182,493,494,495,492
217,494,494,494,492
299,494,494,495,492
441,493,494,494,492
587,495,494,494,492
742,494,494,493,492
859,495,494,494,492
842,495,494,496,493
744,496,494,496,494
550,496,493,496,493
377,496,493,497,493
220,494,493,495,492
177,495,493,494,492
191,494,494,494,493
239,493,494,494,492
347,494,494,495,492
494,493,494,494,492
643,494,494,493,491
810,494,494,493,492
860,496,494,495,494
819,495,493,495,493
658,496,493,496,493
454,495,494,496,494
290,493,494,494,492
200,493,493,493,494
180,495,494,493,492
208,495,494,494,493
283,493,494,495,492
403,494,494,493,492
553,493,494,494,492
726,495,494,494,491
855,495,494,494,492
849,497,494,496,492
767,496,493,495,494
565,495,493,496,493
382,495,493,495,494
236,494,493,496,493
185,494,493,495,493
188,494,494,495,492
232,494,494,495,492
331,494,494,494,491
474,493,494,493,493
624,494,494,494,492
795,494,494,494,493
864,495,494,494,491
830,496,494,494,493
687,496,493,495,494
489,496,494,495,493
324,495,493,495,492
206,494,493,495,493
175,494,494,495,493
203,494,494,494,491
267,494,494,495,492
396,494,494,493,492
543,493,494,494,492
690,493,494,493,492
837,494,494,494,491
849,493,494,494,494
782,494,493,495,493
593,495,493,495,493
409,495,493,495,494
252,496,493,495,493
185,495,494,495,493
184,493,493,495,492
219,494,494,494,494
315,493,494,494,492
449,495,494,494,492
599,495,494,494,492
775,495,494,494,492
864,495,494,494,492
835,494,494,495,493
712,495,494,496,493
500,495,493,496,493
331,495,493,495,492
214,495,493,495,493
178,494,493,495,492
200,494,494,494,492
256,493,494,494,492
367,494,494,494,492
512,494,494,494,492
672,494,494,493,492
833,494,494,494,492
857,495,494,493,492
806,495,493,495,493
623,495,494,496,493
428,495,493,496,494
271,495,493,494,494
194,494,493,494,493
181,494,493,494,493
217,495,494,494,493
301,495,494,494,492
442,493,494,494,492
589,494,494,494,491
748,494,494,495,492
858,495,494,494,493
842,493,494,495,494
739,494,493,496,493
537,495,494,495,493
368,495,493,496,493
220,495,493,495,492
177,493,493,495,493
192,494,493,495,493
243,494,494,495,493
353,494,494,494,490
500,494,494,495,492
649,495,494,495,490
812,494,494,493,493
860,495,494,493,491
817,496,494,496,492
651,495,493,495,494
448,494,493,495,494
287,494,493,494,491
197,494,493,496,493
180,493,493,494,491
212,495,494,496,494
285,494,494,493,494
405,495,494,494,492
554,495,494,496,490
730,495,494,494,493
856,495,494,494,491
845,494,494,496,493
763,494,494,496,494
559,495,493,495,494
367,495,493,495,493
236,494,493,495,493
186,494,493,494,493
193,494,493,495,492
236,494,494,495,492
336,494,494,494,493
472,493,494,494,492
625,494,494,494,492
802,494,494,495,492
866,494,494,493,491
830,494,494,496,493
682,496,493,496,493
480,495,493,496,494
319,494,493,496,492
204,494,493,495,493
177,493,494,496,492
206,495,494,494,493
273,494,494,494,492
410,494,494,494,492
557,495,494,495,491
700,495,494,495,491
839,495,494,494,492
847,494,494,493,494
779,495,494,496,493
593,495,494,496,493
413,495,494,496,494
254,494,493,495,493
181,494,494,494,492
181,493,493,495,493
221,494,494,495,492
316,494,494,494,492
459,494,494,494,492
606,493,494,493,490
776,495,494,493,491
861,495,494,494,491
832,494,494,496,492
702,495,493,494,494
493,495,493,496,494
326,495,493,495,493
212,495,493,495,492
175,494,493,494,493
202,494,494,494,492
258,494,494,494,492
368,495,494,495,493
514,493,494,494,491
677,494,494,494,491
835,494,494,495,491
857,495,494,494,492
797,495,494,495,493
615,495,494,495,494
420,495,494,496,494
264,495,493,496,494
193,493,493,495,492
185,494,493,494,493
218,494,494,494,494
305,493,494,495,493
443,494,494,493,491
590,494,494,494,490
759,494,494,494,492
859,495,494,494,493
839,496,494,497,492
729,494,493,497,492
530,495,493,496,493
357,495,493,495,494
218,494,493,495,492
176,494,493,495,492
194,495,494,495,493
245,494,494,493,493
359,493,494,493,492
506,495,494,493,491
654,495,494,494,490
819,494,494,495,492
856,495,494,495,492
814,494,494,495,493
642,495,493,495,493
446,495,493,495,493
286,494,493,495,494
197,494,493,494,492
179,495,494,494,493
212,494,494,495,493
289,493,494,493,492
416,494,494,495,491
566,493,494,494,491
734,495,494,493,493
857,495,494,494,492
846,493,494,495,490
755,495,494,494,491
549,494,494,495,492
366,496,493,495,495
228,493,493,494,493
184,494,493,494,495
191,493,494,494,493
239,493,494,494,492
339,493,494,495,492
462,493,494,493,492
625,493,494,495,492
806,493,494,493,492
864,494,494,495,492
829,496,494,494,493
674,495,494,496,495
454,495,494,497,493
279,494,494,494,494
209,495,493,495,492
185,494,494,497,492
212,494,494,496,492
278,495,494,493,494
395,495,494,493,493
529,493,494,494,490
720,494,494,495,493
856,496,494,493,491
857,493,494,496,490
785,496,494,494,495
581,495,494,495,493
393,495,494,497,493
243,497,494,496,492
189,494,494,496,494
190,496,494,494,492
231,493,494,493,492
327,494,494,493,491
472,493,494,493,491
621,494,494,493,492
786,494,494,494,492
865,494,494,493,490
832,495,494,496,493
700,495,493,495,494
507,494,493,497,493
341,495,493,495,494
205,494,494,495,492
173,494,493,494,493
200,495,493,495,492
260,494,494,494,492
386,494,494,494,492
534,494,494,494,492
679,493,494,493,491
830,495,494,493,492
851,495,494,494,490
790,494,493,496,494
605,496,493,495,494
414,494,493,496,494
256,494,493,495,493
188,493,493,495,492
185,493,494,495,494
220,494,494,493,492
308,494,494,495,493
435,493,494,494,492
587,494,494,493,491
765,494,494,493,491
862,495,494,495,492
839,495,494,496,493
724,495,494,496,494
512,495,493,496,494
341,494,493,495,493
219,494,493,495,493
180,494,493,494,493
199,495,493,495,493
251,493,494,495,492
360,494,494,494,491
505,493,494,494,491
661,494,494,493,491
827,495,494,495,492
862,495,494,494,491
812,495,494,495,492
639,495,493,495,493
446,495,493,496,494
284,494,493,495,493
194,493,493,495,493
181,494,493,495,493
214,495,494,494,492
294,493,494,494,492
433,493,494,494,491
581,494,494,494,491
739,494,494,494,491
855,496,494,494,492
842,496,494,494,492
749,496,494,496,494
547,495,493,495,492
373,495,494,494,493
224,494,493,495,491
178,495,494,494,492
190,494,494,496,494
241,494,494,494,492
343,494,494,494,492
484,494,494,494,492
635,494,494,494,491
806,495,494,493,492
861,495,494,495,492
824,496,494,495,493
663,495,493,495,494
455,495,493,496,494
295,495,493,495,494
203,493,493,495,493
181,494,493,495,491
210,494,494,495,492
280,494,494,494,492
400,494,494,495,493
551,494,494,495,492
720,493,494,493,493
853,495,494,494,492
849,494,494,496,492
770,495,494,496,494
572,495,493,496,494
393,495,493,496,495
238,494,493,494,493
183,495,494,494,493
190,494,494,495,493
229,493,494,495,493
327,494,494,494,492
473,495,494,495,492
621,495,494,494,493
790,495,494,495,492
865,494,494,494,492
830,497,494,496,494
692,496,494,496,493
490,496,493,496,493
322,495,493,496,493
204,494,493,494,493
177,494,493,494,493
202,494,494,494,492
264,493,494,494,492
387,494,494,495,491
534,495,494,494,491
691,494,494,494,491
836,494,494,494,493
852,495,494,494,491
786,495,494,496,493
599,496,493,496,493
408,495,494,496,494
253,495,493,495,493
189,495,493,495,492
185,493,494,494,492
222,493,494,495,492
312,495,494,493,492
447,493,494,495,493
596,494,494,494,492
769,494,494,494,491
864,494,494,495,492
836,496,494,495,492
717,496,494,496,493
505,495,493,495,493
338,494,493,495,494
218,494,493,494,493
176,494,493,495,493
199,495,493,494,492
255,493,494,495,493
362,494,494,494,492
508,493,494,494,492
667,494,494,494,491
830,494,494,495,492
861,495,494,494,491
812,494,494,496,494
630,496,494,496,493
433,495,493,496,494
275,495,494,496,494
194,494,493,495,492
183,494,493,496,492
216,494,494,494,492
297,495,494,495,492
435,493,494,495,492
582,493,494,494,491
745,494,494,493,491
859,496,494,495,492
842,496,494,495,492
742,496,493,495,494
541,496,493,496,493
366,495,493,496,494
221,494,494,495,494
180,494,493,495,493
194,493,494,495,494
243,494,494,495,493
348,494,494,494,492
496,493,494,494,491
645,493,494,493,491
812,494,494,495,493
859,495,494,494,492
818,497,494,497,494
656,496,493,496,494
454,496,493,496,494
293,494,494,495,493
199,493,494,495,493
180,494,493,495,492
209,494,494,495,494
284,492,494,494,492
407,494,494,494,492
558,493,494,494,491
723,494,494,493,491
855,495,494,495,491
848,495,494,496,494
765,495,494,494,494
562,495,493,495,493
384,494,493,495,493
234,493,493,496,494
182,495,494,495,493
190,494,494,494,493
232,495,494,496,491
331,493,494,493,492
472,495,494,495,490
620,492,494,494,490
797,496,494,495,494
865,494,494,496,494
832,493,494,495,492
685,496,493,497,493
475,495,494,496,493
312,494,493,496,494
209,493,493,494,494
180,493,494,495,492
206,496,494,494,493
271,495,494,495,493
386,494,494,494,492
529,493,494,494,494
700,492,494,494,491
842,495,494,493,491
854,493,494,496,492
783,495,494,494,494
594,494,494,495,494
395,494,493,494,495
247,494,493,495,493
188,495,493,494,493
189,493,494,494,493
224,493,494,495,494
317,494,494,494,492
447,494,494,493,492
601,494,494,493,491
778,495,494,494,491
866,495,494,495,494
837,494,494,494,493
714,495,494,495,493
502,495,493,496,493
334,495,493,496,494
215,493,493,495,493
180,494,494,494,493
203,495,493,495,493
259,493,494,495,492
373,493,494,495,492
521,493,494,494,492
671,493,494,493,491
832,495,494,494,493
856,496,494,495,493
804,494,494,495,492
619,495,493,496,493
428,495,493,496,494
270,495,493,495,493
193,494,493,494,492
183,493,493,495,495
218,494,494,494,494
302,494,494,494,491
432,494,494,495,491
580,493,494,494,492
752,494,494,495,492
859,495,494,496,492
842,496,494,494,492
734,496,494,495,493
528,496,493,496,494
357,495,493,497,494
223,494,493,495,493
180,494,494,494,494
196,494,493,495,494
246,495,494,493,493
351,493,494,493,492
499,494,494,494,491
647,493,494,494,491
819,494,494,494,491
862,495,494,494,494
817,496,494,495,492
649,496,493,496,493
449,496,493,496,495
285,496,493,494,494
200,492,493,495,494
181,492,494,496,494
213,495,494,496,492
285,492,494,494,492
406,493,494,493,493
557,495,494,493,491
731,492,494,496,491
856,494,494,494,493
849,494,494,494,494
759,493,494,497,492
556,495,493,495,494
364,495,494,496,494
235,494,493,495,493
185,494,493,494,493
195,494,493,496,492
236,492,494,494,492
338,493,494,494,492
472,494,494,495,491
622,493,494,494,490
802,495,494,493,493
866,496,494,495,492
831,494,494,494,494
681,496,493,496,494
470,495,493,496,494
311,495,493,495,493
206,495,493,495,493
179,494,494,495,492
208,494,494,494,494
276,494,494,494,492
402,494,494,494,492
550,494,494,495,491
702,494,494,494,491
845,495,494,494,493
851,494,494,496,493
779,494,493,496,493
591,496,494,495,492
415,494,494,497,492
255,496,493,493,491
178,493,493,495,493
183,495,494,495,493
220,494,494,494,493
318,494,494,494,493
455,494,494,494,491
605,494,494,494,491
781,494,494,493,493
864,495,494,496,492
833,496,494,495,492
704,497,493,496,493
489,496,494,495,494
320,495,493,496,494
213,495,493,495,493
178,495,494,495,492
204,495,494,495,492
261,493,494,494,492
374,494,494,494,492
514,494,494,494,491
683,494,494,494,492
837,494,494,495,493
858,495,494,492,494
797,494,493,495,494
616,496,494,496,493
416,495,493,496,493
262,495,493,494,493
194,494,494,494,495
186,493,493,495,491
220,494,494,494,492
306,494,494,494,493
445,494,494,495,492
593,494,494,495,491
757,495,494,493,493
861,495,494,495,492
840,494,494,494,493
729,495,494,495,493
529,496,494,495,493
358,495,493,496,494
218,494,493,495,493
178,494,494,495,492
196,495,494,495,492
248,494,494,495,492
357,493,494,495,491
503,494,494,494,491
652,494,494,493,490
821,495,494,494,491
859,495,494,495,493
815,496,494,495,493
642,495,494,496,494
441,497,493,496,494
282,496,493,496,493
199,494,493,495,494
180,493,494,496,493
215,494,494,495,492
292,494,494,493,493
413,494,494,495,492
565,494,494,494,491
739,495,494,494,492
860,495,494,495,492
846,496,494,494,494
754,494,494,495,493
549,494,493,497,494
373,495,493,496,493
229,493,493,495,493
183,495,493,494,493
194,494,494,494,492
239,495,494,494,492
341,494,494,495,491
488,494,494,493,492
637,494,494,493,492
804,494,494,494,493
863,496,494,495,493
825,496,494,496,493
670,495,493,495,493
475,495,493,495,493
310,495,493,496,493
200,494,493,495,493
177,494,494,494,493
206,494,493,494,492
275,495,494,495,493
405,493,494,493,492
553,494,494,494,492
707,493,494,494,492
844,495,494,495,492
847,495,494,496,493
770,496,493,495,493
577,496,493,496,494
395,496,493,495,493
241,496,493,495,494
183,494,493,495,492
186,494,493,495,491
225,494,494,494,493
324,494,494,494,493
461,494,494,494,493
611,495,494,493,491
786,495,494,494,491
864,495,494,493,491
832,495,494,494,492
696,496,493,496,494
489,496,493,495,493
324,495,493,495,494
208,495,493,495,492
175,494,494,494,494
202,494,493,494,492
264,495,494,493,492
378,494,494,494,492
528,494,494,494,492
685,494,494,494,491
837,494,494,494,494
854,496,494,497,493
788,496,493,495,493
608,495,493,495,494
420,496,494,496,493
262,496,493,496,493
189,495,493,495,493
183,494,493,495,494
220,493,494,494,492
308,494,494,494,493
449,492,494,494,492
597,494,494,493,491
764,493,494,495,492
860,495,494,493,493
838,493,494,494,492
723,496,493,495,494
520,495,493,496,493
347,496,493,495,494
216,495,493,496,492
175,494,494,495,494
197,494,494,495,492
248,494,494,494,493
361,494,494,494,492
507,495,494,494,492
659,494,494,494,491
825,495,494,494,492
857,495,494,495,493
811,496,494,495,494
634,496,493,496,494
435,495,494,496,494
277,495,494,494,495
196,494,493,494,493
182,494,493,495,493
214,494,494,494,492
295,494,494,494,492
424,494,494,494,492
574,494,494,494,492
742,493,494,494,492
858,494,494,494,492
843,494,494,495,492
750,496,493,495,493
546,495,494,495,493
372,495,494,495,494
226,495,493,496,493
180,495,493,494,493
193,493,494,494,494
242,494,494,493,493
344,494,494,494,492
492,495,494,493,491
639,494,494,494,491
808,494,494,494,492
861,495,494,494,492
823,497,494,494,494
663,495,494,496,494
461,495,494,496,493
300,494,493,495,492
199,494,493,494,492
179,495,493,494,493
208,495,493,495,493
280,494,494,495,493
404,493,494,493,493
555,494,494,494,492
719,495,494,494,491
851,495,494,494,492
847,495,494,496,494
769,496,494,496,494
570,495,494,495,494
389,495,494,496,494
234,494,493,495,493
184,495,493,495,492
189,493,493,495,493
231,495,493,494,492
329,495,494,493,492
472,494,494,494,491
622,495,494,493,491
790,493,494,494,492
864,495,494,495,493
830,496,493,494,493
690,495,493,496,494
489,496,494,496,493
324,494,493,496,493
207,495,493,495,493
177,494,493,495,493
203,495,493,495,493
264,494,494,494,492
389,494,494,494,492
535,494,494,494,492
688,494,494,494,492
836,494,494,494,493
850,496,494,493,492
784,495,494,495,493
599,496,493,496,493
413,496,493,495,494
256,495,493,496,493
187,493,493,495,492
183,493,493,495,492
220,493,493,494,493
312,494,494,494,492
449,494,494,495,493
600,494,494,494,494
768,494,494,494,491
861,495,494,495,490
835,496,494,494,492
717,496,493,496,494
510,496,494,496,493
341,494,493,496,493
214,494,493,494,493
176,494,493,496,493
198,495,493,495,492
254,495,494,495,492
366,494,494,495,492
514,495,494,494,493
665,494,494,494,492
829,495,494,494,493
856,495,494,495,492
807,496,494,496,494
628,497,493,496,494
435,496,494,496,493
275,496,493,495,493
192,495,493,495,493
181,494,493,494,491
215,494,493,494,492
298,494,494,494,492
431,493,494,494,491
581,493,494,494,491
746,494,494,495,492
858,493,494,495,492
840,495,494,496,491
741,495,493,495,493
536,496,493,495,494
364,496,493,496,493
221,495,493,496,492
180,494,493,495,494
192,495,493,495,493
243,493,494,495,492
351,494,494,494,492
496,494,494,494,491
646,494,494,494,491
810,494,494,494,491
860,495,494,495,492
818,494,494,495,493
654,494,493,496,494
458,495,493,495,494
297,494,493,495,493
199,494,493,495,493
179,495,493,495,492
210,495,493,495,493
283,494,494,494,492
411,494,494,494,492
561,494,494,494,492
723,494,494,494,491
853,495,494,494,492
845,494,494,494,492
762,495,493,497,493
566,496,493,496,493
386,496,493,496,493
229,495,493,494,493
179,495,493,495,492
190,494,493,495,492
232,494,494,495,493
332,494,494,494,493
475,494,494,494,492
627,494,494,494,491
795,494,494,494,491
862,494,494,495,493
829,495,494,495,492
684,496,494,496,493
481,496,493,496,494
317,496,493,496,494
203,495,493,495,492
177,494,493,495,494
206,495,493,494,492
270,494,494,494,491
392,492,494,495,491
540,494,494,494,492
696,495,494,494,492
838,496,494,495,493
850,495,494,495,493
780,496,494,496,493
591,496,494,495,493
406,495,493,495,494
250,495,493,495,492
186,494,493,494,493
185,494,494,495,493
224,494,494,494,492
317,494,494,495,492
455,494,494,495,492
604,494,494,495,491
773,494,494,494,491
860,494,494,495,493
834,496,494,497,493
709,496,494,496,493
505,496,494,496,494
337,497,493,496,493
211,496,493,496,493
176,494,493,494,494
198,493,494,495,492
257,493,494,493,491
372,495,494,494,492
519,495,494,493,491
672,495,494,493,491
831,496,494,494,493
855,495,494,495,492
801,496,494,496,493
620,495,494,496,493
429,495,494,496,493
270,495,494,496,492
189,495,493,495,493
180,494,493,494,494
217,494,494,494,491
301,494,494,494,491
436,494,494,494,493
584,494,494,493,491
751,493,494,495,492
857,495,494,494,493
840,495,494,493,494
737,495,494,495,493
531,494,493,495,494
360,495,493,496,494
219,495,493,495,493
180,495,493,495,493
195,494,493,495,492
244,494,494,495,493
353,494,494,495,491
500,494,494,493,492
650,495,494,494,491
816,494,494,494,492
861,494,494,494,492
815,495,494,497,492
649,495,493,495,494
452,495,493,495,493
290,495,493,495,493
197,494,493,496,493
181,495,493,494,492
211,494,494,494,493
288,493,494,494,493
415,494,494,494,492
564,494,494,494,492
729,494,494,494,492
856,495,494,495,492
846,495,494,494,492
760,495,494,495,493
558,495,494,496,493
381,494,493,495,494
229,493,493,494,493
182,493,493,495,493
191,495,494,494,493
234,494,494,494,493
337,495,494,494,492
481,495,494,494,492
630,495,494,493,491
799,495,494,495,493
862,497,494,494,492
827,496,494,495,493
676,495,494,495,494
477,495,494,495,494
314,494,493,496,494
202,495,493,495,494
176,493,494,495,493
205,493,494,495,492
272,495,494,494,492
396,494,494,495,492
545,494,494,493,492
703,494,494,494,491
841,494,494,494,492
849,494,494,494,491
778,495,493,496,494
584,496,494,496,493
400,496,493,495,494
244,495,493,495,492
184,494,494,495,492
186,494,494,496,492
224,494,494,494,491
319,493,494,494,492
459,494,494,494,492
611,494,494,494,491
780,494,494,493,492
862,495,494,495,492
834,498,494,497,494
702,496,494,496,494
499,495,493,496,493
331,496,493,496,492
211,495,493,495,493
178,493,493,495,493
201,494,493,494,493
260,493,494,495,493
378,494,494,495,492
525,494,494,494,492
676,494,494,493,492
833,494,494,493,493
854,494,494,496,492
794,496,493,495,493
613,496,494,495,494
424,495,493,496,493
266,494,493,494,493
191,494,493,495,493
183,494,494,495,492
218,494,494,494,493
305,495,494,494,492
441,494,494,494,492
587,494,494,494,492
757,494,494,493,491
860,496,494,496,493
837,495,494,496,492
730,496,493,496,493
525,496,493,494,493
352,495,493,496,494
218,495,493,495,493
179,494,493,496,492
195,494,493,495,494
249,494,494,494,492
357,494,494,494,492
506,493,494,494,492
656,495,494,493,492
822,495,494,495,492
860,495,494,495,492
817,495,494,496,493
644,496,493,496,493
447,496,494,495,493
286,495,493,494,494
196,494,493,494,493
180,494,494,495,493
214,494,494,495,492
291,493,494,495,492
421,493,494,494,492
572,493,494,494,492
735,495,494,495,493
857,495,494,494,492
844,496,494,494,493
752,496,494,496,494
552,495,493,495,494
374,495,493,496,493
226,494,493,497,493
181,494,493,496,494
193,496,494,496,495
239,495,494,496,492
341,492,494,496,493
482,493,494,493,491
628,495,494,493,491
801,495,494,493,492
864,494,494,493,492
823,494,494,496,494
671,495,494,494,495
456,496,493,497,494
293,495,494,495,494
208,495,493,494,493
181,493,494,493,492
210,493,494,494,493
279,494,494,495,490
392,495,494,494,491
537,494,494,493,492
714,495,494,493,492
852,495,494,495,491
851,496,494,496,493
779,496,494,496,493
579,496,494,495,493
392,495,493,496,493
241,495,493,496,493
187,494,493,495,493
190,493,494,494,493
229,494,494,494,492
327,494,494,494,492
475,495,494,494,491
625,494,494,494,491
783,495,494,494,492
862,495,494,494,492
831,494,494,493,493
700,495,493,496,493
511,495,493,496,493
344,495,493,496,493
202,495,493,495,493
171,494,493,495,493
196,495,494,495,492
258,494,494,495,492
392,494,494,494,492
539,494,494,494,492
682,495,494,494,491
828,496,494,494,491
848,496,494,495,492
783,495,493,496,493
604,496,494,496,494
419,496,493,495,493
259,496,493,494,493
186,494,493,495,492
182,495,494,494,492
217,493,494,495,493
307,494,494,494,492
440,494,494,494,493
590,495,494,493,491
761,495,494,493,491
861,495,494,494,493
838,494,494,496,492
723,495,493,496,493
512,495,493,494,494
343,495,493,496,494
218,495,493,494,493
180,494,493,495,493
196,495,494,494,493
252,494,494,494,493
360,494,494,494,492
506,495,494,494,492
660,494,494,495,492
827,496,494,494,493
859,496,494,495,492
810,494,494,494,492
635,494,493,497,493
444,496,494,496,493
283,495,493,496,493
195,494,493,495,493
181,494,493,495,493
214,493,494,494,493
294,494,494,494,492
430,495,494,494,492
578,494,494,493,492
740,495,494,494,492
856,495,494,495,491
842,496,494,494,493
749,496,493,496,493
549,496,494,496,494
375,496,493,495,494
224,496,493,495,493
179,495,493,494,492
190,494,493,494,493
240,494,494,494,492
343,494,494,494,492
492,494,494,494,492
641,493,494,493,492
806,494,494,495,493
859,495,494,494,493
823,496,494,496,493
663,496,493,496,494
462,497,494,497,494
298,496,493,496,493
200,495,493,495,492
176,493,493,495,493
206,495,494,494,491
279,493,494,494,492
404,494,494,494,492
553,495,494,494,492
716,494,494,495,491
849,494,494,495,493
849,494,494,494,492
768,495,493,496,495
570,495,493,496,492
390,495,493,495,494
236,493,493,495,494
184,495,493,495,493
188,494,494,493,493
229,494,494,495,492
329,494,493,494,492
470,494,494,494,491
619,494,494,493,492
790,494,494,494,492
863,494,494,494,493
831,495,494,494,494
689,496,494,496,494
490,497,494,496,493
324,496,493,495,494
206,494,493,495,492
175,494,493,494,493
203,492,494,495,492
265,493,494,494,493
388,493,494,494,492
535,494,494,494,492
689,494,494,493,492
835,494,494,495,491
851,495,494,494,492
782,495,493,495,493
600,495,493,497,494
413,495,493,496,494
256,496,493,495,493
187,495,493,495,492
184,494,494,494,493
221,493,494,494,493
312,494,494,495,492
450,493,494,494,492
601,494,494,494,492
769,494,494,493,491
861,494,494,494,492
836,494,494,495,492
718,495,494,496,493
512,495,493,496,494
341,495,493,496,493
215,493,493,495,492
175,494,494,495,493
198,494,493,494,493
253,494,494,494,492
366,494,494,494,491
514,495,494,494,491
665,494,494,494,491
827,495,494,494,492
857,495,494,494,493
803,495,494,494,493
627,495,494,495,493
434,496,493,496,493
276,495,493,495,493
193,494,493,494,493
182,493,493,496,494
213,494,494,495,492
297,494,494,494,492
432,494,494,493,492
579,494,494,494,491
745,494,494,494,492
858,495,494,494,492
841,495,494,496,492
743,496,494,496,493
540,496,494,495,493
367,496,493,496,494
223,495,493,495,493
179,494,494,495,493
193,493,494,494,493
243,493,494,495,492
349,494,494,494,492
495,494,494,494,492
644,493,494,494,492
812,494,494,494,492
860,495,494,494,493
821,496,494,496,494
656,495,493,496,494
458,495,493,495,494
297,494,493,496,493
199,494,494,494,492
177,495,493,494,493
209,496,494,495,492
282,495,494,494,491
409,495,494,493,491
561,495,494,494,491
723,492,494,494,493
853,494,494,494,493
846,494,494,494,493
762,494,493,495,494
564,496,493,496,493
385,495,493,494,494
233,494,493,494,493
181,494,493,494,492
188,494,494,495,494
230,494,494,495,493
331,495,494,495,493
477,495,494,494,492
625,494,494,494,492
793,495,494,494,492
862,495,494,495,492
829,497,494,496,493
683,496,493,496,494
482,495,493,496,494
317,495,493,496,493
205,493,494,494,493
177,494,493,495,493
204,494,494,494,492
267,494,494,494,492
391,494,494,494,492
537,494,494,494,491
695,493,494,494,491
841,493,494,494,492
852,495,494,494,493
780,494,493,496,493
591,495,493,496,493
408,494,493,496,493
250,494,493,494,494
186,494,493,495,493
185,494,493,494,492
223,494,494,494,492
317,494,494,493,491
456,494,494,494,492
606,494,494,494,492
775,494,494,494,492
862,497,494,494,494
833,495,494,496,493
712,496,494,495,493
507,496,493,495,494
335,496,493,497,492
213,494,494,495,494
175,493,494,494,493
197,494,494,495,492
257,494,494,495,493
367,494,494,494,492
515,494,494,493,492
672,494,494,493,493
832,494,494,493,492
856,495,494,495,493
803,496,494,495,493
619,495,494,496,494
423,496,494,496,493
264,495,494,495,493
195,496,493,496,493
182,494,494,495,493
219,493,494,495,492
302,494,494,495,492
431,493,494,494,492
581,495,494,494,492
754,494,494,495,492
861,494,494,493,493
842,496,494,494,494
739,495,493,496,494
529,496,493,495,494
357,494,493,495,494
224,495,493,495,492
182,495,493,495,493
197,493,494,495,492
247,494,494,495,494
355,493,494,494,492
501,494,494,494,492
649,494,494,493,491
819,495,494,493,491
860,495,494,495,491
818,494,493,495,493
650,495,494,496,493
455,496,493,495,492
294,495,494,496,493
198,494,493,495,493
181,495,493,494,492
211,494,493,496,493
286,494,494,495,492
419,495,494,494,492
567,494,494,494,492
728,494,494,494,492
855,494,494,495,493
844,495,494,495,492
757,495,493,496,493
562,496,493,496,493
383,496,494,496,494
230,494,493,495,494
180,494,493,494,492
189,494,493,495,493
233,494,493,495,492
334,494,494,494,492
481,495,494,494,493
631,494,494,494,490
799,494,494,494,492
860,495,494,495,493
826,496,494,495,493
678,495,493,496,493
474,495,493,496,494
313,495,493,496,493
202,494,493,494,493
176,493,493,494,493
205,494,493,494,492
272,494,494,494,493
395,493,494,494,492
544,493,494,494,491
703,494,494,493,491
843,495,494,494,492
850,496,494,496,492
781,495,494,495,493
585,495,493,496,494
402,495,493,495,494
247,495,493,495,492
184,495,493,495,492
186,495,493,494,493
223,494,494,494,493
319,494,494,494,492
460,493,494,495,492
608,494,494,494,492
777,494,494,493,492
860,495,494,495,491
834,494,494,495,493
705,496,493,495,493
500,494,493,495,493
333,496,493,495,493
210,494,493,494,493
176,495,494,495,493
200,495,494,495,493
259,494,494,494,493
375,494,494,494,493
521,494,494,494,491
676,494,494,493,492
833,496,494,494,491
854,496,494,494,493
796,496,494,495,493
616,495,494,496,494
423,493,494,495,494
266,495,494,494,493
191,494,493,496,492
183,495,494,495,492
218,494,494,494,492
304,493,494,494,492
440,495,494,494,492
589,494,494,494,492
756,494,494,493,492
860,495,494,496,494
838,495,494,493,491
730,495,494,495,494
522,496,494,495,493
353,495,493,496,493
219,494,493,496,494
179,495,493,495,494
194,495,493,495,493
247,495,494,494,492
354,494,494,494,491
497,493,494,493,492
653,494,494,494,494
821,496,494,494,492
860,495,494,496,491
816,496,494,494,492
644,496,494,496,493
438,495,493,495,493
278,494,493,494,492
200,494,494,495,492
183,494,493,496,493
213,495,494,495,492
292,494,494,494,492
414,494,494,494,491
565,494,494,493,492
738,495,494,494,492
859,495,494,495,492
847,494,494,493,494
755,496,494,495,494
551,495,493,495,493
376,496,493,495,493
232,494,493,495,492
183,494,493,494,493
193,495,494,495,492
240,494,494,493,493
340,494,494,493,492
486,494,494,493,492
636,494,494,494,491
803,494,494,494,491
863,495,494,495,493
826,495,494,494,493
672,496,494,495,493
476,497,493,496,494
312,496,493,495,492
202,494,493,494,493
177,496,493,494,493
207,495,494,494,492
276,494,494,494,492
402,494,494,494,491
550,493,494,494,491
709,493,494,493,491
846,495,494,493,493
848,495,494,494,493
773,495,494,495,493
578,495,493,495,494
394,494,494,496,494
240,495,493,494,493
183,495,493,494,493
186,493,493,495,493
226,494,494,494,493
324,494,494,494,492
463,494,494,494,491
614,494,494,493,491
784,496,494,495,492
863,496,494,495,492
833,494,494,494,493
699,494,493,496,493
492,494,493,495,494
326,495,493,496,493
210,493,493,495,493
177,494,494,495,494
204,494,493,494,492
262,493,494,494,492
380,494,494,495,492
527,494,494,494,492
681,493,494,493,492
835,494,494,494,493
852,495,494,496,494
787,495,493,494,493
607,495,493,495,493
420,494,493,495,494
262,495,493,495,494
191,494,493,494,492
185,494,493,493,493
219,495,494,495,493
308,493,494,493,492
445,493,494,494,491
594,494,494,494,492
761,494,494,494,491
861,494,494,493,492
838,496,494,495,492
726,496,494,496,494
520,495,493,495,494
348,495,493,496,492
218,494,493,496,494
177,493,493,495,493
196,494,494,495,492
248,494,494,494,492
358,495,494,493,492
507,494,494,494,492
659,494,494,494,490
825,495,494,495,492
859,495,494,495,493
813,496,493,494,493
637,496,493,496,493
438,495,493,495,494
279,494,493,495,493
195,494,493,495,493
181,495,494,495,493
215,494,494,495,493
295,493,494,495,492
423,494,494,493,493
574,495,494,493,492
740,494,494,493,492
859,495,494,495,494
843,495,494,495,493
750,496,493,495,493
546,495,493,496,493
372,496,493,495,494
227,494,493,494,492
181,494,494,494,494
190,495,494,494,494
241,495,494,496,492
343,494,494,493,492
490,494,494,493,491
639,494,494,493,492
805,493,494,494,493
862,494,494,494,490
821,495,494,494,492
662,494,493,495,494
461,494,493,495,494
300,495,493,496,494
203,495,493,495,493
179,494,494,494,492
209,495,493,494,493
280,494,494,494,493
400,495,494,494,492
551,493,494,493,492
717,494,494,493,492
852,495,494,495,492
849,495,494,496,492
769,495,493,495,494
573,495,493,496,494
390,496,493,496,494
236,494,493,496,493
184,494,493,494,493
187,495,494,494,493
228,494,494,495,492
327,494,494,494,492
472,494,494,493,492
622,494,494,493,491
790,495,494,494,493
864,496,494,494,493
831,497,494,495,493
693,497,494,496,494
491,497,493,496,493
326,497,494,496,494
207,495,494,496,493
175,492,494,495,493
202,492,494,495,494
265,493,494,494,493
384,494,494,494,491
531,495,494,494,491
690,495,494,493,491
834,494,494,494,493
851,494,494,494,494
786,496,494,495,493
599,496,493,496,493
410,495,493,496,494
255,495,493,496,493
189,494,493,495,494
185,492,494,495,492
222,493,494,494,492
312,494,494,494,491
450,494,494,494,492
600,493,494,495,492
768,495,494,494,492
862,495,494,495,493
837,495,494,494,493
717,495,494,496,494
513,495,493,495,493
346,495,493,496,493
215,494,493,496,493
177,494,494,494,493
199,493,493,495,492
254,495,494,494,492
368,494,494,494,493
515,494,494,494,491
664,495,494,495,491
828,495,494,495,492
858,495,494,495,492
810,496,494,496,493
631,495,493,495,493
439,495,493,495,494
277,495,493,495,494
193,493,493,495,493
181,494,493,495,492
214,494,494,494,493
296,495,494,494,491
428,494,494,495,492
576,494,494,494,491
747,494,494,494,493
859,494,494,495,492
841,495,494,495,495
745,495,494,495,493
539,495,493,497,493
364,495,493,495,494
223,495,493,495,493
181,494,493,495,492
194,494,493,494,493
243,495,493,493,492
348,494,494,495,492
494,495,494,494,492
645,495,494,494,492
811,494,494,494,492
860,495,494,495,493
822,495,494,495,493
657,494,494,496,494
460,494,493,497,495
298,493,493,495,494
199,495,493,496,493
178,495,493,495,492
209,495,494,494,493
283,495,494,494,492
412,494,494,494,492
562,495,494,494,492
719,492,494,494,491
851,494,494,494,492
847,494,494,495,495
765,495,494,495,493
567,494,493,496,493
389,494,493,495,493
233,495,493,494,493
181,494,493,494,492
187,493,494,494,492
230,494,494,494,493
330,493,494,494,492
473,494,494,494,491
624,494,494,494,491
793,495,494,493,492
864,495,494,494,493
829,494,494,496,492
685,495,494,496,493
482,495,493,496,494
318,495,493,495,493
207,495,493,494,493
178,494,493,495,492
204,494,494,494,493
268,494,494,495,493
388,493,494,494,492
536,494,494,493,493
695,494,494,493,491
841,495,494,494,492
852,496,494,494,492
782,495,494,495,493
596,496,493,495,493
409,495,493,495,494
252,495,493,495,493
187,494,494,495,493
185,494,494,495,492
222,495,494,493,493
315,493,494,494,493
458,493,494,494,492
608,494,494,494,492
773,495,494,493,490
860,495,494,494,493
832,497,494,495,493
713,496,493,496,494
510,496,494,495,494
340,495,494,495,494
213,494,493,495,494
175,494,494,495,492
197,494,494,494,492
255,494,494,494,492
370,495,494,494,491
518,495,494,494,491
669,494,494,493,491
829,492,494,493,492
856,494,494,495,492
800,494,493,495,493
621,494,493,496,494
429,494,493,496,493
271,494,494,495,494
190,493,494,496,492
182,495,494,495,492
217,493,494,495,492
299,494,494,494,492
433,493,494,494,491
582,495,494,494,492
750,493,494,494,491
859,495,494,495,493
842,495,494,494,493
738,496,494,496,494
532,495,493,495,493
362,495,493,495,493
222,494,493,495,493
180,494,493,495,493
194,494,494,495,493
244,494,494,494,493
352,493,494,493,492
500,493,494,493,491
649,493,494,493,491
816,494,494,494,492
860,496,494,493,494
819,496,494,495,492
652,495,493,495,494
455,495,493,496,493
292,494,493,495,493
197,494,493,494,493
178,494,494,493,492
209,494,494,494,492
285,494,494,494,492
415,494,494,494,492
566,494,494,494,492
728,495,494,494,492
854,494,494,495,492
845,495,494,496,492
759,495,494,495,493
561,495,493,496,494
383,495,493,495,493
231,494,493,495,493
181,494,493,495,494
189,494,493,494,493
233,494,494,494,492
334,494,494,493,492
479,494,494,494,492
629,493,494,494,492
796,493,494,494,493
861,494,494,494,492
829,495,494,496,493
679,496,494,496,493
477,495,494,495,494
315,495,493,495,493
205,495,493,494,493
177,495,493,495,493
206,494,493,495,492
271,494,494,494,492
395,493,494,494,491
543,493,494,494,492
700,493,494,493,491
842,495,494,495,492
849,494,494,493,494
780,494,493,496,493
587,495,493,496,494
405,495,493,496,493
247,494,494,496,494
185,494,494,494,495
186,494,494,495,492
222,495,494,495,491
317,494,494,494,492
459,494,494,494,492
610,494,494,494,492
778,494,494,493,491
863,496,494,495,492
834,496,494,495,493
706,496,493,495,493
505,495,493,495,493
334,496,493,495,493
210,495,493,495,493
175,495,493,495,492
198,493,493,494,493
257,493,494,495,492
373,493,494,494,493
522,494,494,493,492
677,493,494,495,492
832,494,494,494,493
854,495,494,495,492
799,494,493,495,494
615,495,493,495,493
425,494,493,495,494
266,495,493,495,493
192,494,493,495,492
184,493,493,495,493
217,494,494,495,492
304,494,494,495,492
439,494,494,495,493
587,494,494,493,491
755,495,494,495,492
859,495,494,495,492
837,495,494,496,492
732,495,494,496,494
526,495,493,496,494
355,495,493,496,493
221,495,493,494,494
179,495,493,496,493
195,495,493,493,492
246,496,493,495,493
356,496,494,495,492
503,492,494,494,492
652,492,494,494,490
819,494,494,493,492
860,495,494,495,493
813,495,493,494,494
645,494,494,496,493
448,494,494,495,494
288,494,493,495,492
198,494,493,495,493
180,493,494,494,492
212,494,494,495,492
289,492,494,495,492
418,493,494,494,491
569,493,494,494,492
734,493,494,493,492
856,495,494,494,491
844,495,494,494,491
755,495,493,497,493
557,495,493,495,493
380,494,493,495,494
227,494,493,496,492
179,494,494,494,492
190,493,494,496,491
236,493,494,494,492
338,494,494,494,492
485,494,494,494,492
634,494,494,493,492
801,495,494,494,492
861,495,494,495,493
826,495,494,495,492
671,495,494,496,494
471,495,493,496,494
307,495,493,495,493
203,493,493,495,493
177,494,493,494,493
206,494,493,495,493
275,494,494,494,492
396,494,494,495,493
547,493,494,494,492
709,495,494,493,492
845,495,494,495,492
848,495,494,495,492
777,495,494,496,493
579,495,493,496,494
396,494,494,496,494
242,496,494,495,493
186,495,493,494,493
186,495,493,494,493
226,492,494,495,493
324,492,494,494,494
464,492,494,495,494
614,493,494,493,492
784,494,494,494,491
863,495,494,495,493
831,493,494,495,493
699,494,493,495,493
499,495,493,495,493
331,494,493,495,493
209,494,494,494,493
174,495,493,495,492
201,493,494,495,494
261,494,494,493,492
381,493,494,495,492
529,494,494,493,492
680,494,494,495,491
833,495,494,494,493
853,494,494,494,494
788,494,494,496,493
609,495,493,496,493
422,494,493,495,494
261,494,493,495,493
189,494,494,495,492
183,494,494,494,493
217,494,494,494,493
307,493,494,495,493
442,495,494,494,492
592,494,494,494,492
763,494,494,493,491
860,495,494,494,492
838,496,494,494,493
725,495,493,497,494
518,495,493,496,493
349,495,493,496,495
219,494,493,496,492
178,495,493,494,492
197,494,494,494,492
248,494,494,494,493
361,494,494,495,491
508,493,494,495,491
658,494,494,493,492
824,495,494,494,491
858,496,494,494,494
814,494,493,496,492
637,496,494,496,493
445,494,493,496,494
283,494,493,495,493
195,494,493,495,494
180,493,494,495,493
212,493,494,495,492
292,493,494,494,493
427,494,494,494,492
575,494,494,494,492
737,495,494,494,491
855,495,494,495,492
840,495,494,494,492
751,495,494,496,493
549,495,493,496,494
375,496,493,495,493
224,494,493,496,492
180,495,494,496,494
189,494,494,494,492
239,494,494,494,492
339,494,494,494,492
484,493,494,493,491
636,493,494,494,492
806,493,494,495,492
862,495,494,495,491
824,495,494,495,493
666,496,494,496,494
463,495,493,495,494
300,494,493,495,493
202,494,493,496,493
177,494,494,494,493
208,493,494,494,493
279,493,494,495,492
401,493,494,494,493
552,494,494,494,492
716,494,494,494,491
850,495,494,495,492
847,496,494,494,493
774,496,494,495,493
577,495,494,496,494
395,495,493,495,494
239,494,493,496,493
183,493,494,494,492
186,494,493,495,493
228,494,494,495,493
327,494,494,493,492
473,493,494,494,492
622,494,494,494,491
785,494,494,494,491
861,494,494,495,492
830,495,494,495,492
692,496,493,496,494
494,495,494,495,494
327,495,493,495,493
207,494,493,496,493
174,494,493,494,493
200,494,494,495,493
263,494,494,494,492
386,493,494,494,491
532,494,494,495,492
686,494,494,493,491
834,494,494,494,492
852,494,494,494,493
785,495,493,496,494
601,495,494,496,494
413,495,493,496,494
256,495,493,495,492
188,494,493,494,493
184,493,494,495,493
220,494,494,496,492
310,494,494,494,491
446,493,494,493,492
597,494,494,494,492
767,494,494,494,492
863,495,494,495,493
838,496,494,494,492
719,496,494,496,493
514,496,494,496,494
346,494,493,496,493
214,494,493,496,493
175,494,494,494,493
198,493,494,494,491
252,494,494,494,492
366,494,494,494,491
514,495,494,494,491
664,494,494,494,492
828,494,494,494,492
858,494,494,494,494
811,494,494,495,494
633,494,494,495,494
441,495,493,496,494
278,494,493,496,494
195,494,494,495,494
180,495,493,496,493
213,495,494,495,493
295,493,494,494,492
432,494,494,494,492
580,494,494,494,492
744,495,494,494,491
855,495,494,494,492
841,495,494,496,493
745,495,493,495,493
542,495,494,496,494
368,496,493,495,493
224,494,493,496,493
181,494,493,495,494
192,494,493,494,492
241,494,494,495,492
347,494,494,494,491
492,495,494,494,492
642,496,494,494,493
808,496,494,494,491
860,497,494,494,492
820,495,494,496,493
658,493,494,496,493
460,493,494,495,494
298,494,493,496,493
201,495,493,495,494
179,495,493,495,493
208,493,493,494,492
282,495,494,494,492
408,494,494,494,491
556,494,494,494,491
719,494,494,493,491
852,495,494,494,492
848,495,494,494,493
767,495,494,496,494
571,495,493,496,493
391,494,493,495,493
234,494,493,495,494
181,495,493,495,492
188,494,493,495,492
230,494,494,494,492
328,494,494,494,492
475,494,494,494,491
625,494,494,494,492
793,495,494,495,493
863,495,494,495,492
827,496,494,495,494
686,495,493,495,493
486,495,493,495,493
320,495,493,496,493
205,494,493,494,493
176,493,493,494,493
203,495,494,494,493
268,494,494,494,493
389,493,494,493,491
536,494,494,494,492
695,493,494,494,491
838,494,494,495,492
851,496,494,496,492
783,496,493,495,493
596,496,494,495,494
408,495,493,495,493
252,493,493,494,493
187,494,494,495,493
183,493,494,495,494
222,494,494,495,491
314,494,494,494,492
453,495,494,494,492
603,494,494,494,491
771,495,494,494,492
863,494,494,494,493
836,493,494,495,493
712,494,493,496,494
509,494,493,496,493
341,495,493,496,493
214,495,493,495,493
174,494,493,494,493
200,494,494,494,492
255,494,494,494,492
369,494,494,494,491
516,494,494,494,491
668,494,494,494,491
828,494,494,494,492
856,495,494,495,491
802,495,494,496,493
624,495,494,496,494
434,495,493,495,494
273,496,493,495,493
191,494,493,494,492
181,495,494,495,492
215,495,493,494,492
298,495,494,494,493
433,494,494,495,491
581,495,494,494,491
751,493,494,493,492
860,494,494,494,493
839,495,494,494,492
739,495,494,496,494
535,495,494,495,493
363,495,493,496,493
220,494,493,495,493
179,494,493,495,492
193,494,494,495,492
243,494,494,494,492
351,494,494,494,491
499,494,494,494,492
647,494,494,494,492
815,494,494,494,493
859,496,494,495,491
818,495,494,495,493
653,495,494,496,493
455,495,493,495,492
294,494,493,494,494
198,493,493,495,492
178,494,494,494,492
210,495,494,495,492
286,495,494,495,492
416,495,494,494,492
565,493,494,494,492
725,494,494,493,491
853,495,494,494,492
844,496,494,495,492
762,495,493,496,493
562,495,494,496,494
384,496,493,496,494
232,495,493,494,493
181,495,493,494,492
190,495,494,493,492
233,494,494,494,492
333,493,494,495,493
478,494,494,494,492
628,494,494,493,491
798,495,494,495,492
863,494,494,492,493
827,495,494,495,493
682,495,493,495,493
479,495,493,496,494
314,495,493,495,493
203,495,493,495,492
176,494,494,494,492
206,494,494,494,492
271,495,494,494,492
392,494,494,495,492
542,494,494,494,493
699,495,494,494,492
841,494,494,494,493
851,495,494,495,493
782,496,494,495,494
590,496,494,496,494
406,496,494,496,494
248,497,494,495,494
186,494,493,494,493
186,495,493,494,492
222,494,494,495,493
317,493,494,493,492
459,494,494,495,492
608,493,494,494,491
777,494,494,494,492
862,494,494,495,493
834,494,494,495,493
708,495,493,495,494
502,495,493,496,494
334,494,494,496,494
212,494,493,495,493
176,494,493,494,493
199,495,494,495,493
257,494,494,494,493
374,494,494,495,492
521,493,494,494,492
674,494,494,493,492
832,494,494,495,494
856,494,494,495,491
798,495,494,495,493
617,495,493,496,494
427,494,493,496,494
269,494,493,496,493
192,495,493,496,492
181,494,493,495,493
217,494,493,494,492
303,495,494,494,491
436,494,494,494,493
585,494,494,494,492
756,494,494,493,491
860,495,494,494,493
840,495,494,494,493
734,495,494,496,493
529,495,494,496,494
358,495,493,495,494
221,495,493,495,493
177,494,493,495,493
195,494,493,494,492
246,494,494,494,493
355,493,494,494,492
502,494,494,494,491
651,494,494,494,492
819,494,494,494,492
860,494,494,494,493
816,497,494,495,494
647,496,493,496,494
451,495,493,496,494
288,495,493,496,493
197,494,493,495,494
181,494,494,495,491
213,495,493,495,493
287,494,494,495,492
418,494,494,494,493
570,494,494,493,491
733,495,494,494,492
857,495,494,495,492
845,494,494,495,493
757,495,493,496,493
557,495,493,496,493
380,495,493,496,494
228,493,493,495,493
181,493,494,495,493
191,494,493,495,493
236,493,494,494,493
337,493,494,494,493
483,493,494,494,492
632,494,494,495,492
800,494,494,494,492
861,495,494,495,493
826,497,494,495,493
674,495,493,496,494
473,495,493,496,494
310,495,493,495,493
203,495,493,495,493
176,494,493,495,491
204,493,494,493,491
273,495,494,493,492
398,493,494,495,491
545,493,494,493,491
705,494,494,494,492
843,494,494,494,493
851,495,494,494,491
776,497,494,495,492
578,494,493,496,493
395,494,493,496,494
239,494,494,494,492
183,492,494,494,494
184,494,494,495,493
225,493,494,494,492
319,493,494,495,491
453,494,494,493,492
605,494,494,492,491
784,494,494,494,492
867,495,494,495,491
834,494,494,496,493
703,495,493,497,494
489,494,493,496,493
320,495,493,495,493
212,494,493,494,492
178,495,493,495,493
204,494,494,495,492
262,495,494,495,493
375,495,494,493,491
521,495,494,493,492
685,493,494,494,492
836,493,494,494,492
857,495,494,496,492
795,496,494,494,494
614,495,493,495,493
421,495,493,496,494
265,494,493,494,493
192,494,493,494,493
185,493,494,493,493
219,495,494,494,493
307,494,494,495,492
447,494,494,494,492
594,494,494,493,491
759,494,494,493,493
861,495,494,494,493
839,495,494,495,494
725,494,494,495,493
526,495,493,496,494
353,494,493,496,493
217,494,493,495,493
177,494,493,494,493
196,493,494,494,492
248,494,494,495,493
359,493,494,494,492
506,494,494,495,491
655,494,494,493,492
821,495,494,494,492
859,495,494,494,494
812,496,494,495,493
640,495,493,496,493
444,494,493,495,494
282,494,494,495,492
196,494,493,494,494
180,494,493,494,493
214,493,494,494,493
292,494,494,494,492
419,494,494,493,491
573,494,494,494,492
739,493,494,494,493
858,493,494,494,494
845,494,494,495,493
753,495,494,495,495
551,495,493,495,493
376,496,493,496,493
227,496,493,495,494
180,494,493,494,493
192,494,493,494,492
239,494,494,494,492
341,493,494,495,491
491,493,494,494,491
639,494,494,494,492
804,495,494,494,492
861,494,494,494,492
822,496,493,495,493
667,495,494,495,493
471,495,493,496,494
306,495,493,496,493
201,494,493,495,493
176,494,493,494,492
205,494,494,495,492
276,494,494,495,492
405,493,494,494,492
553,494,494,494,492
711,495,494,494,493
848,495,494,494,491
847,495,494,494,494
773,496,493,495,493
577,495,493,496,493
395,495,493,495,494
239,494,493,496,494
183,493,494,494,492
186,494,494,494,492
227,494,494,494,493
324,493,494,494,492
466,493,494,494,492
615,494,494,493,491
786,494,494,493,492
863,494,494,495,492
831,494,494,495,492
695,495,494,495,494
491,494,493,496,494
325,494,493,495,493
209,495,494,495,492
175,494,493,495,494
202,494,494,494,492
261,494,494,493,492
382,493,494,494,492
529,494,494,493,491
686,494,494,493,492
835,494,494,494,492
852,496,494,495,491
786,494,493,495,493
606,495,494,495,494
418,495,493,495,493
260,496,494,495,494
188,493,494,495,492
183,494,494,494,492
221,494,494,494,493
309,494,494,494,492
448,494,494,494,492
598,494,494,495,492
766,494,494,494,491
861,495,494,494,492
836,495,494,496,493
722,496,494,496,494
517,495,493,495,494
346,494,494,496,494
216,493,493,495,494
177,492,494,493,492
195,494,493,494,492
249,494,494,494,493
363,493,494,494,491
511,493,494,494,492
661,494,494,493,492
825,494,494,494,493
858,495,494,494,492
808,495,494,495,493
634,495,494,495,494
439,495,493,496,493
280,494,493,495,493
194,494,493,495,493
182,494,493,495,492
213,494,494,495,493
295,494,493,495,493
428,494,494,493,492
576,493,494,494,493
743,493,494,494,492
858,494,494,496,493
842,495,494,493,492
745,495,494,495,493
545,495,493,495,493
371,495,493,495,494
225,495,493,495,494
180,495,494,495,493
192,495,494,494,493
241,494,494,495,493
344,494,494,494,492
493,494,494,494,492
642,493,494,493,491
809,494,494,494,492
861,495,494,494,493
821,494,493,496,493
662,495,493,496,494
464,495,493,495,494
301,495,493,496,494
199,494,494,495,492
178,493,494,495,492
208,495,494,493,492
280,494,494,494,493
407,494,494,494,493
558,494,494,494,493
719,495,494,493,493
851,497,494,495,493
846,496,494,493,494
767,495,494,496,494
571,495,493,496,494
389,493,493,496,493
233,493,493,495,493
181,493,494,494,493
188,494,494,494,493
228,494,494,494,493
328,493,494,494,492
472,494,494,493,493
621,494,494,495,492
791,494,494,495,492
863,494,494,493,493
829,496,494,495,493
689,494,493,495,495
487,495,493,496,494
321,496,493,496,494
207,494,493,494,493
176,495,493,494,492
203,494,494,495,494
267,494,494,495,492
388,494,494,495,491
534,494,494,493,493
692,494,494,493,492
837,494,494,495,491
851,494,494,494,494
782,495,494,494,493
598,496,493,496,494
412,495,494,496,493
255,495,493,495,493
187,493,493,494,493
183,494,494,493,493
222,494,493,493,493
313,494,494,494,493
451,494,494,495,491
601,495,494,493,493
771,493,494,494,492
862,494,494,493,493
837,495,494,494,492
717,495,494,496,494
511,495,494,495,493
342,495,493,496,493
214,493,494,494,493
176,493,494,495,493
198,493,494,494,492
254,494,494,495,493
368,493,494,495,492
518,493,494,494,492
668,494,494,493,492
830,495,494,494,493
857,495,494,494,492
809,496,493,495,493
628,495,494,497,493
436,495,493,495,493
274,494,494,495,493
192,495,494,495,493
182,494,493,494,493
216,494,494,494,492
297,494,494,495,492
432,494,493,494,492
582,494,494,493,491
747,494,494,495,492
858,494,494,494,492
841,494,494,495,492
742,495,493,496,494
537,496,493,495,494
364,495,493,496,493
223,494,494,495,493
180,495,494,496,493
194,494,494,495,492
244,493,494,494,492
351,494,494,494,492
495,494,494,494,492
643,494,494,493,492
813,495,494,494,492
861,495,494,495,494
819,496,494,496,493
655,495,493,496,495
458,495,493,496,494
297,495,493,495,492
200,494,493,494,493
178,495,493,495,492
210,494,494,495,494
284,494,494,494,493
412,494,494,495,491
562,494,494,493,492
724,494,494,493,492
854,494,494,495,494
846,495,494,493,492
763,496,493,496,494
567,496,493,496,493
387,494,493,495,494
233,494,493,495,493
181,494,494,495,493
189,494,493,495,493
231,494,494,495,492
331,494,494,495,493
475,495,494,494,492
627,494,494,494,491
793,494,494,494,492
863,494,494,495,493
827,494,494,494,492
684,496,493,496,494
481,496,493,496,494
316,496,494,495,494
205,495,493,495,494
178,494,493,494,492
203,493,494,494,492
269,493,494,495,493
392,493,494,493,492
541,494,494,494,492
698,495,494,494,491
839,495,494,495,492
850,495,494,494,493
782,496,494,496,494
590,496,493,496,494
406,495,493,496,494
249,493,493,495,493
186,494,493,494,492
185,494,493,495,492
221,494,493,494,492
318,495,494,494,492
458,494,494,494,492
607,494,494,495,492
774,495,494,493,492
863,495,494,494,492
835,495,494,495,493
709,495,493,495,493
506,495,493,495,493
337,495,493,495,492
211,495,493,494,494
176,493,494,494,493
199,493,494,496,492
257,493,494,493,492
372,493,494,494,492
519,493,494,494,492
671,493,494,493,492
831,495,494,494,492
855,495,494,495,493
805,495,494,494,493
