Sensor0,Sensor1,Sensor2,Sensor3,Sensor4

488,494,887,494,339
501,503,258,497,97
514,493,480,492,907
506,490,685,495,123
503,495,162,498,716
482,88,494,887,494
339,501,503,258,497
97,514,493,480,492
907,506,490,685,495
123,503,495,162,498
716,482,48,494,887
494,339,501,503,258
497,97,514,493,480
492,907,506,490,685
495,123,503,495,162
498,716,482,495,850
495,723,499,492,426
497,112,497,495,195
494,896,494,499,893
496,275,493,495,250
495,101,494,491,375
494,895,496,494,805
495,118,496,494,204
492,424,495,492,749
493,911,497,492,543
495,107,496,491,185
495,888,495,488,896
493,445,498,490,312
493,109,498,492,292
494,903,497,493,849
494,118,498,497,187
496,109,500,485,574
495,906,499,493,601
494,114,502,485,129
495,839,499,495,851
493,618,499,491,352
495,123,499,493,194
494,905,499,486,853
495,215,497,486,172
495,97,499,496,614
493,917,499,492,522
497,119,498,491,125
493,886,496,488,863
494,512,498,493,318
495,109,495,493,246
494,909,496,491,864
495,159,496,498,192
495,93,495,493,741
493,911,494,493,531
495,116,496,493,181
494,900,495,493,901
493,422,496,495,317
493,100,497,495,316
495,901,495,497,874
494,123,497,494,219
494,129,495,494,612
495,924,496,493,635
495,123,496,493,185
496,843,498,494,889
493,583,497,495,383
495,108,497,495,250
494,890,496,494,888
495,193,495,496,207
497,95,494,491,670
494,905,495,494,545
495,116,496,493,153
494,896,496,491,873
496,487,497,496,331
495,112,494,496,263
493,899,494,494,858
495,139,495,496,188
495,102,494,492,504
494,922,495,492,653
493,125,494,494,157
495,745,493,495,864
493,689,494,494,405
492,117,493,495,205
495,897,494,493,882
494,255,494,493,231
494,105,494,492,377
494,914,495,492,774
496,120,495,494,182
495,483,495,492,767
495,900,496,494,512
497,125,496,493,177
494,902,499,492,889
494,409,497,492,289
497,101,495,497,306
491,899,495,494,852
494,133,492,495,197
494,143,496,494,604
494,906,500,493,617
493,116,495,493,174
494,862,496,494,897
495,595,495,493,387
494,101,496,493,255
496,900,498,494,895
492,195,501,496,213
496,98,485,492,685
494,914,498,494,557
494,99,484,495,226
493,912,494,490,898
494,253,502,490,236
494,113,487,496,388
494,919,484,486,787
494,126,496,508,187
496,452,475,494,751
495,912,465,492,519
492,113,487,493,164
496,888,511,487,884
492,423,496,496,293
497,99,502,499,420
492,909,495,496,732
493,119,504,495,170
494,600,491,497,793
495,816,494,497,472
493,129,494,494,168
495,891,494,493,886
494,350,494,490,256
496,100,496,495,327
495,918,495,498,831
494,126,496,489,185
494,255,495,495,657
494,913,496,491,566
495,125,496,489,159
495,896,497,488,877
494,519,498,491,336
495,109,496,490,255
494,897,495,495,877
495,159,496,492,198
495,101,497,494,473
495,926,498,493,679
498,125,498,491,153
501,693,498,493,831
492,736,497,494,420
493,128,496,491,176
494,898,498,495,868
494,267,500,491,220
494,98,498,495,545
493,919,499,496,606
493,112,496,495,142
493,813,496,494,869
494,634,498,494,384
497,107,496,494,233
495,908,496,492,889
493,218,495,493,219
495,98,496,494,640
495,910,497,492,586
494,123,496,496,175
493,896,495,495,900
494,524,496,492,362
495,102,495,495,279
494,904,496,495,882
495,157,496,494,220
493,104,495,493,498
494,904,497,494,695
494,123,497,493,187
494,699,496,494,840
493,750,496,491,446
494,99,496,495,290
495,898,496,492,861
495,120,496,495,193
494,94,495,492,755
496,850,495,496,477
496,114,495,495,152
494,889,494,494,867
494,388,497,494,251
496,101,496,494,289
494,903,495,496,819
495,127,495,490,171
495,182,496,494,617
493,921,495,494,578
494,108,494,491,146
494,882,493,492,883
492,543,494,492,357
495,113,494,489,252
494,907,495,493,882
493,178,497,501,197
495,96,493,498,698
494,913,496,492,546
493,109,497,498,166
494,906,500,497,880
495,470,498,493,323
494,107,496,489,283
493,917,496,493,866
493,146,497,498,200
495,91,495,494,766
495,858,496,489,492
493,109,503,500,165
495,896,493,497,885
496,381,494,498,277
499,107,493,502,311
498,898,494,491,851
494,117,486,498,197
494,183,495,487,636
496,915,495,493,603
496,128,485,491,165
498,865,482,497,886
496,552,488,497,357
504,96,493,494,339
497,919,487,487,800
498,124,498,490,174
493,373,499,500,720
493,914,484,494,534
498,109,489,495,160
498,894,472,498,889
495,469,502,492,316
498,108,497,494,285
495,915,495,493,866
495,145,491,495,205
495,102,485,492,557
492,933,494,493,658
493,124,495,494,178
495,769,497,490,891
496,641,495,490,410
495,92,498,492,327
493,910,495,491,846
494,121,497,489,201
494,193,497,491,625
495,908,500,492,588
495,112,498,491,149
493,870,500,492,869
494,555,500,492,350
493,111,500,489,236
494,899,499,492,865
494,171,500,492,183
495,105,498,494,442
495,914,499,495,690
495,129,500,495,131
495,677,499,491,793
493,780,505,489,417
496,104,496,489,150
495,893,499,493,861
493,318,503,499,229
494,104,500,492,323
493,908,497,494,817
496,130,496,496,199
494,296,496,492,707
493,916,496,494,578
494,120,497,491,188
495,894,495,493,911
493,491,497,493,365
494,97,496,497,406
492,919,497,498,805
494,115,495,495,218
496,457,496,495,767
496,908,495,496,541
496,119,497,498,191
495,906,495,497,890
496,423,497,497,312
493,98,496,497,421
495,909,496,493,722
494,126,497,493,158
494,602,494,495,764
495,820,495,493,443
496,120,495,493,137
492,905,498,495,845
493,338,496,495,207
500,113,495,496,276
493,901,495,493,795
493,121,496,494,141
494,250,495,491,626
493,923,496,491,551
492,119,495,495,133
494,885,493,496,877
495,534,495,498,348
491,108,495,493,263
492,906,495,494,883
494,184,495,493,220
493,99,494,494,722
493,911,495,493,562
495,118,494,493,204
495,891,493,492,910
493,464,496,493,350
495,110,496,494,309
494,904,495,496,871
493,143,495,493,214
492,96,494,494,767
494,860,494,493,496
497,122,496,494,162
495,893,495,494,868
494,383,494,492,272
493,95,495,493,435
491,917,495,490,699
493,125,496,494,151
495,672,494,493,797
493,776,496,490,442
493,115,496,493,167
496,896,495,495,870
494,310,494,494,240
494,101,492,491,323
490,899,494,491,812
495,141,494,493,176
493,306,492,495,676
494,918,495,493,553
493,120,495,492,169
494,899,495,492,886
492,492,497,494,320
496,111,495,493,268
493,901,496,491,863
494,157,498,493,187
496,104,496,493,518
492,926,497,494,656
494,122,496,491,163
495,744,496,492,861
494,681,498,496,410
495,118,496,494,227
495,913,497,496,889
495,256,497,494,240
496,108,497,497,397
496,916,497,497,800
494,125,497,494,204
494,500,496,493,781
495,888,497,494,529
495,114,496,497,187
494,896,495,500,896
495,417,497,494,300
495,110,496,498,319
493,910,498,491,864
494,115,496,496,198
494,127,495,493,604
494,901,498,492,610
493,126,496,497,157
495,873,494,491,873
492,574,496,496,368
494,109,495,497,238
493,911,496,491,876
495,184,497,497,187
493,98,492,491,673
493,927,497,493,537
493,111,496,499,134
493,887,495,494,867
492,484,495,499,311
493,101,492,492,255
492,903,494,498,861
495,155,492,492,186
492,101,489,498,503
494,906,494,493,668
496,112,501,497,159
497,734,493,496,859
495,710,491,499,427
495,120,475,495,204
494,902,488,507,887
497,248,493,496,242
491,101,497,475,375
495,921,494,505,796
493,107,495,495,195
490,448,492,501,751
497,920,444,491,530
497,102,489,496,174
496,900,501,492,902
495,433,465,493,318
492,102,494,482,308
495,909,442,503,871
498,115,498,489,208
494,103,493,496,587
496,906,497,500,644
495,118,489,497,177
495,818,504,495,890
499,604,506,491,389
495,123,469,495,242
501,887,496,501,889
494,216,494,498,224
497,93,517,494,633
496,923,494,491,572
496,114,494,496,151
496,884,497,488,874
495,542,500,493,332
494,114,491,485,229
494,906,497,489,862
497,176,494,492,182
493,104,496,488,446
493,923,496,495,685
493,120,497,492,158
494,688,497,493,835
496,763,498,487,449
494,104,498,491,188
495,886,499,493,888
494,298,497,494,244
493,104,498,490,349
496,906,500,491,813
496,125,497,497,189
496,357,500,493,714
496,905,500,490,538
496,108,497,492,162
495,887,500,492,883
494,471,498,494,306
496,109,499,490,273
494,912,499,494,857
494,138,498,493,185
496,91,500,489,777
494,852,498,492,474
493,116,497,494,149
495,897,496,493,877
493,385,495,497,269
494,102,495,496,307
495,901,496,491,838
494,127,497,497,203
497,188,494,493,635
495,912,496,491,615
495,122,495,495,189
494,888,496,493,904
493,552,497,486,383
495,101,493,491,272
495,903,494,494,895
493,177,494,497,227
494,100,493,495,464
494,924,497,494,717
496,126,495,496,178
494,650,496,491,809
495,767,496,493,433
496,104,496,495,166
498,909,496,493,863
493,303,496,494,213
496,106,496,499,307
497,920,495,494,799
494,118,495,493,151
493,295,496,494,663
495,913,495,491,541
494,101,496,498,142
493,888,494,495,880
497,496,495,496,334
494,106,496,493,276
494,906,495,493,882
494,155,496,494,207
495,96,496,492,762
496,903,494,493,520
494,109,496,497,177
495,895,496,493,904
496,409,497,494,304
496,105,494,493,319
493,907,495,495,864
495,122,494,495,205
493,109,495,493,600
493,925,496,494,622
493,125,496,496,165
496,856,497,494,880
496,583,496,493,380
496,99,497,491,336
492,913,496,493,824
494,108,495,492,194
493,285,497,498,681
494,920,495,495,568
495,124,495,496,172
494,897,495,493,881
495,491,497,496,334
494,110,496,497,271
493,916,494,496,862
495,132,496,500,188
496,94,493,494,743
493,894,497,493,494
494,121,496,500,141
494,892,495,496,869
497,423,497,499,280
495,99,497,486,399
495,912,496,492,719
494,117,500,492,157
493,610,496,494,778
492,827,495,493,462
494,103,496,496,164
493,897,496,496,889
494,348,495,495,271
493,104,498,495,336
495,913,500,499,860
494,132,498,496,204
494,227,488,498,661
494,913,495,502,605
494,122,503,495,190
493,881,490,495,903
490,532,497,495,358
494,88,501,493,359
492,916,477,492,800
494,123,483,491,180
497,402,481,500,720
494,909,472,507,521
494,108,503,494,154
496,897,495,493,880
492,436,488,493,294
496,106,501,494,266
492,919,496,485,851
494,129,528,496,171
495,100,496,489,566
496,914,500,492,638
493,115,498,494,174
494,829,478,494,897
495,629,497,493,405
494,126,490,494,246
493,918,500,494,901
493,236,494,492,233
494,91,495,494,632
495,907,496,493,600
495,107,495,492,172
494,883,495,491,887
493,552,497,487,357
494,117,495,491,244
493,898,496,491,867
494,191,496,490,184
494,101,498,490,442
494,904,496,495,698
496,131,495,491,148
494,653,497,496,801
497,781,495,492,429
494,112,498,491,153
493,888,498,491,864
495,326,497,495,217
495,100,497,491,301
496,921,497,494,798
495,118,497,492,155
495,318,497,493,668
495,908,497,493,552
497,101,498,496,153
493,895,494,492,905
498,497,497,494,353
499,107,497,498,284
496,911,497,494,908
494,142,499,493,222
497,99,496,495,757
497,921,497,494,548
494,114,496,490,203
497,908,498,492,910
495,450,496,493,338
495,111,495,491,321
493,900,496,494,882
496,124,494,493,222
496,100,495,494,575
494,918,496,495,648
497,122,495,494,177
495,815,495,492,878
494,637,496,493,386
495,98,496,494,303
496,921,496,493,824
494,127,496,497,161
495,200,495,493,596
495,906,497,494,567
493,112,496,493,129
493,868,496,492,860
495,571,496,496,326
496,108,494,493,213
493,895,496,492,859
495,172,496,496,167
495,108,496,493,435
492,928,496,496,691
493,116,497,493,146
495,661,494,495,818
493,773,496,493,458
493,107,494,494,188
493,893,495,494,910
493,325,494,495,281
496,100,494,494,358
494,902,495,494,843
494,130,495,494,212
496,290,494,495,704
494,915,496,494,582
494,113,495,495,193
494,895,494,495,911
495,506,495,493,365
497,109,495,496,282
493,911,496,494,889
494,164,495,494,220
495,95,495,494,738
494,919,496,494,534
496,115,495,491,165
494,903,497,495,884
493,454,494,494,313
495,107,494,493,280
493,911,496,495,856
494,124,496,495,184
495,94,495,497,759
495,853,496,494,473
494,134,496,496,148
494,907,497,496,862
495,402,495,491,252
495,101,494,491,279
495,897,493,493,824
495,135,495,493,162
495,187,495,490,606
493,917,499,493,575
495,116,497,496,134
494,878,495,495,877
494,554,495,500,360
494,109,494,501,245
494,910,491,491,882
494,196,495,496,210
494,92,496,496,686
495,915,497,498,559
493,109,495,490,174
494,890,496,494,902
494,492,495,491,347
497,107,496,496,285
495,911,491,492,896
496,160,504,494,225
493,105,492,499,528
496,918,505,496,694
497,121,497,490,179
497,728,490,494,865
494,714,493,491,428
495,109,497,496,191
495,907,505,489,880
495,275,495,487,220
497,99,486,490,543
490,911,500,504,600
491,112,490,491,122
496,797,496,494,858
497,617,501,492,362
494,111,506,497,201
500,914,480,498,866
495,234,502,494,194
496,99,499,491,620
495,908,497,496,571
497,123,496,497,145
495,876,496,493,880
498,536,497,491,354
496,107,501,492,252
494,914,496,494,885
493,178,497,492,192
495,95,495,486,702
494,911,497,490,523
492,108,498,491,147
495,891,496,489,875
493,446,497,493,290
495,112,496,492,269
496,900,496,489,855
495,147,494,491,172
497,108,497,490,541
496,928,498,493,624
497,108,497,492,136
497,807,499,492,869
495,640,499,493,382
498,107,496,494,215
495,904,498,488,881
496,238,499,494,209
495,101,497,489,391
492,919,498,492,756
494,122,498,495,166
494,521,497,492,777
495,872,495,492,514
495,117,495,494,185
495,886,495,494,913
492,381,496,492,301
497,102,495,493,332
495,917,496,495,874
495,125,497,494,215
494,172,495,494,640
493,918,496,493,622
494,107,496,496,190
494,885,495,492,900
494,564,497,494,393
493,94,497,494,353
493,919,495,492,824
494,120,496,496,195
496,318,497,493,681
494,912,497,496,543
494,105,496,496,153
495,888,495,495,862
495,498,496,497,306
496,110,496,497,232
493,908,496,495,846
494,169,497,497,148
496,96,496,494,710
496,904,495,496,484
494,116,495,495,130
495,904,496,494,864
496,437,497,495,280
495,100,494,493,272
495,910,496,493,866
495,118,497,495,198
497,96,494,494,809
493,819,494,493,506
495,98,495,494,293
494,909,496,492,914
495,170,495,494,234
494,97,495,494,741
493,925,494,495,563
494,107,495,495,211
495,894,495,493,901
494,469,494,494,351
495,107,496,496,304
496,907,495,493,872
496,129,496,495,209
495,98,496,495,766
493,854,492,493,477
496,120,493,493,149
494,909,494,492,860
495,394,496,495,240
496,105,494,493,268
494,906,493,496,785
495,123,495,493,132
494,203,495,495,572
493,910,494,492,545
493,114,495,494,108
496,895,495,490,853
494,546,495,495,321
494,94,497,490,306
496,910,497,492,804
495,122,496,491,173
496,334,497,493,704
495,918,497,494,568
494,114,496,493,183
495,902,494,495,909
495,496,498,494,353
493,105,496,488,296
494,903,494,497,889
493,139,505,496,225
493,105,495,498,543
494,919,502,499,691
494,125,479,491,192
494,715,502,493,868
493,715,486,492,445
493,94,490,495,307
495,911,478,491,857
494,137,468,495,190
496,98,509,493,777
494,829,503,493,463
496,110,498,494,143
495,909,471,492,859
494,376,497,490,242
495,114,496,495,289
492,907,464,496,814
497,110,503,487,167
494,226,475,492,626
495,920,500,492,567
497,117,497,490,140
495,872,501,486,875
492,544,498,495,346
494,106,496,492,246
493,906,495,491,872
494,182,498,491,187
496,94,495,491,711
495,914,496,498,535
495,104,496,495,168
494,888,495,490,887
494,473,498,490,311
495,110,500,484,262
493,911,495,495,853
495,130,504,490,179
494,96,501,483,749
493,864,501,496,476
494,105,496,492,147
494,882,500,488,872
495,408,499,491,265
495,107,497,492,295
494,910,500,488,849
494,136,500,492,177
494,149,496,487,590
494,915,497,492,607
495,126,497,494,153
496,866,496,489,883
493,601,496,493,379
493,115,497,492,241
495,902,496,493,886
494,198,495,497,214
494,99,497,496,663
493,922,496,491,578
498,124,496,494,181
492,894,497,491,898
494,523,496,496,352
495,104,496,491,275
493,905,495,494,882
494,156,496,493,203
494,97,495,494,735
494,905,494,494,522
494,99,496,493,247
494,904,496,494,888
493,205,495,494,229
496,101,495,495,427
495,911,495,495,757
494,126,494,492,173
494,561,495,493,776
495,842,494,494,471
494,94,496,493,233
495,902,495,494,855
493,187,493,492,161
495,99,493,494,677
495,919,493,494,493
493,110,493,496,118
495,893,494,492,851
493,476,496,496,277
494,101,494,494,229
493,899,495,494,847
493,137,493,492,157
495,96,492,493,754
495,869,494,491,485
496,104,494,493,163
493,905,493,493,907
493,402,496,492,300
495,102,494,491,326
491,910,494,495,869
494,112,494,492,223
493,160,494,494,644
493,924,494,492,625
494,130,494,494,191
493,873,495,493,903
495,577,493,493,395
494,95,496,496,361
496,924,494,491,831
495,133,495,493,218
493,310,494,493,704
494,911,493,492,568
497,103,496,496,179
494,892,495,496,878
493,493,495,491,332
496,100,495,491,254
493,890,495,494,848
494,146,494,491,167
496,102,494,498,482
495,906,495,493,643
495,117,497,496,128
494,746,498,499,834
494,718,501,493,394
497,108,497,500,173
495,900,488,491,869
495,262,503,497,207
497,104,503,494,353
496,907,502,499,789
495,133,496,497,161
498,430,499,492,738
496,915,502,494,521
495,106,501,497,169
494,897,499,498,898
493,450,506,495,320
496,110,495,495,295
496,915,488,495,885
494,126,495,500,207
493,93,476,482,798
494,837,497,485,499
494,106,492,484,191
495,896,494,494,892
494,389,500,500,288
494,110,492,491,322
495,896,499,494,853
496,111,490,487,198
497,191,498,497,639
495,928,497,492,594
495,124,490,496,177
494,861,493,491,887
494,556,495,494,367
497,104,496,492,247
495,906,495,492,871
492,199,499,494,186
495,94,496,484,673
494,917,496,490,534
494,106,497,490,146
493,904,495,498,870
494,493,501,485,304
496,102,498,496,240
491,912,503,489,847
494,148,500,491,158
495,96,497,486,710
494,901,499,492,480
494,117,497,488,129
494,902,498,492,863
493,423,497,493,271
495,90,497,493,407
492,914,496,493,727
494,121,497,492,155
495,613,496,493,790
498,802,496,493,473
495,100,497,493,179
495,912,496,491,892
493,348,495,492,269
494,103,496,494,329
496,911,495,495,840
497,124,496,494,208
496,249,496,494,675
495,909,496,493,598
493,124,496,495,194
494,896,495,494,910
495,529,495,496,382
494,105,496,496,294
496,912,494,493,895
497,192,495,496,230
494,104,495,493,485
494,909,495,493,703
496,111,496,495,180
493,690,494,493,815
497,751,496,493,442
494,105,494,493,181
493,896,495,494,858
495,325,495,493,221
494,98,495,492,485
494,907,494,493,621
493,116,496,496,112
494,764,495,492,828
495,689,495,494,370
494,106,495,495,161
493,896,495,494,853
493,237,494,494,192
495,102,495,493,357
493,912,496,495,771
494,114,494,496,179
495,469,496,493,756
495,910,494,495,525
495,115,494,493,175
494,884,496,493,893
494,415,498,495,308
493,99,493,492,439
494,922,495,493,756
495,122,495,494,186
496,620,495,494,819
495,809,497,496,489
495,129,495,494,188
496,898,494,492,898
494,332,495,495,275
495,109,490,493,337
492,905,496,491,832
495,125,496,494,192
493,240,495,495,651
493,914,498,494,580
493,127,497,491,168
494,900,497,492,888
493,530,498,493,351
493,110,497,494,256
495,893,495,497,879
493,161,497,493,188
496,99,498,492,705
494,920,493,495,514
493,111,504,490,151
494,899,499,491,873
493,453,486,498,291
493,106,485,490,262
493,907,488,496,836
497,139,499,491,164
498,96,494,486,751
493,855,494,494,469
496,120,497,499,146
493,891,493,487,881
493,382,490,499,264
492,112,499,493,282
492,912,489,500,833
495,118,492,501,168
492,151,489,494,598
492,905,486,488,598
495,119,507,498,136
496,863,485,492,878
493,567,495,499,366
496,111,484,492,247
492,899,494,495,900
492,188,497,491,224
495,103,495,492,456
492,919,498,499,748
497,106,495,492,194
495,641,497,488,818
492,791,495,494,482
495,109,495,491,201
493,902,497,488,898
494,340,498,493,265
493,108,495,491,340
492,916,498,496,825
494,129,500,491,187
494,268,498,488,655
496,917,497,493,564
492,105,499,491,150
495,897,497,491,876
495,527,499,493,331
494,99,499,484,333
493,911,498,489,777
493,118,497,490,147
491,382,497,491,694
494,910,497,492,511
493,122,497,493,140
494,891,497,494,880
496,469,496,491,304
493,116,495,491,258
494,903,496,492,859
493,140,495,493,186
492,89,496,492,769
495,876,496,492,510
496,123,496,494,183
494,903,496,493,907
495,409,495,492,305
493,101,497,493,328
492,918,496,493,888
494,126,495,494,224
494,152,495,492,639
493,899,496,492,634
494,120,496,495,194
494,860,495,494,905
494,584,497,496,396
495,108,496,493,267
494,902,495,495,889
494,180,497,494,217
495,93,494,495,682
494,917,497,495,547
496,126,495,494,160
494,889,494,494,862
493,496,496,494,318
493,102,496,494,250
492,906,494,494,853
494,165,494,494,167
494,95,494,493,718
493,894,496,495,479
494,115,495,493,129
494,887,496,493,859
495,419,494,494,259
493,96,495,495,402
495,931,494,494,706
495,125,497,496,144
496,633,496,494,775
495,818,495,493,460
493,120,496,494,169
493,896,494,492,878
493,362,496,495,258
495,111,494,497,322
493,914,495,495,834
493,121,494,493,192
494,241,497,496,657
493,910,494,489,594
496,117,495,497,168
493,880,497,494,895
493,527,496,494,365
495,111,496,492,270
493,899,497,490,893
495,184,493,498,221
496,98,499,492,723
494,913,502,490,541
494,108,496,494,177
495,898,493,485,888
494,462,493,495,320
496,103,499,493,285
493,907,498,489,862
492,120,498,488,189
494,100,499,496,534
497,902,501,489,639
494,123,491,496,146
493,791,490,495,854
499,650,494,503,377
493,119,482,495,192
498,905,493,492,854
498,247,489,495,178
494,98,484,483,582
483,917,511,493,562
493,111,477,489,128
495,866,484,495,871
491,552,503,493,351
496,108,501,496,234
496,907,500,495,884
500,192,497,491,205
492,104,496,500,449
493,910,496,487,731
489,119,503,494,183
495,642,503,513,831
495,784,501,495,487
494,128,503,492,202
494,895,502,490,898
493,339,498,493,280
495,108,496,495,345
497,913,497,490,839
495,132,497,491,208
494,277,501,487,680
494,917,498,490,574
491,118,500,493,169
494,893,498,494,881
493,510,498,491,339
496,117,496,496,252
496,898,496,495,857
494,172,499,491,175
497,101,495,496,467
495,920,498,489,655
499,109,498,491,134
495,709,495,491,827
495,721,499,490,407
495,129,497,490,166
497,887,496,495,863
495,254,496,494,210
494,110,495,492,349
495,901,496,498,782
495,131,496,494,166
494,422,494,494,735
494,913,496,494,526
497,98,495,487,228
493,906,495,491,900
495,231,496,493,223
495,96,493,492,646
494,929,494,493,604
493,125,495,493,187
494,875,496,493,909
496,555,495,492,388
494,117,495,495,288
494,893,496,492,906
495,197,496,495,248
495,94,494,493,714
495,911,495,495,576
495,120,495,492,200
493,908,495,494,887
494,490,495,496,336
495,105,494,494,277
493,905,495,492,853
495,153,494,495,181
496,95,496,495,736
494,886,495,494,476
493,98,495,494,210
493,908,496,497,847
494,195,496,493,151
494,96,495,497,619
494,917,494,494,505
496,111,495,495,107
493,906,496,495,839
495,493,495,495,294
493,105,494,494,244
496,901,494,494,849
495,133,494,493,174
493,94,494,493,747
493,900,497,494,498
493,107,495,496,158
494,894,497,491,882
494,424,494,486,296
493,109,498,499,299
493,901,496,493,860
494,134,496,496,204
494,131,497,498,605
495,927,500,492,624
496,106,497,494,171
494,861,493,494,898
493,595,493,496,391
494,117,493,493,259
496,897,493,490,894
493,220,490,494,222
495,98,488,493,675
494,916,486,491,581
495,101,486,499,175
494,885,490,494,885
496,517,493,496,345
496,117,493,496,254
497,899,488,493,873
495,144,484,494,189
497,95,501,486,721
491,919,463,498,501
495,114,490,498,147
495,886,490,489,860
497,430,490,490,281
496,103,497,493,272
496,907,515,490,843
497,136,498,491,170
496,106,497,493,571
490,918,499,490,605
496,115,493,501,139
498,832,497,492,868
491,594,493,488,360
494,95,498,496,321
492,921,496,491,829
494,125,495,493,190
495,287,494,492,684
493,920,495,493,574
495,110,499,488,171
492,892,494,489,903
495,515,496,493,348
494,99,496,489,375
494,912,496,500,794
495,112,497,492,183
495,447,497,492,739
493,906,497,490,518
494,108,498,493,156
495,888,496,491,882
495,433,497,493,303
493,99,497,488,404
494,919,497,492,737
496,129,498,486,160
494,580,495,492,774
491,820,499,492,460
493,115,496,493,145
494,894,496,490,871
495,348,496,493,239
496,104,494,493,305
495,904,496,494,827
494,139,497,497,179
495,235,495,494,641
495,918,496,492,568
497,125,495,494,144
496,888,496,494,891
495,518,496,494,336
495,102,496,493,263
495,908,496,495,889
493,171,494,492,215
494,90,495,490,742
495,904,494,493,540
495,103,494,493,189
494,895,496,494,915
494,431,495,493,333
495,103,494,496,321
493,910,494,497,888
494,117,495,494,223
494,105,495,493,576
493,902,496,495,646
496,117,496,492,167
495,792,494,495,868
493,637,496,493,384
494,106,495,492,210
494,905,496,493,871
494,227,497,494,194
496,104,494,493,366
495,921,495,491,743
495,133,496,494,136
495,513,495,494,751
496,868,494,494,467
495,126,492,493,142
494,903,494,492,864
496,408,496,495,259
493,98,497,490,434
495,916,496,492,712
495,134,496,492,173
494,649,494,488,825
495,801,495,490,465
495,112,495,492,189
494,901,495,491,895
495,317,498,496,256
494,104,496,491,341
495,912,497,495,823
498,127,495,494,199
493,282,491,494,679
495,916,494,497,578
494,104,497,492,187
494,891,500,494,909
497,507,497,489,350
495,96,490,496,378
495,910,499,494,800
495,129,479,498,183
494,436,479,486,745
495,915,494,498,521
491,108,499,495,158
496,889,497,492,880
494,419,473,492,283
495,96,489,496,402
497,915,496,495,723
494,126,501,493,142
494,595,497,493,787
493,826,491,499,459
495,132,495,490,155
496,911,497,496,878
494,353,494,496,254
495,108,494,494,314
492,915,497,493,831
493,121,500,498,187
493,248,497,496,653
496,903,494,492,581
495,122,494,494,158
495,895,494,493,885
495,530,496,493,349
496,96,495,495,351
495,922,495,491,807
494,117,494,493,177
493,389,496,491,716
494,923,495,495,519
497,101,496,492,150
496,898,492,494,882
492,451,494,494,285
493,103,493,493,269
494,911,493,490,849
496,131,494,492,170
497,91,495,494,768
495,847,498,495,481
495,106,497,489,149
495,893,497,497,895
494,383,496,491,273
494,98,497,491,460
494,923,497,490,706
495,110,498,491,168
494,681,496,492,832
496,760,497,491,455
493,110,497,493,200
495,909,496,490,896
500,302,497,497,244
496,103,498,496,349
493,918,499,488,816
496,131,496,498,190
493,366,497,489,716
493,916,500,495,552
495,119,496,497,184
496,897,497,488,897
496,479,496,494,342
492,105,495,491,285
498,908,495,501,883
493,130,496,494,207
496,105,494,495,519
494,904,496,493,673
495,122,495,496,176
494,724,495,492,859
494,717,495,494,436
494,116,494,492,218
495,903,494,493,884
494,252,495,491,229
496,98,495,494,558
495,904,495,493,618
494,114,496,496,144
495,821,494,493,871
496,618,496,493,368
494,100,496,493,213
495,916,495,494,869
493,223,496,493,194
495,103,495,493,393
494,918,497,493,738
495,123,497,495,162
495,596,497,494,795
494,835,498,492,486
496,108,496,493,182
493,891,498,495,887
495,383,497,494,278
493,104,498,495,321
496,922,496,494,853
493,119,498,495,199
494,207,496,496,652
494,908,498,496,604
496,129,496,493,187
495,885,496,494,905
494,543,497,497,376
496,101,495,495,279
494,907,496,496,888
495,191,496,495,227
495,102,496,493,489
494,909,495,496,732
494,119,495,494,206
495,654,495,493,827
495,772,496,495,472
494,124,496,495,189
496,887,497,494,883
495,313,498,494,257
494,104,494,493,323
494,902,495,494,800
494,119,497,494,165
493,319,495,493,658
496,902,496,493,525
494,103,496,498,123
494,903,494,496,856
493,485,491,492,294
496,98,496,491,345
494,901,494,487,757
495,127,496,498,139
495,501,496,498,743
495,901,499,492,493
496,103,500,498,142
494,887,499,491,875
493,423,504,493,287
495,106,496,491,290
493,907,494,492,858
494,134,498,493,186
496,106,494,493,581
494,907,498,493,614
495,121,495,496,167
495,855,500,490,901
494,604,489,493,394
497,102,495,499,257
494,905,506,495,899
496,207,492,501,227
496,100,493,496,453
495,912,490,495,740
498,125,501,502,183
494,618,499,500,803
492,801,500,496,464
498,110,480,500,171
492,902,490,500,883
495,347,495,485,247
495,100,497,494,321
491,908,503,499,824
495,116,488,495,186
494,275,485,495,671
493,916,495,488,567
495,119,496,493,173
500,890,495,492,894
493,509,496,494,350
499,100,485,489,266
493,917,490,495,868
496,137,496,490,198
496,95,496,497,729
495,913,495,493,512
493,97,497,491,225
495,896,497,494,869
495,222,497,496,182
496,96,503,492,613
494,905,493,492,544
494,107,496,491,127
494,884,494,496,869
494,526,496,495,317
496,105,497,490,224
491,893,494,490,872
493,171,494,494,176
494,102,496,493,468
493,909,497,493,691
496,123,498,482,160
494,683,493,491,865
494,747,495,494,447
497,126,494,491,209
494,898,495,490,914
496,277,496,490,247
494,94,497,492,562
491,916,496,490,657
494,118,496,492,187
494,782,497,492,888
492,654,496,491,416
492,110,494,493,230
492,902,496,490,890
493,244,495,493,222
495,99,494,494,611
492,908,496,494,582
494,116,494,494,147
492,870,494,493,862
494,558,496,492,350
493,99,496,493,307
493,915,494,495,801
492,121,495,494,157
491,303,493,493,663
490,915,495,494,534
494,126,496,495,148
492,887,494,493,882
494,502,494,495,328
493,106,494,493,253
493,906,494,491,863
493,141,494,495,185
492,95,492,494,736
493,904,496,494,502
493,107,495,494,154
491,887,495,494,885
494,424,495,493,300
492,102,495,495,299
491,915,495,495,866
494,120,497,492,199
493,103,496,495,593
494,929,495,494,629
495,122,496,496,167
493,854,494,494,897
491,617,497,496,402
493,97,497,494,338
492,912,495,496,848
494,119,496,495,216
493,247,494,493,668
492,917,494,494,581
494,114,495,495,173
492,898,493,494,881
494,514,495,494,339
495,95,494,495,350
492,924,495,493,770
493,129,494,494,149
492,426,495,492,694
492,912,494,493,475
495,104,494,493,107
493,894,493,493,852
495,438,497,494,264
493,112,493,494,252
492,918,493,494,834
493,120,494,494,167
496,93,493,493,777
493,813,497,493,461
494,101,495,493,167
495,882,496,492,900
495,357,494,494,282
495,96,500,493,498
495,905,495,493,712
495,122,495,495,194
495,686,493,493,869
495,741,497,496,460
496,129,495,493,227
495,908,495,494,894
498,297,493,496,263
495,110,495,492,363
494,907,495,491,816
496,122,496,495,204
495,362,493,492,718
495,913,494,493,559
497,105,494,495,191
494,887,493,488,902
494,459,495,495,345
495,105,493,498,301
494,913,494,486,874
496,146,496,492,201
497,91,494,489,756
494,878,494,494,495
496,106,506,495,144
500,889,496,494,850
494,391,487,502,248
496,110,484,488,265
492,921,495,492,806
494,117,505,500,140
498,156,514,495,573
493,910,511,489,568
497,104,498,501,101
496,841,499,494,849
493,595,495,495,332
498,117,484,492,201
494,894,497,488,873
496,206,486,491,209
497,102,491,490,439
496,912,491,496,752
497,110,499,497,186
496,609,491,498,805
496,821,493,499,492
499,115,492,495,201
492,912,496,491,902
495,359,497,497,287
494,103,496,493,343
495,909,498,493,842
494,118,496,498,209
497,234,497,491,655
495,917,498,494,593
494,110,497,490,171
495,877,497,495,886
496,538,498,491,360
495,113,498,495,255
493,902,497,492,875
494,168,499,488,186
495,98,497,495,685
494,906,501,492,512
495,114,498,489,140
494,910,498,492,873
493,462,498,494,286
494,101,495,493,253
494,906,496,495,839
493,135,496,493,162
493,93,495,491,748
491,839,497,493,451
497,103,495,493,127
493,894,496,494,869
495,382,496,491,239
495,109,493,493,287
493,899,495,491,841
494,127,494,493,188
494,194,496,494,633
496,909,496,493,593
496,130,495,495,171
494,882,496,493,895
496,551,495,493,370
498,110,495,494,261
493,903,495,493,890
493,192,495,493,227
494,97,494,491,694
493,918,496,493,571
492,127,496,492,178
494,901,494,495,886
495,479,495,494,336
494,108,494,495,283
493,904,495,493,863
493,156,495,494,194
495,95,494,495,748
494,881,496,496,491
492,106,494,494,158
494,894,492,495,863
493,406,494,495,262
495,103,493,493,277
495,911,494,496,825
495,129,493,496,156
494,157,493,496,584
494,924,493,496,584
496,123,494,494,146
494,867,494,493,887
495,577,494,495,361
493,92,495,493,327
497,902,495,495,806
494,124,495,495,186
494,314,494,495,690
494,909,494,495,564
494,112,494,496,168
494,899,493,494,880
495,504,495,495,341
494,101,497,492,265
493,904,493,493,873
492,146,496,494,186
493,104,493,493,496
495,898,496,495,666
494,127,494,493,159
495,719,495,493,848
493,706,494,493,412
494,124,495,494,191
495,896,496,493,880
494,259,495,494,239
493,112,496,493,375
494,917,496,493,796
494,112,494,496,188
495,425,497,495,753
494,920,497,495,537
494,116,495,495,189
494,886,495,492,900
495,447,497,492,330
494,106,495,495,302
492,913,495,495,858
494,137,496,494,189
495,95,496,493,768
493,859,494,494,471
493,122,496,493,150
494,893,496,493,851
493,386,494,494,245
496,111,494,495,282
494,908,496,491,811
494,128,496,493,169
493,181,495,494,596
493,913,494,494,582
494,127,494,493,138
495,891,496,494,870
493,575,492,495,349
493,116,495,494,235
494,901,495,494,867
494,206,494,493,188
496,101,494,493,430
496,913,495,494,724
496,116,496,493,166
494,638,496,493,803
493,792,493,494,464
494,123,494,492,185
494,906,496,496,900
496,333,494,493,264
496,108,495,502,341
493,912,496,491,835
495,127,496,490,208
494,293,496,495,686
495,915,497,494,582
495,120,494,499,187
496,896,501,491,915
493,520,496,495,373
493,108,496,497,298
494,911,499,491,901
495,168,497,486,233
497,90,498,491,730
495,912,495,495,547
495,102,500,492,178
495,897,499,494,886
495,458,490,499,321
495,107,485,496,281
496,913,493,495,865
495,148,498,483,179
497,103,491,500,528
493,903,497,497,640
494,124,484,496,143
494,777,487,480,863
493,666,501,494,392
491,104,500,496,197
493,911,492,493,881
496,244,494,497,217
496,96,495,491,583
494,902,496,495,602
493,110,496,491,148
493,851,496,494,885
492,592,496,491,375
492,105,495,493,248
496,909,494,493,885
495,199,496,492,227
494,95,496,490,688
493,911,494,494,571
493,116,496,497,177
494,902,495,490,896
495,511,498,495,353
497,103,497,488,287
494,891,497,491,880
493,151,498,492,208
493,94,497,491,733
493,904,497,492,518
493,120,497,492,161
495,899,496,491,876
495,426,498,490,294
497,107,494,494,276
496,894,496,491,843
494,130,496,493,179
494,105,495,494,562
495,903,497,491,608
494,124,496,493,136
495,822,495,493,874
493,615,496,494,366
494,111,496,492,222
494,892,496,491,886
495,203,496,493,215
494,100,494,493,427
493,916,496,491,763
495,125,497,494,193
493,581,494,492,805
496,830,498,493,500
493,118,495,494,199
495,902,495,494,894
495,358,496,494,299
494,101,495,493,345
495,904,494,494,848
493,134,495,495,216
493,229,495,496,651
493,915,493,495,592
494,111,495,495,162
495,882,494,494,876
494,543,496,496,350
494,112,495,495,245
494,892,495,494,867
494,187,496,494,190
495,97,494,494,687
493,923,496,495,515
494,109,495,494,136
494,906,494,493,864
494,458,495,494,280
494,101,496,493,253
493,917,494,495,848
494,142,495,493,174
496,95,498,494,771
494,859,500,499,485
494,122,496,493,165
495,889,495,489,886
494,384,495,490,283
496,94,498,489,476
495,922,497,490,718
495,113,496,494,188
495,671,496,486,837
496,746,500,490,457
495,125,496,492,204
495,909,497,488,878
494,290,496,495,245
496,100,497,495,344
496,912,495,492,800
495,127,496,495,186
494,372,492,494,696
494,912,498,492,538
493,130,492,497,164
494,884,499,493,884
494,473,494,495,323
495,103,495,497,268
494,898,514,500,860
495,134,472,494,186
494,95,498,495,739
495,905,505,482,493
497,114,487,495,156
494,887,502,491,873
494,425,487,501,286
496,101,493,493,285
493,908,496,498,853
495,131,494,496,193
496,112,494,491,588
494,915,484,497,617
497,122,489,491,173
495,822,496,497,885
493,592,499,494,384
495,105,494,492,242
492,891,496,492,881
494,218,495,492,216
496,100,495,493,420
494,900,498,491,743
496,124,495,495,176
495,601,495,491,788
493,830,497,491,480
496,127,494,490,162
495,905,496,492,871
495,360,497,494,250
496,96,496,489,463
494,922,498,484,677
497,121,497,492,149
494,693,496,490,820
493,747,498,486,427
497,124,497,493,170
493,908,495,490,869
495,311,497,493,228
493,102,494,494,329
495,893,496,492,805
494,133,496,490,167
492,385,495,493,710
496,922,495,488,538
496,107,496,494,166
492,899,496,493,893
493,468,496,492,334
494,94,497,491,401
495,915,495,494,778
495,127,494,495,196
493,510,495,489,782
494,858,495,490,517
495,123,495,494,200
495,884,495,489,898
496,391,495,492,310
494,98,497,487,459
495,920,493,491,717
494,122,492,499,192
492,653,499,483,828
493,779,496,500,465
496,128,494,500,197
495,903,497,488,885
492,315,496,502,245
494,111,494,491,338
493,906,494,492,796
495,131,493,491,179
494,335,493,496,689
492,911,496,494,530
495,126,495,490,155
494,901,494,490,869
493,469,496,493,295
496,111,494,488,256
495,915,494,493,853
493,128,494,494,175
497,93,495,491,764
492,866,498,496,476
494,103,495,493,151
494,888,498,499,882
493,391,496,494,262
495,102,494,495,306
493,913,494,492,846
494,115,497,495,198
495,167,494,493,618
494,911,496,493,613
491,124,494,493,191
495,866,494,491,893
496,573,496,493,382
495,98,495,492,355
492,909,495,497,818
493,125,497,497,202
496,337,495,493,706
493,906,495,496,564
495,116,497,495,168
493,891,496,493,881
496,481,498,494,327
493,105,497,496,271
494,912,494,497,864
494,154,497,492,196
494,97,496,496,744
495,899,496,494,501
494,127,495,497,157
493,894,497,494,876
492,419,496,498,278
496,107,498,495,282
495,915,499,499,844
494,123,496,492,178
496,92,498,496,764
493,826,499,504,457
493,120,496,492,161
494,899,495,490,869
493,365,496,498,245
496,109,499,489,303
494,914,497,497,821
495,130,496,496,175
496,225,495,489,644
494,920,497,494,568
497,125,494,498,164
497,891,493,496,888
494,517,497,499,355
498,96,500,497,357
498,911,496,498,802
493,118,498,498,184
495,383,487,494,719
493,918,488,496,523
496,101,498,495,148
498,896,490,489,883
498,456,503,491,306
494,112,494,496,274
499,901,482,489,862
495,137,495,493,186
495,102,497,500,551
494,922,502,497,655
496,124,497,500,168
497,805,495,496,897
496,641,498,496,405
497,95,495,494,333
494,911,497,494,852
495,129,496,500,215
494,214,497,493,658
494,908,496,492,603
497,124,497,487,187
494,878,498,492,899
493,538,497,489,360
496,106,496,489,266
494,897,497,493,873
494,169,498,492,197
495,103,498,493,471
496,906,496,494,664
494,115,498,489,143
495,694,497,497,809
494,726,497,489,402
495,111,495,495,163
490,899,495,491,866
494,267,495,492,201
495,110,497,491,331
495,905,495,493,776
495,124,496,494,154
497,404,494,492,730
496,911,497,494,529
496,121,495,494,175
495,907,495,492,902
494,429,496,492,320
497,106,493,494,308
496,900,495,494,887
494,137,497,493,226
496,105,495,493,587
494,915,496,493,668
494,118,494,493,207
494,797,494,492,911
494,643,495,493,429
495,111,496,494,257
495,897,494,493,896
495,227,495,496,257
495,104,495,492,417
494,905,495,494,764
494,111,494,496,180
495,510,493,495,757
493,887,496,495,487
496,102,495,494,155
495,888,493,493,855
495,403,497,495,257
494,102,494,492,260
495,906,494,492,828
494,139,494,501,154
497,114,495,500,554
494,901,494,492,583
496,128,497,496,129
495,868,495,496,854
493,579,495,492,346
496,100,497,496,223
494,910,497,493,875
496,187,491,494,193
494,102,497,495,433
494,911,502,497,745
495,118,500,496,189
495,580,497,499,819
493,824,504,499,489
496,119,494,490,178
496,887,493,501,901
496,367,481,502,279
496,107,494,489,323
497,898,506,494,830
493,129,496,476,193
492,217,498,493,654
495,911,494,494,592
493,126,495,495,165
495,881,480,491,887
496,537,493,491,354
495,111,497,497,262
493,910,488,491,884
493,170,498,490,205
493,104,496,491,478
494,920,496,492,692
495,111,500,491,160
496,706,495,488,835
493,742,497,493,434
496,125,497,491,191
495,909,497,491,881
496,303,495,491,245
493,101,494,491,346
493,917,496,491,791
495,130,495,492,173
497,382,496,491,710
495,922,495,489,525
495,123,496,491,154
494,886,497,495,871
494,479,498,493,298
494,111,497,490,265
496,894,495,486,847
494,128,500,495,167
493,105,496,494,516
495,909,496,493,628
497,123,494,490,134
496,778,496,494,864
493,654,495,494,387
498,124,496,492,212
496,905,495,494,886
493,244,495,490,226
494,98,495,493,615
496,900,495,492,616
497,115,496,493,168
495,879,497,492,902
494,589,494,493,388
494,113,495,498,258
497,896,496,491,904
494,198,495,492,237
495,102,495,494,462
494,931,495,493,749
494,112,496,494,210
494,622,495,494,814
495,812,497,494,497
493,108,495,492,210
496,902,493,493,898
493,351,495,493,291
494,95,496,495,496
494,928,495,494,683
493,108,495,495,172
493,716,495,493,817
494,727,495,493,417
494,105,495,492,162
494,901,493,494,856
494,306,497,493,202
492,108,494,494,297
496,915,495,494,779
494,131,496,496,128
494,326,495,494,657
496,919,494,495,514
494,111,494,495,121
494,893,493,494,877
496,495,496,494,318
496,108,496,495,263
494,896,494,493,881
494,130,496,494,196
496,100,495,498,527
494,911,494,496,682
497,130,496,495,181
494,719,496,494,864
493,704,496,495,447
494,116,496,489,220
495,895,496,493,899
495,262,497,494,251
494,96,497,492,580
494,905,499,491,636
495,130,500,491,171
495,817,494,492,884
493,627,495,501,394
494,105,499,496,240
494,901,496,498,887
495,210,495,495,225
495,91,497,496,629
495,925,493,492,590
494,108,494,493,165
496,879,504,491,874
496,561,507,499,362
492,102,482,495,251
495,908,489,492,868
497,193,497,496,187
497,92,493,501,673
497,905,493,496,520
497,122,498,492,133
497,897,506,503,858
497,492,503,510,283
498,105,513,492,231
497,894,495,493,835
494,150,502,495,153
489,94,504,492,737
495,898,493,496,487
495,132,519,506,127
498,886,495,494,871
494,411,499,500,277
496,105,496,492,296
495,918,490,503,856
495,125,501,493,205
495,144,500,495,621
492,921,501,494,630
494,116,498,492,185
496,854,497,493,913
493,571,497,492,397
495,96,499,489,358
494,897,497,491,844
494,126,496,486,221
493,302,495,490,699
493,906,496,492,584
493,103,496,489,188
493,898,494,491,903
495,501,497,487,349
495,119,495,489,269
493,903,496,498,855
494,160,495,489,184
495,92,496,497,716
494,911,497,495,487
495,124,496,491,136
495,900,497,491,850
495,426,498,494,251
496,109,495,491,249
494,914,497,494,818
494,126,498,495,146
494,117,496,490,550
494,919,497,493,586
496,130,495,493,138
495,830,496,494,866
492,606,496,495,364
496,111,494,491,222
496,911,494,497,887
493,203,495,493,224
493,102,494,492,419
493,920,495,493,778
494,120,495,493,203
495,546,495,493,801
495,861,494,494,515
493,106,496,495,191
494,911,493,492,903
495,374,495,494,306
494,94,495,493,485
494,903,496,492,733
495,119,495,494,197
494,657,495,492,836
493,783,495,492,477
493,117,496,492,210
495,899,494,494,896
494,331,495,494,265
495,98,495,493,506
493,919,495,492,656
494,120,495,493,161
494,723,495,493,843
493,709,496,495,405
495,115,496,494,178
495,887,494,494,846
494,262,495,494,171
494,93,494,495,515
492,911,495,495,564
496,123,494,493,93
495,899,494,494,865
495,354,494,495,233
494,95,496,492,454
494,923,494,495,674
494,124,495,495,146
496,711,496,495,847
494,741,495,495,442
495,99,495,493,290
495,897,494,495,887
494,145,495,495,212
496,90,495,493,799
496,857,496,494,504
497,116,496,496,191
496,892,496,493,907
495,383,497,492,306
495,102,497,496,336
493,920,492,497,865
495,121,504,507,217
494,194,496,492,638
494,921,496,487,606
493,117,498,493,164
496,859,495,494,890
494,564,495,491,371
497,97,494,498,340
492,909,490,496,824
494,129,495,500,184
497,322,497,494,689
495,920,494,492,553
496,122,498,490,158
498,893,493,491,880
496,495,505,486,325
495,112,479,498,259
495,908,508,499,864
494,171,490,492,174
494,101,488,490,488
495,923,496,483,650
497,128,495,492,136
497,729,497,496,839
499,722,498,499,402
495,103,501,500,186
496,897,497,493,877
492,284,491,497,219
496,97,496,496,541
494,910,499,498,624
496,115,496,491,152
493,790,498,494,876
495,643,504,495,396
493,120,499,492,228
494,894,496,494,890
494,227,495,491,226
496,104,499,489,419
493,918,495,490,773
494,133,497,495,197
494,524,496,488,791
494,863,495,489,511
496,126,496,490,179
495,911,497,490,892
495,393,498,487,287
493,104,496,489,308
494,913,497,491,839
495,123,498,497,189
495,159,499,493,594
493,904,496,493,596
494,125,496,493,150
495,858,497,492,872
496,569,495,495,338
493,101,497,494,217
495,903,496,496,860
493,184,494,493,171
495,91,495,494,650
495,909,496,492,521
493,105,495,495,129
494,899,498,488,878
494,490,495,492,327
496,107,497,492,264
497,896,496,491,871
494,153,494,496,198
497,100,495,491,511
497,905,496,494,679
495,118,496,492,176
496,715,495,493,854
495,729,494,493,435
494,122,494,492,212
496,913,496,492,893
496,271,494,493,258
495,103,494,494,362
495,916,496,492,807
495,116,496,494,201
494,402,497,492,731
496,914,495,492,536
493,117,494,496,170
496,887,495,494,889
495,464,495,495,318
495,106,494,494,293
493,905,495,496,861
495,136,496,494,197
493,87,495,493,772
494,861,493,494,486
496,99,494,492,247
496,915,495,495,870
494,183,495,493,188
494,92,495,491,673
495,917,495,493,527
495,109,495,492,133
494,878,494,493,872
494,490,497,493,311
493,99,495,491,353
493,907,495,493,769
494,113,495,492,156
495,459,496,494,737
495,914,495,495,512
493,99,497,493,234
493,901,497,492,880
493,214,496,494,209
496,100,494,493,421
494,902,497,497,753
494,114,496,488,169
493,578,499,494,785
496,827,496,492,478
496,130,500,493,174
494,905,499,490,884
494,348,497,494,263
493,107,492,494,319
494,903,496,497,832
494,118,496,495,192
496,210,497,494,643
494,910,495,497,591
497,129,494,496,168
494,870,493,493,893
494,551,488,496,363
496,102,489,492,263
495,910,499,492,884
494,166,504,490,212
497,99,501,511,686
496,910,499,497,540
492,113,492,501,151
495,898,482,490,874
497,472,505,491,315
492,113,492,485,265
496,901,476,504,862
496,143,493,494,173
494,89,495,494,753
495,882,494,497,478
493,107,495,490,136
495,907,495,495,882
495,409,498,494,277
495,101,497,494,287
494,905,496,494,855
493,125,496,495,171
496,120,498,492,582
494,899,496,490,603
494,124,496,492,138
494,852,497,488,881
493,603,496,491,374
494,108,497,490,229
492,902,498,491,894
494,205,496,498,210
495,100,496,497,428
498,899,497,492,751
493,126,496,492,187
492,606,495,491,808
494,822,496,491,485
494,105,496,492,176
495,889,497,495,900
494,357,495,497,275
495,106,496,497,327
494,903,495,491,840
495,126,496,493,188
495,244,495,492,661
494,922,496,494,585
494,109,494,490,160
493,879,495,494,889
492,531,494,496,349
494,111,494,492,256
494,893,495,491,870
493,153,497,491,201
496,94,495,495,714
493,918,495,494,533
494,117,495,496,158
495,905,494,495,888
495,471,495,494,316
495,109,494,494,285
493,910,496,493,863
493,138,496,493,206
494,105,496,495,546
495,912,495,493,646
495,119,496,492,170
495,779,496,494,865
496,655,495,492,396
494,118,495,493,215
493,892,494,495,879
493,237,495,494,209
494,107,494,493,375
495,918,494,493,767
493,115,495,493,161
495,494,495,493,752
493,891,494,493,506
493,111,495,494,156
493,900,495,493,886
495,409,496,494,290
495,112,493,493,303
497,918,494,495,861
494,133,494,495,195
497,127,495,495,600
494,923,494,494,626
495,121,494,496,179
495,825,494,494,892
493,601,497,494,392
496,100,495,495,250
495,904,494,494,889
493,196,495,493,215
494,95,494,491,644
495,923,497,495,563
497,126,495,496,157
496,885,494,493,872
494,529,496,497,342
493,113,495,495,243
493,905,496,497,871
495,189,498,494,191
494,101,494,496,455
496,924,493,498,700
495,118,497,489,162
494,686,496,485,816
495,754,498,492,446
496,106,494,486,189
494,887,496,491,885
496,319,498,499,259
494,103,497,499,342
493,901,498,493,827
495,124,499,497,197
496,336,498,494,715
495,910,493,494,550
493,107,484,497,168
497,886,496,499,897
495,472,495,502,334
494,108,496,505,282
494,911,498,503,870
494,137,495,497,200
494,84,499,498,761
495,885,495,496,497
495,103,502,495,157
494,886,498,496,887
492,409,493,495,288
496,110,504,491,288
494,910,496,500,847
494,124,491,497,181
497,128,496,494,601
492,918,496,496,612
496,115,499,493,167
493,869,497,494,889
496,579,494,493,378
494,121,494,491,249
493,911,495,492,881
494,181,494,491,209
493,97,493,493,680
494,911,494,491,558
493,108,494,492,162
495,883,493,491,882
495,503,492,489,325
495,111,494,490,253
493,908,492,493,864
494,144,496,492,175
496,96,495,490,725
495,909,494,492,493
492,103,494,490,139
495,889,494,488,863
492,432,496,489,271
491,112,495,491,265
495,899,495,491,840
494,126,495,494,169
495,91,495,487,770
496,836,496,495,466
492,107,496,494,170
495,907,496,493,895
494,362,495,501,266
497,96,496,493,488
494,911,495,492,700
493,125,493,493,178
494,699,493,496,856
495,744,495,491,448
495,107,496,492,214
495,891,495,494,902
499,277,496,494,264
494,103,495,493,373
494,896,496,495,816
495,119,497,495,206
495,384,497,494,734
495,923,496,493,545
497,120,497,495,171
495,903,495,494,884
494,472,496,493,321
496,96,497,492,381
495,897,497,494,766
495,115,496,492,162
496,499,495,493,749
494,873,496,494,496
497,119,496,494,158
494,895,496,492,875
494,407,497,493,279
495,95,496,493,420
495,907,495,495,724
494,124,494,495,157
494,626,496,493,788
495,795,494,494,461
495,105,495,493,175
494,907,493,493,886
494,342,493,495,263
496,101,494,493,327
495,903,496,494,827
494,120,496,495,186
493,268,494,492,669
495,914,495,489,560
496,121,496,490,158
495,877,492,496,881
495,501,496,495,330
495,104,497,494,262
494,908,495,494,868
493,141,495,493,191
496,101,496,493,494
495,930,495,494,672
495,117,495,496,162
492,719,493,495,865
495,711,494,494,433
496,102,494,495,211
494,904,498,492,895
497,277,498,499,255
496,108,498,492,372
496,918,492,500,820
497,128,501,496,193
495,406,488,491,742
496,907,498,499,540
495,121,484,492,172
496,896,494,497,888
493,446,491,493,312
493,100,492,494,282
493,901,490,496,853
491,128,503,493,173
494,93,485,490,767
493,841,495,492,472
495,110,494,491,150
493,893,498,493,873
494,391,496,491,273
492,103,494,493,306
495,905,497,493,836
493,125,496,493,204
492,188,493,488,648
495,922,494,490,603
492,128,495,488,170
494,885,494,490,898
492,540,495,488,365
496,102,494,486,258
493,895,496,504,874
493,180,496,493,190
493,98,495,488,688
496,913,496,488,518
494,109,499,491,142
495,904,496,489,865
494,470,497,491,305
494,102,496,494,257
493,903,496,495,855
492,146,495,492,172
494,100,494,489,523
492,916,494,496,640
493,126,495,493,140
495,779,494,492,876
494,658,496,497,389
493,96,496,490,302
493,904,494,491,856
493,135,495,489,190
491,159,494,493,616
494,926,495,493,612
497,113,495,491,174
490,879,497,493,910
493,578,495,493,391
495,110,496,493,273
495,903,495,493,904
494,189,495,490,237
494,96,496,493,680
496,925,494,492,582
494,113,494,493,181
495,894,494,492,887
495,518,496,496,351
496,100,493,494,266
496,908,495,495,867
494,171,494,493,182
494,95,494,495,716
495,904,496,492,507
495,110,495,492,149
495,908,495,495,861
495,440,496,493,283
496,113,495,496,266
493,903,495,496,838
494,133,495,493,164
496,87,494,495,778
494,822,496,495,464
496,121,496,495,159
494,900,494,490,881
493,366,495,494,262
494,112,495,492,307
495,920,494,494,829
494,119,495,493,185
493,222,495,494,634
495,919,495,493,587
493,110,495,494,170
494,894,495,496,883
493,549,494,497,357
495,107,495,499,251
494,893,495,492,873
495,185,498,487,199
495,104,497,493,461
493,913,500,495,712
494,125,500,496,166
495,659,499,491,829
500,756,497,498,451
495,106,499,497,188
495,908,498,496,881
492,288,501,487,242
494,103,501,490,345
494,919,499,488,810
497,131,501,495,183
495,351,497,493,719
496,916,501,505,547
495,114,502,491,166
494,894,495,494,897
495,479,500,495,327
492,103,499,497,272
495,907,505,502,871
493,148,497,492,190
493,87,499,494,764
497,881,497,491,500
494,109,499,505,177
494,907,499,490,885
493,408,496,501,289
494,110,499,490,300
495,906,497,494,844
494,133,493,502,194
494,139,495,496,611
497,912,495,495,614
493,125,496,491,161
495,859,496,491,878
493,576,495,492,368
492,115,495,495,239
494,903,496,494,875
495,205,496,493,191
494,98,495,494,651
496,915,493,495,549
493,114,497,490,146
493,899,495,490,878
494,517,497,490,323
496,97,497,501,330
493,915,494,493,793
495,115,496,494,161
491,392,498,494,711
494,918,495,489,520
496,110,495,494,154
497,905,497,490,893
496,443,496,493,297
493,105,496,494,280
494,907,495,490,862
492,135,495,494,179
494,93,496,494,781
491,843,493,490,481
494,120,493,491,173
495,893,493,492,883
492,384,495,493,273
494,110,496,498,312
494,910,494,492,853
494,125,494,496,200
494,183,494,492,629
493,921,495,494,615
494,108,494,495,183
493,886,493,494,898
492,564,494,493,378
493,99,494,495,353
496,906,494,494,819
495,118,494,494,199
495,328,494,493,701
495,917,496,493,558
493,120,495,494,177
494,889,493,492,886
493,483,495,493,324
493,105,494,494,277
496,914,495,491,870
492,136,496,494,194
495,98,494,494,749
495,886,496,494,493
496,117,495,493,149
493,901,493,494,878
492,408,495,493,273
495,104,494,492,288
494,913,495,492,830
494,131,496,494,174
494,157,493,493,594
493,905,495,492,600
495,115,495,493,141
494,859,496,499,874
493,592,497,501,366
494,98,494,502,315
493,897,495,492,811
494,123,494,496,186
495,294,494,488,665
494,913,495,490,558
495,129,495,500,159
496,898,494,494,882
493,507,497,491,337
494,103,496,498,267
493,895,496,496,867
494,149,494,497,193
497,94,493,493,729
495,909,497,499,527
496,119,496,500,156
496,908,496,496,887
496,445,495,497,311
496,106,486,491,292
493,910,493,490,864
494,130,501,498,193
496,99,495,499,784
495,831,502,487,478
494,98,495,486,253
494,900,489,490,876
496,175,500,493,181
496,95,483,497,702
495,919,496,490,520
494,111,496,490,147
495,891,495,489,876
496,459,500,500,303
495,99,497,493,389
493,911,493,495,763
494,112,503,495,176
493,512,495,488,776
495,864,495,493,500
495,122,496,493,180
495,903,498,494,892
494,387,496,494,281
495,103,496,491,312
495,914,496,491,834
494,130,493,490,182
494,184,494,492,624
494,911,495,491,589
496,108,494,491,154
496,864,496,490,877
493,580,496,494,360
495,95,496,496,317
495,900,496,497,814
493,127,496,493,170
495,313,494,495,671
495,908,495,493,542
495,116,498,492,144
496,883,497,498,884
494,489,497,493,321
495,98,495,494,358
494,903,497,491,786
490,110,497,495,167
494,437,496,489,738
495,921,495,494,528
496,121,495,492,165
495,895,494,493,900
496,437,495,500,327
495,111,496,492,302
497,910,497,490,873
494,123,496,495,213
493,100,495,487,565
496,926,495,494,663
494,124,496,493,190
494,792,494,487,881
498,660,496,495,415
492,126,494,495,239
492,896,495,489,879
494,226,496,492,235
495,102,497,494,392
494,912,496,495,774
495,119,495,494,180
495,519,495,499,762
493,874,497,491,495
494,129,495,492,160
495,882,499,494,874
495,393,496,494,275
495,112,494,493,287
493,903,495,490,830
493,132,494,493,173
492,152,494,495,582
492,925,495,492,599
493,122,496,494,146
494,867,496,491,877
496,583,497,494,366
494,96,496,497,323
493,898,498,496,822
494,116,493,497,188
495,264,497,492,655
495,910,496,496,573
492,109,494,490,163
493,889,495,497,877
494,511,500,497,341
493,101,497,489,256
495,910,489,495,874
494,170,492,496,192
499,87,497,498,702
495,908,486,496,513
494,100,502,497,157
495,899,504,491,891
496,443,506,495,311
495,104,487,492,295
496,897,499,489,871
494,128,506,498,205
494,87,497,494,782
495,864,481,489,489
495,103,490,480,165
496,896,496,491,891
493,382,497,493,273
494,97,496,495,456
494,910,495,494,697
495,110,496,496,158
495,671,494,493,807
492,764,497,494,438
494,117,495,492,181
494,899,496,498,884
494,313,495,488,234
495,93,494,490,501
493,919,495,490,660
494,121,496,492,154
496,710,494,497,846
494,704,495,506,416
492,94,495,489,290
492,901,501,487,856
493,138,494,492,181
493,105,497,495,573
493,905,496,502,611
493,124,496,493,145
491,835,495,488,872
494,617,499,494,369
498,124,496,487,224
494,894,497,495,876
494,200,499,492,199
494,99,496,490,642
495,917,495,493,553
496,127,496,493,140
496,893,496,493,887
497,528,495,493,344
494,117,495,493,262
496,907,495,489,894
493,191,496,495,207
496,98,494,493,708
494,923,494,494,552
492,106,495,495,180
494,896,492,491,891
495,482,493,498,334
494,104,495,491,286
493,906,495,494,878
495,144,494,490,204
493,90,495,493,757
494,900,495,492,506
498,112,494,495,168
493,904,495,493,884
493,406,496,493,287
496,103,496,494,301
494,916,495,492,843
494,130,493,490,176
495,144,495,491,587
494,909,496,494,590
495,128,495,496,134
495,858,496,494,860
493,593,496,494,355
494,113,493,494,214
494,893,495,493,864
494,213,496,494,187
494,100,495,492,413
493,909,495,494,726
494,123,495,495,166
494,624,495,492,797
494,807,497,496,472
496,123,495,494,187
493,897,496,495,902
495,347,494,495,271
493,107,494,496,335
493,904,496,500,844
494,133,498,495,207
496,229,494,495,656
494,914,495,493,590
496,102,496,497,166
493,899,495,494,889
495,534,497,496,354
495,99,495,495,354
494,918,496,495,799
494,126,496,491,183
495,396,494,494,722
494,912,492,489,541
494,118,497,492,161
493,903,496,492,880
495,448,494,494,310
495,112,496,495,279
494,915,495,495,862
493,127,496,495,186
496,99,494,488,754
495,870,493,494,496
497,119,497,496,151
496,903,496,494,883
496,421,496,493,278
495,100,497,493,297
496,913,503,496,845
495,129,495,505,185
495,124,496,492,592
495,925,495,497,620
494,111,500,495,153
494,841,498,492,887
495,599,496,496,383
494,110,497,497,230
494,904,495,497,885
494,230,496,496,203
493,99,496,494,626
493,910,497,503,562
495,114,492,492,146
494,880,499,494,881
494,536,496,498,347
494,106,497,492,261
494,912,492,491,884
495,184,496,493,214
495,96,495,495,705
496,917,495,493,545
494,123,495,496,169
494,904,494,497,887
494,480,494,496,329
496,97,494,493,392
493,916,493,489,778
495,124,494,491,183
493,499,497,488,760
495,890,497,488,506
496,136,495,493,172
493,901,495,489,873
494,402,496,489,276
494,102,496,491,285
494,914,496,490,829
495,124,496,495,165
495,153,495,492,586
493,901,497,495,581
492,125,496,495,130
493,869,496,489,869
495,565,495,486,343
496,97,494,488,310
494,917,494,494,808
497,122,495,494,162
494,305,495,491,676
493,915,494,493,560
494,108,495,490,161
494,899,495,490,902
495,496,496,494,343
494,93,495,491,376
494,921,497,492,811
495,109,495,491,191
495,417,496,490,751
494,914,497,491,542
494,99,495,491,247
494,905,494,493,902
494,211,496,496,241
494,91,494,490,639
496,911,495,492,605
494,118,493,492,182
495,885,496,493,892
493,574,495,494,380
494,122,494,492,259
495,910,494,495,887
494,181,495,493,206
496,97,494,494,686
493,924,494,493,542
494,119,495,494,151
494,891,493,492,867
494,495,495,494,316
495,116,495,493,253
494,895,494,492,856
495,167,494,498,165
494,98,494,491,722
496,919,496,492,492
497,109,494,493,130
494,904,494,493,863
496,442,495,488,271
495,97,494,493,390
494,908,494,494,727
496,123,494,492,149
494,597,494,496,793
494,820,496,494,477
495,119,494,492,171
495,894,497,493,892
494,359,495,490,263
496,96,495,494,486
494,927,496,494,695
494,105,495,496,166
494,697,498,491,852
495,736,495,495,434
496,116,500,496,193
495,892,497,491,887
495,272,496,499,242
495,93,497,493,545
495,920,499,499,648
495,115,496,498,166
494,780,499,495,875
496,655,497,496,408
497,120,497,496,225
496,908,492,493,887
495,227,499,492,232
496,102,491,488,396
493,913,503,499,779
496,120,487,492,185
499,503,493,493,773
494,895,491,507,504
496,100,499,493,165
496,888,493,492,890
492,400,490,494,275
497,98,497,494,430
495,906,496,497,712
496,117,504,496,160
494,651,488,504,805
496,790,492,492,449
496,126,492,490,172
495,902,494,496,881
494,331,501,497,255
495,109,497,497,339
493,918,495,493,821
494,120,494,496,192
494,266,495,497,665
494,910,496,498,567
495,125,496,498,159
494,878,495,489,889
493,520,493,493,350
493,99,497,493,354
492,911,496,490,796
493,111,492,489,180
496,399,497,487,732
495,909,494,490,534
496,116,496,488,166
495,897,494,490,883
495,448,496,493,304
492,106,495,492,282
498,901,497,484,859
496,139,499,487,193
493,90,496,492,789
494,848,496,494,474
496,121,495,488,161
493,896,496,493,877
495,378,494,494,248
491,109,493,491,298
493,896,496,494,822
493,132,496,492,172
493,202,494,491,626
492,912,495,493,581
493,120,496,496,150
496,869,495,492,880
493,555,495,496,357
495,104,495,496,251
494,899,495,494,882
494,179,495,495,206
494,105,496,492,455
496,912,495,493,730
495,124,496,494,182
495,638,497,493,830
495,791,495,496,474
494,105,495,495,199
492,890,496,495,896
495,317,494,495,261
495,109,496,494,340
492,894,496,495,821
496,124,496,494,191
493,291,497,493,672
494,916,496,495,565
495,101,495,496,168
495,896,495,494,884
497,504,495,495,337
495,105,496,495,262
497,908,496,496,876
494,158,497,495,187
496,101,495,495,505
495,908,495,492,670
496,113,494,494,163
494,737,495,494,860
496,706,495,497,428
496,101,495,494,205
493,908,496,495,884
494,278,494,494,241
495,104,495,495,367
495,898,495,496,788
496,132,497,501,176
494,415,496,492,731
494,909,495,498,527
495,111,496,492,164
495,887,498,493,882
495,431,496,494,301
496,105,498,493,287
493,906,496,491,857
493,136,493,499,181
495,90,497,492,789
495,830,497,492,476
495,124,496,492,173
496,893,495,491,880
494,362,495,496,268
496,110,495,493,313
493,915,496,490,836
494,120,496,497,190
495,198,495,489,638
498,915,502,496,596
497,125,497,494,169
494,869,494,496,897
497,559,495,492,369
495,113,495,494,246
497,888,488,491,880
495,178,493,492,194
494,100,494,490,459
497,930,491,485,709
497,120,492,499,166
497,655,498,489,805
500,766,500,496,447
489,116,500,487,177
493,904,502,493,889
493,319,495,493,248
495,91,496,487,508
494,915,493,494,661
496,127,494,494,164
495,748,493,486,870
495,704,498,494,426
496,101,503,486,212
499,904,497,493,893
494,263,503,495,244
495,97,499,492,574
497,903,500,494,620
497,113,498,494,148
494,800,499,494,870
496,623,496,494,380
495,95,498,494,310
494,905,496,492,835
494,125,496,488,178
493,220,494,491,629
495,922,495,488,577
496,126,496,497,148
494,894,493,497,879
495,538,497,489,340
495,103,494,490,240
496,907,494,493,873
494,190,495,488,186
493,97,497,489,691
493,918,493,492,524
495,109,495,494,148
491,906,495,493,880
491,469,495,493,299
492,108,495,494,262
489,909,495,491,858
496,146,497,493,179
496,95,494,493,774
492,862,496,493,496
494,106,494,494,152
494,899,494,495,890
496,409,496,494,282
495,105,495,494,307
495,919,496,493,854
496,119,493,496,205
495,139,495,492,621
494,908,496,494,629
495,132,495,494,192
493,852,495,494,899
496,573,495,494,394
496,113,494,495,272
495,904,497,493,888
494,209,495,494,229
493,96,493,493,667
493,921,497,495,566
491,121,494,495,171
494,892,494,495,874
490,510,496,496,336
494,113,492,495,248
494,898,494,494,859
495,148,496,495,177
492,103,494,494,478
492,921,494,495,663
491,116,496,497,140
494,730,494,494,830
494,727,494,494,406
494,104,495,493,176
494,907,493,495,874
494,284,496,495,229
496,107,495,494,337
494,907,497,491,794
494,123,494,489,180
494,381,494,490,732
494,914,496,502,540
495,103,493,502,159
492,879,498,494,891
495,467,499,497,328
498,110,496,487,278
497,899,496,491,869
496,138,497,492,208
499,95,498,500,767
496,889,496,496,513
496,121,497,488,179
495,884,500,499,894
497,412,497,499,309
500,108,500,496,310
494,894,501,489,863
493,138,501,496,203
493,114,498,500,604
498,919,496,489,623
495,116,497,494,178
492,845,496,504,889
486,596,487,500,381
495,118,491,492,251
488,907,496,490,880
496,214,497,487,200
491,95,479,492,649
494,919,502,502,546
491,120,497,488,140
494,899,489,509,873
494,508,489,489,319
502,120,500,494,239
494,908,495,498,852
488,178,503,493,175
492,96,491,497,710
489,911,504,489,500
488,113,505,495,145
497,885,497,492,882
494,447,500,493,294
492,115,496,494,276
492,902,495,490,861
491,139,498,491,186
495,95,495,486,779
492,839,498,500,481
495,108,496,491,166
495,911,495,493,892
495,374,497,500,281
495,102,500,493,312
492,918,496,490,835
495,135,495,493,193
497,184,494,490,625
495,917,496,489,596
495,124,496,492,162
494,863,497,493,883
499,556,495,482,364
498,109,493,493,248
494,904,494,491,876
494,181,492,502,196
492,90,494,492,651
492,906,497,498,529
491,110,493,490,132
494,885,496,499,859
497,482,495,494,302
495,118,493,495,242
493,903,491,495,848
495,151,493,494,167
495,105,495,489,495
494,921,496,494,658
493,112,496,494,154
494,754,494,495,865
491,697,495,491,420
494,118,494,494,204
493,910,495,491,887
493,269,494,493,238
495,106,492,491,375
493,925,494,493,809
490,127,495,493,195
493,431,494,492,751
494,910,497,493,532
492,110,493,493,183
494,903,494,493,893
490,437,496,495,311
495,95,494,491,413
494,898,495,493,750
495,121,496,498,171
495,587,495,494,778
494,840,495,494,478
493,121,495,492,159
494,904,497,493,881
493,381,494,496,268
495,102,495,494,295
492,910,496,492,836
494,114,495,495,180
495,168,495,494,603
494,902,495,493,600
495,131,495,496,154
495,871,494,485,889
493,583,494,496,379
496,115,494,499,246
493,902,493,492,882
495,205,495,494,202
495,100,495,488,435
495,904,494,494,717
495,113,496,493,165
496,633,495,490,808
493,793,496,499,463
493,106,495,499,183
494,901,494,501,886
495,333,493,495,255
494,102,497,496,320
493,898,501,496,821
494,129,494,491,175
492,264,494,502,657
496,905,494,494,569
494,125,500,497,163
497,903,494,497,898
495,513,496,497,346
495,111,495,493,262
500,891,470,505,888
486,160,466,499,201
499,96,490,498,734
491,915,508,493,528
496,97,502,500,231
473,907,498,496,894
495,219,506,474,217
481,92,493,498,622
486,909,506,496,575
502,119,495,496,153
494,891,517,495,879
492,552,508,496,357
500,108,504,497,245
497,909,501,500,884
496,189,486,490,216
492,94,500,494,714
494,911,504,492,556
496,109,497,496,183
496,898,499,488,902
492,466,495,499,333
496,113,499,493,292
494,898,498,496,876
494,123,499,503,203
499,100,496,493,532
493,916,498,498,662
496,120,499,496,163
494,755,496,491,864
494,687,498,492,410
494,102,495,486,201
494,895,500,489,876
495,258,494,488,217
493,100,494,495,345
494,917,495,491,769
494,118,494,493,150
495,447,495,493,737
495,911,494,493,515
494,117,493,494,154
495,910,494,492,885
493,430,494,492,294
495,110,493,490,282
495,897,495,491,869
494,117,493,494,191
496,89,494,493,780
493,844,494,491,490
495,109,493,493,167
494,913,494,494,895
494,378,492,493,294
493,107,496,494,318
496,915,492,492,864
494,121,495,494,211
493,174,493,492,628
493,923,494,492,628
495,121,494,490,183
493,878,492,493,896
493,576,493,495,393
492,117,493,494,270
493,898,494,493,902
493,198,496,495,236
494,98,494,492,666
493,913,495,495,570
494,120,494,495,159
494,888,493,495,876
493,525,495,495,333
496,99,494,493,351
494,900,494,495,777
495,120,494,494,168
493,412,494,495,709
493,906,493,494,507
496,103,494,496,136
495,893,496,494,864
493,439,496,495,283
494,109,495,493,261
493,904,493,494,840
494,142,494,494,168
495,101,495,492,555
494,920,496,495,637
495,130,493,494,159
494,801,493,494,890
494,624,493,491,388
493,104,495,493,234
493,883,494,493,891
493,208,497,493,212
494,94,495,492,638
495,912,496,494,587
495,105,495,492,161
494,891,496,488,894
495,528,496,496,360
495,98,497,499,357
493,895,496,495,803
495,118,495,488,193
493,395,495,496,730
496,919,495,496,544
494,109,496,496,174
495,895,496,493,896
492,470,494,494,333
495,110,493,493,288
495,901,495,492,879
494,138,494,494,208
492,104,494,496,534
494,924,496,493,676
495,123,495,487,175
493,755,495,494,872
495,693,491,496,414
494,122,495,495,207
493,899,494,492,872
493,262,497,496,216
495,102,495,492,355
495,920,496,495,771
495,125,495,490,166
493,444,496,490,725
493,908,497,495,506
498,115,495,496,146
493,886,494,493,875
496,445,497,495,286
496,103,498,497,272
497,919,495,491,865
493,124,500,490,182
492,94,488,497,788
493,828,493,483,483
491,107,501,500,177
495,884,493,484,893
499,370,473,494,282
500,105,494,490,314
495,904,496,495,854
489,125,498,496,197
497,185,489,501,630
496,926,494,491,611
493,123,504,499,187
493,865,492,484,892
495,557,500,492,376
493,109,500,496,263
495,902,499,493,886
498,193,499,500,213
496,97,499,491,687
493,919,498,495,542
491,118,499,499,153
494,887,496,496,875
492,492,498,498,325
495,98,497,494,361
495,912,496,494,770
495,124,495,497,163
496,435,497,499,728
494,910,496,494,496
493,106,496,497,137
495,893,494,490,871
493,434,497,489,273
498,104,492,491,261
494,898,493,497,839
496,141,495,495,163
495,101,495,482,541
495,928,493,483,616
498,119,494,494,139
494,796,493,494,877
495,638,494,488,375
495,104,497,487,205
495,895,496,495,886
493,235,496,494,216
496,101,495,492,396
495,919,496,495,768
496,114,494,494,177
493,551,495,490,802
494,855,497,493,498
495,102,493,492,190
494,906,494,494,901
495,386,495,494,285
497,102,495,494,324
495,903,494,492,862
495,124,493,490,216
496,179,491,492,647
493,911,495,494,615
493,122,493,495,192
495,868,495,492,897
495,573,495,494,381
493,101,494,494,267
495,914,494,492,892
494,177,495,496,214
492,100,494,492,458
494,906,495,493,723
495,118,494,493,179
493,638,495,493,802
492,785,495,491,450
495,105,494,494,172
494,898,495,492,869
493,316,496,494,231
494,104,496,495,310
494,902,495,491,802
493,124,497,494,152
493,301,493,490,661
494,904,496,494,546
495,103,495,495,154
495,881,494,496,887
493,492,494,494,334
495,111,495,494,264
493,902,494,493,874
494,156,494,494,197
495,104,494,492,509
495,928,496,489,694
494,118,496,486,180
495,704,496,495,863
494,707,495,494,441
495,95,494,493,309
495,910,495,495,876
494,140,495,493,214
494,90,496,497,806
492,836,496,492,503
493,109,495,497,202
492,908,499,495,889
492,375,499,495,296
494,109,494,496,326
494,897,490,480,850
493,138,497,500,212
498,193,494,502,623
494,917,493,484,597
498,113,493,492,154
495,869,484,503,874
493,565,484,486,334
496,96,496,498,298
495,896,494,501,785
495,125,495,496,146
495,291,502,495,651
494,907,495,493,543
496,98,493,496,202
493,908,484,494,885
493,271,492,495,234
494,105,494,494,378
493,913,494,493,824
496,127,493,487,210
495,424,495,488,764
493,913,496,492,530
496,105,495,488,176
494,902,497,493,884
493,436,493,493,310
493,107,492,503,282
495,917,496,495,848
493,116,492,489,182
491,90,496,487,769
494,853,496,488,458
496,128,496,486,153
494,885,496,489,880
495,365,496,498,253
493,104,497,491,301
494,909,496,491,841
496,124,495,490,184
497,220,496,490,633
495,912,497,491,581
495,106,497,494,149
496,878,495,493,880
497,545,495,490,341
495,114,496,492,256
495,909,495,493,887
495,183,496,492,212
496,105,496,493,494
495,920,496,493,716
494,127,497,494,198
495,700,495,492,854
491,750,495,495,456
494,98,496,493,306
494,915,496,495,867
495,123,497,493,222
494,91,495,494,778
493,861,499,493,501
493,131,495,495,189
493,892,494,494,874
496,392,495,494,285
493,110,495,494,309
496,893,496,493,826
495,131,498,495,178
495,137,495,494,577
495,911,495,495,592
493,113,495,498,136
494,838,497,494,867
493,586,493,495,347
496,111,495,493,216
494,892,495,493,860
493,203,497,495,180
494,98,495,495,653
493,911,498,495,544
493,110,496,494,150
494,894,494,495,882
491,495,495,493,334
494,101,494,494,274
494,909,495,493,880
495,142,495,495,211
496,92,494,495,741
494,907,494,494,528
495,124,494,493,186
494,897,493,493,881
494,423,494,495,318
495,107,495,498,299
496,898,496,491,855
495,116,495,495,204
495,100,497,493,567
495,910,496,490,631
497,132,495,488,165
495,813,495,501,874
495,634,497,493,388
494,120,496,493,223
496,912,495,491,875
494,243,497,492,198
495,100,495,490,392
495,904,489,492,758
493,110,495,496,174
494,564,492,492,778
494,854,497,500,488
496,124,494,489,169
494,886,497,491,893
495,389,481,493,281
494,107,493,502,308
493,917,494,491,845
499,136,496,503,185
492,170,501,490,613
493,920,488,502,612
498,110,493,490,152
495,866,495,485,880
492,584,497,499,370
496,114,493,494,242
491,899,494,487,885
493,207,493,500,222
491,93,500,497,680
495,914,496,489,567
496,119,489,502,169
501,888,501,503,892
499,510,494,489,341
489,109,494,495,271
496,908,497,497,882
494,144,497,492,206
494,94,495,492,745
495,911,495,491,525
497,100,495,493,178
491,899,495,487,881
494,430,496,489,302
495,104,496,493,291
492,895,495,485,842
493,114,500,490,181
497,107,498,493,563
493,930,496,490,617
496,122,497,489,138
497,808,499,488,861
491,626,496,494,363
495,97,497,488,296
493,900,496,490,808
493,124,498,492,157
496,224,497,490,618
497,920,496,493,554
498,127,498,492,120
494,877,498,491,870
496,530,496,493,326
494,108,497,490,236
493,908,496,492,865
494,173,496,491,177
495,93,496,493,719
494,920,497,490,534
497,109,496,491,179
493,892,495,494,901
494,454,497,494,335
495,103,495,493,307
491,915,495,491,880
495,130,494,494,225
493,91,494,495,791
493,853,494,495,513
493,119,495,493,206
494,891,494,494,896
494,387,495,494,311
494,107,495,493,320
493,905,496,493,842
494,125,498,496,200
494,154,495,493,591
494,912,497,495,605
493,121,495,496,151
495,877,497,495,870
493,578,498,496,357
496,109,495,496,225
493,909,495,495,868
494,211,495,495,181
496,103,496,496,411
494,903,495,493,704
496,126,495,494,145
494,626,495,493,797
497,798,497,496,449
495,115,494,495,161
491,909,494,494,877
493,336,493,493,251
496,106,496,495,325
493,923,494,494,834
494,135,495,494,189
496,249,493,495,666
495,914,495,494,578
496,103,496,494,180
495,885,494,492,896
495,520,494,493,361
496,96,496,494,365
493,918,494,497,806
494,118,495,493,187
495,411,491,500,740
495,920,498,487,535
497,109,496,488,167
495,896,494,484,886
496,444,500,491,310
496,113,497,490,291
495,905,498,497,864
493,128,499,500,204
495,101,497,500,554
496,919,500,489,651
495,110,495,494,178
495,803,488,485,885
492,651,499,489,410
495,122,490,496,229
494,899,495,494,882
496,244,498,487,228
492,96,496,495,606
492,902,486,498,590
498,122,492,492,150
497,879,492,496,871
493,571,499,493,343
495,100,491,493,215
493,907,490,493,850
493,206,492,501,171
495,100,494,495,405
492,922,495,494,709
494,128,493,494,149
495,629,495,494,785
493,799,497,491,456
494,132,495,495,164
493,891,495,493,879
495,346,496,498,248
495,95,493,491,502
493,917,494,492,659
495,113,498,491,168
493,723,495,489,870
491,687,495,491,429
494,94,498,492,306
495,903,495,495,862
493,127,497,492,206
496,109,497,495,587
497,905,498,496,618
495,122,497,494,165
494,830,496,499,887
494,598,496,492,381
494,96,495,493,329
495,916,495,492,820
494,124,496,490,183
495,263,495,491,662
491,916,496,493,556
497,121,495,492,156
495,900,496,492,872
493,509,497,494,338
494,109,494,494,255
494,898,496,493,872
495,157,495,494,191
495,90,495,493,717
491,919,498,495,524
496,111,495,492,164
493,897,494,495,879
498,453,496,493,318
495,104,495,494,285
491,910,494,493,856
494,144,497,494,195
494,90,497,495,757
495,871,498,493,498
494,112,495,495,175
495,894,495,493,875
497,389,497,495,282
493,112,496,496,301
495,908,496,493,840
493,117,497,494,184
494,180,495,495,607
493,918,495,493,591
497,128,495,497,153
495,861,494,493,877
494,551,496,497,356
496,100,495,493,235
495,904,495,494,878
496,210,496,494,206
495,95,493,494,675
493,917,495,494,552
492,118,496,494,163
495,883,494,494,890
494,509,496,494,350
495,102,493,493,272
494,906,494,492,874
493,157,496,495,210
495,95,494,494,747
494,912,495,493,516
495,105,495,493,172
494,894,496,494,873
493,423,494,495,298
494,107,494,495,286
493,919,495,494,838
494,127,496,494,179
493,122,496,493,572
493,918,494,493,606
494,126,496,493,153
494,858,494,490,863
495,610,499,501,367
494,101,495,490,214
495,906,496,494,877
494,219,497,499,202
495,95,497,492,634
494,911,495,492,567
497,110,496,488,153
497,900,494,495,881
496,516,494,497,339
497,119,494,492,267
497,899,503,492,881
495,162,494,496,203
496,100,502,493,504
492,912,487,498,693
493,111,493,497,179
494,717,497,496,857
495,719,494,495,432
495,104,497,494,205
496,901,500,497,892
495,284,496,497,231
495,104,501,493,351
495,904,495,488,800
494,117,497,493,189
495,400,490,491,732
494,909,502,496,538
497,119,496,494,171
495,896,495,494,892
495,458,498,496,320
495,96,497,494,402
493,902,496,492,768
495,124,496,493,178
494,560,494,488,775
496,841,495,494,482
492,100,497,495,176
494,904,494,496,882
493,382,494,491,262
494,112,495,489,303
494,913,494,489,827
494,125,498,490,178
495,206,501,485,617
494,919,499,495,567
491,131,495,494,145
494,895,496,490,870
496,536,495,493,340
496,107,496,490,235
495,908,496,491,869
494,172,496,492,189
494,103,496,492,450
495,915,497,492,695
494,123,496,491,166
494,691,492,493,840
494,739,496,494,444
493,115,496,493,207
495,895,497,492,896
494,294,494,492,252
493,97,495,491,545
493,916,495,493,659
496,124,495,492,176
496,763,495,493,886
495,640,495,495,408
495,119,495,494,239
491,915,496,493,895
494,241,496,494,238
493,102,495,492,416
494,913,495,492,767
494,129,495,493,200
494,568,495,494,791
493,843,496,494,498
494,126,495,494,178
496,889,496,494,881
495,379,496,493,277
495,97,494,496,456
495,922,495,494,684
493,118,494,496,153
495,694,494,495,815
494,738,494,492,413
495,125,495,493,182
495,897,495,497,864
494,299,495,495,230
496,102,494,492,329
495,900,495,494,785
494,117,494,495,171
494,363,496,491,712
493,908,496,495,525
495,100,495,492,161
494,897,499,494,890
494,453,496,498,322
494,92,496,495,395
493,924,496,494,773
494,124,497,495,186
495,532,495,494,785
491,860,498,496,498
496,105,497,493,182
495,895,498,494,891
497,378,497,489,277
497,94,500,493,451
494,910,498,499,712
495,109,496,493,172
495,675,497,499,824
493,753,503,488,448
495,121,496,494,186
495,901,492,491,887
493,286,494,502,233
493,109,491,499,340
495,906,497,498,806
496,133,494,493,178
495,368,494,489,712
496,910,492,497,544
495,116,489,495,161
496,891,493,494,891
496,472,496,496,321
495,109,495,496,288
491,908,496,496,866
496,126,494,495,198
496,104,495,491,541
494,916,494,493,643
495,117,494,493,163
493,767,491,492,858
495,649,496,493,392
493,120,493,495,216
493,905,496,488,875
493,223,494,494,209
495,104,493,492,382
493,918,496,494,752
495,130,496,491,161
495,522,496,489,763
491,870,495,493,484
495,106,496,491,141
491,900,496,490,870
494,397,495,495,261
495,112,494,492,293
495,912,496,493,838
493,121,496,492,175
494,182,494,491,615
491,920,496,492,597
493,131,496,493,160
497,884,496,491,890
494,563,497,491,367
496,115,494,493,258
497,913,496,492,888
494,173,494,492,219
495,98,495,491,696
496,921,496,494,557
495,115,495,493,192
494,902,496,492,893
493,485,497,494,345
493,108,494,494,293
495,902,495,492,873
494,152,495,494,209
497,90,496,492,759
494,890,495,492,514
495,124,495,493,182
493,894,494,492,877
494,406,495,493,287
495,101,495,493,293
494,907,494,493,837
494,134,495,495,185
493,125,495,496,573
493,908,496,494,590
496,119,495,493,136
494,854,496,493,872
494,585,495,494,352
494,119,493,493,217
493,906,494,494,865
494,192,496,494,191
495,96,496,494,658
493,904,494,495,544
493,117,492,493,162
494,890,493,496,895
496,497,498,495,343
496,112,496,493,282
494,904,493,497,883
496,156,496,497,206
496,97,496,487,745
494,902,497,502,509
494,118,498,498,165
496,887,493,489,879
494,406,496,492,290
495,99,495,496,431
495,911,496,494,730
496,126,495,494,177
496,627,496,495,793
496,807,495,494,464
497,112,495,496,183
496,897,496,493,891
495,337,492,492,264
494,108,501,494,338
496,917,495,494,826
495,130,495,497,202
495,289,493,495,688
495,917,496,493,567
493,114,498,500,179
493,891,498,495,889
494,506,496,492,329
496,111,493,498,264
495,903,496,494,866
496,139,498,497,178
495,102,496,496,499
495,906,496,493,651
494,128,495,493,137
494,739,496,489,839
494,690,497,493,395
494,113,494,497,187
494,895,495,490,867
494,261,494,492,214
494,106,498,491,368
493,892,494,491,794
494,108,497,490,184
494,454,496,489,754
495,912,495,498,523
493,118,497,490,171
493,889,495,492,879
490,425,498,493,291
494,112,496,489,289
493,912,494,494,854
495,120,494,492,185
493,107,494,491,577
495,914,494,491,623
493,118,496,494,158
493,827,496,491,874
492,598,494,491,374
496,110,496,490,237
496,910,495,491,880
495,215,496,494,214
494,93,495,492,641
494,917,495,493,568
489,105,495,491,163
494,902,497,492,889
494,517,497,492,352
494,97,497,493,360
494,926,494,492,807
496,123,498,493,193
496,404,495,491,724
493,905,498,491,549
494,114,497,492,184
494,897,495,492,892
496,455,496,493,334
496,103,496,494,294
493,902,496,493,859
493,143,496,494,199
496,98,495,492,757
496,853,496,493,483
494,107,496,495,156
493,897,495,494,865
494,383,496,493,260
496,108,496,493,292
495,904,494,495,825
494,133,494,494,172
494,177,496,495,608
493,915,496,495,585
494,113,495,495,152
494,879,496,495,877
495,560,496,494,360
495,113,496,495,243
493,909,495,493,882
493,198,495,495,212
493,103,495,494,460
494,917,495,494,718
496,115,497,494,182
494,686,496,491,827
493,760,497,492,454
494,127,495,492,186
495,901,496,496,886
494,297,497,490,250
496,111,497,491,342
493,922,496,494,803
494,111,497,493,184
496,328,496,497,700
494,907,494,491,547
493,117,496,489,167
496,906,496,494,879
494,480,492,494,322
496,106,486,494,281
497,912,498,494,870
494,152,495,496,201
497,105,502,489,542
495,922,498,491,657
496,114,500,498,173
493,776,490,493,875
497,656,495,496,400
497,123,503,486,215
495,912,495,492,877
494,246,495,493,210
495,100,496,496,384
494,917,495,493,754
495,112,496,498,166
494,513,496,492,764
494,858,497,495,492
494,123,496,491,158
496,907,494,494,881
495,387,496,492,274
494,111,493,497,307
493,896,495,494,837
495,131,495,489,187
495,175,498,491,614
493,912,496,493,597
494,113,496,490,157
494,861,497,490,889
493,587,498,495,365
494,96,496,491,328
496,906,497,490,822
494,127,497,489,182
494,304,495,493,685
494,923,498,493,551
495,121,495,492,159
492,877,496,494,885
495,494,496,491,332
493,107,494,493,272
493,907,494,497,870
492,139,494,490,201
495,103,494,491,510
494,907,495,493,678
494,112,497,496,179
495,732,493,492,862
495,678,494,491,423
494,117,494,490,223
494,905,495,490,890
494,263,496,493,233
495,98,496,493,580
494,910,495,493,614
496,128,495,495,153
494,857,495,492,872
497,581,497,494,366
494,101,494,491,233
492,895,496,493,878
493,189,495,492,208
494,102,496,493,446
495,910,496,492,726
494,114,497,494,180
496,632,496,494,816
495,791,495,494,465
496,114,495,493,184
495,904,496,493,887
494,313,495,494,256
494,112,496,494,342
493,923,495,495,815
495,112,496,495,198
495,303,495,496,696
493,903,495,495,564
493,107,496,493,174
495,906,496,495,892
495,485,495,495,336
495,101,494,496,281
495,902,495,494,876
494,162,495,494,205
496,106,494,494,517
494,926,496,495,671
494,116,494,493,168
494,727,494,495,861
494,686,497,496,406
494,108,495,494,205
491,899,493,495,881
494,241,494,494,219
495,102,496,492,366
494,898,493,495,772
495,118,494,496,174
493,466,494,495,753
494,913,496,495,518
493,113,494,494,172
493,896,493,493,884
493,435,496,495,310
493,113,494,494,295
496,912,495,495,865
494,138,495,495,197
496,91,494,493,787
495,829,495,496,475
496,115,496,496,166
496,887,496,497,886
495,357,494,491,263
494,104,495,494,313
495,908,495,491,835
495,115,495,493,193
493,217,497,495,638
494,917,495,492,585
494,104,497,494,165
495,879,497,494,883
497,531,496,495,350
496,93,496,490,353
496,920,498,493,801
495,113,499,494,183
496,365,495,492,717
496,911,498,491,542
494,126,492,495,162
494,895,497,492,888
496,482,498,495,321
496,111,497,495,273
494,901,493,496,862
496,157,499,499,194
495,100,499,492,521
494,924,495,486,650
494,119,486,487,164
497,741,487,498,861
494,670,491,502,402
494,114,488,490,202
495,908,489,491,879
492,236,494,492,228
496,116,497,492,382
492,918,495,493,791
494,125,496,495,187
495,469,495,493,762
496,907,497,494,517
497,125,496,492,176
493,899,497,493,887
491,399,497,494,300
494,102,491,493,308
492,921,497,490,854
494,128,497,492,189
493,156,496,494,603
495,901,496,494,603
493,123,497,489,153
494,861,496,495,881
493,585,496,492,362
493,106,495,492,233
493,894,497,490,866
493,193,496,492,184
494,100,498,488,423
494,917,495,496,720
497,112,496,493,158
492,660,496,491,796
491,792,494,491,460
493,101,495,490,167
496,896,495,492,881
495,333,494,490,261
495,106,494,492,334
491,907,495,491,832
494,135,495,492,198
494,266,494,490,677
494,912,494,492,582
497,111,496,494,185
493,894,496,493,901
493,523,495,495,361
495,95,496,492,374
497,904,496,493,808
495,111,495,493,197
494,398,495,493,743
495,917,497,492,548
495,121,496,492,189
495,907,494,494,890
494,444,494,493,324
495,96,493,490,412
493,904,496,494,762
495,123,494,494,175
494,578,495,495,783
492,834,496,493,477
493,109,492,497,167
494,900,496,493,880
493,372,495,494,268
495,102,495,493,307
492,905,494,491,837
495,129,495,493,186
495,209,494,492,628
496,917,495,493,573
495,105,496,494,151
494,896,495,492,869
495,540,495,495,346
493,99,496,491,331
493,924,495,493,792
494,118,494,494,173
494,363,500,486,696
494,910,495,493,529
493,124,496,497,161
493,899,495,493,873
496,473,496,491,321
494,107,495,497,274
492,912,497,489,857
494,146,495,494,188
493,89,497,492,752
495,866,496,492,495
492,124,495,492,159
495,890,498,493,877
493,396,499,495,274
493,98,495,495,449
494,916,499,494,702
496,117,496,494,172
493,679,495,498,828
494,765,493,486,454
494,105,487,497,195
495,907,495,498,893
495,319,494,502,260
493,98,493,493,530
497,925,489,502,653
492,118,498,496,164
496,750,483,498,867
494,668,495,495,398
494,117,487,492,211
493,897,495,500,881
494,233,498,495,218
497,108,495,495,388
493,921,496,496,761
494,125,496,496,179
495,519,495,496,775
493,872,497,492,506
492,125,495,494,172
495,906,494,493,879
494,398,494,492,287
495,108,493,494,298
494,916,495,490,835
495,135,492,489,182
495,155,496,491,588
493,926,495,490,592
497,118,495,491,145
493,880,498,489,873
493,571,497,494,341
495,96,498,489,312
494,898,495,492,794
494,111,496,492,162
494,324,495,493,685
494,912,498,493,536
494,105,497,490,155
493,885,496,489,883
494,475,495,491,316
494,108,494,493,278
492,909,497,487,870
493,122,494,494,204
493,93,496,494,771
493,878,495,492,512
496,105,494,491,176
495,905,494,496,901
495,407,495,495,307
495,104,493,492,320
494,909,498,489,851
495,126,496,496,212
493,165,494,495,619
495,900,496,493,617
492,124,495,495,185
494,874,497,493,886
494,570,494,495,379
495,106,494,494,256
495,897,495,494,881
493,190,497,495,208
495,95,496,494,667
496,908,496,493,535
494,120,497,491,148
494,898,494,493,865
496,493,495,494,312
494,91,494,493,350
493,922,495,493,776
493,122,496,494,166
496,464,496,492,734
494,901,497,495,502
493,123,495,494,153
494,908,493,496,884
493,410,495,494,294
496,96,494,493,425
493,907,495,495,736
495,120,495,497,181
493,634,494,493,809
495,808,494,496,478
495,109,494,495,201
494,899,497,495,898
493,328,495,492,281
495,100,494,496,344
496,919,495,494,836
495,132,496,498,209
496,257,496,495,662
494,914,496,497,572
495,115,495,495,169
495,883,497,494,883
493,509,496,489,341
494,117,496,489,269
493,896,497,490,876
492,167,496,494,202
496,108,497,493,497
493,911,497,491,683
497,115,499,492,162
495,713,496,493,836
495,721,496,493,421
493,105,497,492,198
495,905,497,490,876
495,274,494,496,227
496,108,489,496,356
495,922,498,491,789
495,125,488,493,180
495,444,487,492,733
490,911,493,490,515
498,114,499,492,152
497,901,491,493,868
494,433,497,494,297
496,110,493,508,272
492,919,497,489,847
496,140,501,498,183
495,98,501,496,768
492,837,496,498,469
494,101,493,492,157
494,892,498,492,872
494,376,496,495,272
495,111,494,494,311
491,903,501,495,838
494,135,495,496,191
495,217,495,494,632
495,911,496,493,589
496,118,495,492,168
492,894,493,490,889
495,546,495,493,356
495,97,496,493,339
494,894,493,492,808
495,121,495,493,174
496,371,495,495,709
494,917,494,496,529
496,101,493,491,163
494,901,497,490,879
491,456,495,492,305
492,105,498,491,273
493,900,496,492,864
494,137,496,494,182
493,103,496,493,549
495,907,496,491,642
497,122,496,492,160
495,783,496,492,890
491,643,497,494,408
494,114,496,492,231
494,913,495,493,893
494,226,497,492,240
495,109,497,492,405
494,904,496,493,779
493,119,497,494,197
494,518,496,494,774
495,871,497,493,508
497,117,496,495,193
494,907,494,495,895
494,381,496,493,291
494,110,495,492,323
493,904,497,492,837
493,113,497,493,199
494,183,495,495,627
494,918,495,495,605
494,123,496,496,167
492,881,496,493,877
493,563,495,492,360
493,97,493,493,330
495,901,495,494,803
496,127,495,494,183
495,312,496,494,685
494,914,495,493,553
495,107,495,493,172
495,896,494,496,878
495,481,497,495,333
496,112,495,493,271
496,906,496,495,871
494,136,495,496,196
495,91,496,495,742
495,889,495,495,503
494,123,495,495,174
495,892,494,494,870
495,403,495,495,282
495,106,494,493,293
494,915,494,494,844
495,113,494,494,182
496,130,494,493,583
494,920,496,494,616
495,123,495,494,158
496,847,494,494,879
496,600,494,496,381
496,104,495,493,239
495,904,494,495,887
494,206,495,494,208
494,100,496,495,426
495,918,495,495,753
495,130,495,496,187
494,598,496,495,807
493,813,497,497,479
493,109,495,496,181
495,907,496,504,885
495,356,494,500,266
495,106,494,499,325
493,903,498,494,826
493,122,497,498,187
495,277,496,491,661
494,915,495,495,571
493,122,496,492,160
494,897,497,492,878
495,505,496,492,334
496,119,498,492,255
494,897,496,495,870
495,144,496,497,186
498,94,491,492,718
495,912,494,498,522
494,114,493,497,157
494,891,494,496,883
496,448,503,494,305
495,105,494,493,280
492,918,494,492,854
494,122,498,496,178
497,102,495,498,542
494,923,497,493,626
494,130,495,492,147
496,799,496,494,876
496,635,497,492,403
496,122,495,491,244
494,904,495,491,892
494,209,497,488,232
494,99,495,489,644
493,916,496,492,578
492,107,498,492,169
493,898,496,491,884
495,524,498,494,352
494,101,495,487,259
493,906,496,500,871
495,181,496,495,195
492,100,495,492,466
493,915,495,491,674
492,113,496,489,153
493,688,495,495,833
494,728,495,494,417
494,118,496,492,179
493,894,496,491,872
495,276,496,493,224
494,116,499,486,340
494,918,493,491,801
496,132,496,495,175
492,377,495,494,712
494,909,494,491,527
496,104,494,493,173
491,909,495,493,889
494,439,497,494,317
495,101,495,494,296
495,903,495,494,873
493,133,494,494,212
497,100,495,493,563
493,933,496,494,653
496,112,496,493,184
494,773,496,492,889
495,634,498,495,412
496,121,496,494,237
494,907,495,494,875
494,211,496,496,236
494,94,496,491,625
492,919,497,493,589
494,109,496,496,164
495,877,494,494,867
494,535,496,494,345
494,108,494,494,255
494,914,495,492,872
494,162,495,494,192
493,112,495,494,467
494,915,494,494,687
493,111,495,494,162
493,701,497,494,840
496,731,495,494,432
496,112,495,495,183
494,895,495,493,883
494,292,497,495,239
496,95,495,493,533
493,926,496,495,642
495,122,496,495,157
494,784,494,494,857
494,646,495,494,388
496,113,494,493,207
494,907,496,493,868
494,243,494,490,208
494,91,494,495,602
494,916,496,499,579
494,124,496,488,152
495,881,496,492,873
493,565,496,495,356
496,97,497,492,331
496,924,496,493,807
494,129,497,490,182
494,308,496,493,673
496,902,495,494,567
495,117,491,494,176
495,898,496,497,894
496,499,495,494,344
495,102,489,494,279
495,907,495,505,874
494,156,500,498,203
498,86,498,499,755
495,898,496,503,512
496,120,496,492,178
493,909,492,504,882
494,408,496,492,285
494,101,497,495,305
493,898,497,488,841
493,116,498,495,180
495,173,496,494,598
496,918,497,493,586
496,122,496,495,143
493,874,493,490,880
493,574,495,493,357
496,98,494,485,338
496,903,494,493,809
495,116,496,493,185
494,323,496,500,689
494,909,495,494,554
493,104,498,494,163
494,896,497,494,891
494,478,497,498,321
495,102,496,495,276
492,896,497,491,858
494,127,498,491,189
493,104,496,492,529
491,929,495,492,634
494,114,496,493,145
493,759,495,492,880
493,645,495,493,395
494,122,495,492,219
493,903,496,492,881
494,229,496,493,218
492,102,495,492,393
494,898,495,490,780
494,117,495,493,176
495,507,496,493,780
492,882,495,494,513
495,118,495,493,174
495,888,497,492,890
494,395,495,493,303
498,104,497,493,320
495,903,496,494,853
494,128,494,494,204
496,164,495,492,616
493,917,497,489,611
494,122,495,494,176
493,861,494,493,881
494,566,495,497,375
499,93,494,492,342
496,907,494,493,813
494,129,494,495,190
493,308,493,495,679
492,911,493,492,564
493,123,493,493,173
494,897,494,493,875
495,505,495,495,331
495,108,494,494,261
494,906,494,492,855
494,147,494,494,181
494,98,493,495,728
493,918,494,496,497
495,113,494,496,144
493,905,494,494,877
495,417,496,494,291
494,107,495,495,287
495,909,495,494,858
495,133,498,495,191
495,92,493,493,787
497,822,494,495,485
494,122,496,493,182
495,889,496,493,895
495,355,496,494,277
494,104,495,495,329
495,908,494,496,840
494,133,493,494,195
495,229,494,493,645
493,908,494,493,589
494,121,495,495,176
494,881,496,492,890
495,525,494,493,353
497,103,494,493,265
496,891,495,493,880
494,177,495,495,196
497,96,495,495,723
493,917,497,493,516
494,106,493,495,168
494,900,495,494,872
494,442,495,495,292
497,107,494,493,278
493,896,493,491,856
495,121,496,497,184
494,87,499,485,781
494,832,498,496,476
495,104,498,494,164
494,905,497,488,877
496,368,499,492,257
493,101,495,490,313
495,905,497,494,835
495,128,494,493,183
496,228,496,494,645
495,925,492,495,575
495,122,497,489,159
495,895,499,495,885
494,520,494,495,351
496,102,495,497,254
497,895,495,489,885
495,157,491,495,202
494,92,496,494,713
494,914,496,496,522
494,117,495,495,153
494,892,494,494,883
492,461,499,496,313
493,112,494,493,274
495,908,495,496,857
495,140,497,495,187
496,101,495,496,557
493,912,497,493,645
494,112,495,494,167
494,807,491,493,891
494,624,495,493,397
495,114,494,497,236
494,911,495,493,882
495,231,494,494,219
495,102,494,492,410
495,904,495,496,769
494,125,495,495,181
494,569,496,499,780
495,850,494,494,486
496,125,494,491,172
495,885,493,492,874
494,377,494,488,264
496,105,492,493,297
492,910,495,493,818
493,114,494,496,165
496,216,495,490,629
492,906,496,493,572
494,112,497,498,146
494,882,495,496,871
495,535,499,488,336
495,111,497,494,247
495,895,496,496,870
497,173,495,493,186
497,88,496,489,695
496,912,494,494,534
488,104,495,492,163
494,894,495,489,885
495,463,496,494,313
495,102,495,492,282
495,912,496,491,872
495,134,498,495,191
494,98,497,492,776
494,866,496,490,494
493,123,495,494,174
494,895,494,495,884
494,396,498,490,287
492,104,493,492,307
493,906,494,493,841
494,121,495,495,193
495,158,495,492,611
494,913,495,496,609
495,110,496,494,173
495,883,494,493,889
494,564,495,491,379
493,110,494,493,255
494,898,495,491,886
494,197,495,493,218
495,92,495,493,689
495,917,497,493,562
496,115,495,494,182
494,905,496,495,886
494,486,495,495,325
494,106,494,497,274
495,895,496,497,861
494,152,495,494,187
495,97,495,493,741
494,884,495,495,479
493,126,495,492,137
494,889,494,492,858
493,410,497,493,263
493,98,494,494,407
492,904,495,494,707
495,130,497,498,150
494,615,496,496,793
494,809,496,493,451
493,126,499,493,167
495,897,500,492,883
495,339,502,494,258
495,100,497,495,329
496,920,489,490,818
495,126,495,497,191
494,292,494,496,682
493,903,493,494,575
498,112,494,493,188
495,891,492,490,902
496,497,496,501,347
494,98,501,498,387
495,918,494,487,789
494,123,497,503,187
495,478,494,494,755
495,908,495,496,524
493,120,496,495,175
494,908,496,496,888
495,404,494,497,297
495,104,493,496,311
492,911,494,498,856
494,137,495,496,200
496,134,496,496,593
496,913,497,492,611
494,114,496,494,164
494,863,495,491,871
493,587,497,492,370
495,109,494,492,233
494,914,494,488,868
493,205,493,494,198
496,101,494,491,424
495,926,494,491,713
494,129,495,495,159
495,616,496,490,784
494,804,496,492,452
495,122,494,493,163
493,899,496,493,877
494,337,496,488,235
493,99,495,489,473
493,917,496,491,658
495,115,497,491,136
494,704,495,490,834
493,728,494,492,412
497,106,493,491,188
494,887,494,493,884
493,264,496,493,231
494,103,491,493,355
496,922,496,492,808
495,113,495,491,195
494,413,495,494,745
494,909,494,491,542
495,107,497,489,177
497,881,497,492,902
494,447,497,490,331
493,111,495,493,299
494,897,496,493,875
494,144,498,493,211
496,103,496,493,559
496,923,497,492,648
495,111,496,498,172
494,783,496,495,875
494,642,496,495,393
497,116,497,493,222
496,904,497,492,872
493,217,496,497,220
494,100,496,495,388
496,915,496,494,756
496,118,496,494,176
495,538,495,493,772
495,852,495,490,488
494,105,496,494,173
495,904,496,495,882
495,381,498,493,279
494,103,494,492,308
495,916,494,492,831
493,120,495,495,187
494,186,496,493,616
494,908,497,494,592
494,108,495,495,157
494,888,494,494,879
493,558,496,493,357
493,117,495,494,255
494,910,494,495,881
496,180,496,495,194
496,97,495,493,697
493,913,496,494,542
494,123,496,497,154
494,880,496,494,886
494,472,494,493,325
493,104,495,494,282
494,891,495,496,870
494,132,496,496,201
494,92,497,494,761
495,862,495,494,495
494,121,491,494,176
495,892,496,496,883
495,391,495,494,290
496,95,496,497,440
492,900,497,498,708
494,124,493,495,177
494,641,496,491,805
496,788,496,494,459
497,98,495,491,268
495,895,497,502,866
495,166,493,496,194
495,94,497,496,745
493,920,496,497,511
497,119,495,494,167
496,894,504,493,885
494,411,492,500,282
494,98,495,492,413
494,905,505,495,728
494,108,508,494,168
495,626,492,492,793
494,805,498,487,469
495,121,491,501,168
493,905,488,494,879
495,329,484,496,268
494,110,491,498,347
494,918,494,494,844
496,132,493,496,206
495,285,499,494,679
495,920,494,493,584
494,111,496,495,175
495,880,494,493,885
494,513,497,497,347
493,113,495,494,266
496,894,496,493,875
493,162,497,492,192
494,84,494,493,721
495,914,493,493,519
493,114,496,490,146
494,883,496,494,875
493,436,496,492,288
495,103,496,494,273
494,903,497,489,847
495,140,495,496,176
495,94,494,491,756
493,840,496,489,464
493,103,494,492,153
494,910,491,490,865
495,361,496,490,250
495,103,494,487,299
490,916,496,495,823
492,117,495,491,183
489,222,497,491,639
496,924,497,493,587
494,118,497,495,176
494,890,494,492,903
494,532,493,494,373
495,97,494,492,362
494,917,497,490,827
493,139,497,489,205
492,362,496,491,730
493,908,495,492,556
497,104,496,492,178
495,900,496,493,884
494,462,494,493,325
493,107,494,493,280
495,897,494,492,860
494,146,497,493,189
496,96,496,493,752
492,875,497,492,478
495,99,496,494,232
491,894,495,495,865
497,198,495,492,193
489,98,495,493,668
494,903,494,494,541
495,117,496,494,148
493,901,495,493,877
494,475,495,494,322
491,95,496,494,374
493,923,495,495,782
492,127,495,495,178
493,474,495,494,752
493,893,499,495,516
499,101,496,496,187
494,895,496,496,895
492,409,497,495,303
494,102,498,496,312
489,911,494,496,857
493,122,497,495,201
497,121,495,495,594
493,902,495,493,614
494,123,496,493,161
494,863,495,495,870
498,579,494,493,367
495,109,493,496,239
493,893,494,495,869
494,202,494,495,195
495,96,494,494,641
494,917,495,488,547
496,114,496,492,143
495,882,496,495,872
494,520,495,493,330
494,103,501,506,241
494,910,495,493,867
495,179,494,507,182
496,101,492,485,480
494,902,500,500,677
494,131,494,498,163
493,711,495,497,844
497,736,497,496,437
500,101,503,497,211
498,898,491,491,896
493,286,498,492,258
497,111,506,502,361
494,914,503,492,814
495,132,505,490,203
496,391,496,488,742
494,911,502,500,550
492,101,483,493,190
496,893,487,496,901
492,450,466,489,323
496,100,493,489,291
491,906,490,495,876
496,126,502,492,200
495,93,494,495,770
493,865,496,496,483
496,102,497,493,148
495,909,496,494,870
495,384,495,490,264
494,113,497,489,294
492,905,495,494,837
495,117,496,489,170
496,182,495,488,603
495,923,497,484,596
498,120,496,494,141
494,882,495,496,877
491,561,495,494,349
496,114,497,492,234
494,892,496,492,873
496,178,496,495,197
497,97,495,493,674
493,910,496,492,535
496,117,495,491,149
500,891,496,489,879
494,480,497,494,317
495,99,497,481,367
497,902,494,493,775
496,121,495,492,160
491,466,497,496,756
494,904,499,495,505
496,123,496,494,151
492,908,497,491,883
495,413,495,492,291
496,110,495,493,293
495,914,495,494,864
493,122,495,494,193
494,106,495,492,589
494,918,496,493,635
495,123,496,494,171
493,828,496,493,890
494,608,495,489,399
495,111,496,494,247
493,908,497,492,891
495,233,497,493,235
495,102,496,494,419
492,918,496,494,761
493,121,498,494,190
495,607,497,494,798
495,829,495,494,487
493,99,494,496,274
494,904,496,494,871
494,160,497,495,198
493,108,496,494,480
494,921,496,494,676
494,119,496,493,160
497,715,496,495,834
496,737,495,497,431
498,120,496,494,186
493,904,494,494,880
494,284,496,495,222
491,108,496,495,336
493,908,495,494,800
494,127,495,495,176
494,365,495,493,712
495,914,494,495,542
493,123,494,495,176
490,902,494,495,890
494,463,495,496,327
496,99,495,493,401
494,904,494,495,771
494,113,496,495,189
495,543,496,496,777
495,852,495,494,499
494,102,495,495,180
495,888,494,494,883
494,369,496,496,279
493,101,495,498,314
494,907,495,492,846
493,117,495,495,198
495,182,496,492,612
492,916,494,491,602
493,127,496,495,157
493,859,496,494,886
494,567,495,493,368
496,110,496,497,234
496,894,496,499,881
494,202,499,494,202
496,99,495,493,666
497,908,494,494,550
496,119,494,492,161
493,898,502,492,886
496,493,511,495,332
493,96,508,497,368
496,906,484,499,782
493,120,492,499,183
495,457,490,489,756
493,917,499,489,519
492,115,494,496,156
495,906,499,498,873
493,428,494,501,292
495,105,494,496,280
497,899,490,497,851
493,125,492,494,188
496,112,496,499,573
496,909,500,495,615
492,112,489,494,143
496,844,499,493,880
496,616,496,492,381
497,111,498,491,223
494,900,498,492,889
494,199,497,494,212
494,102,496,490,427
493,902,497,493,767
494,124,499,494,193
496,576,498,492,805
494,838,495,489,501
495,127,497,492,198
494,902,497,488,895
493,358,498,489,290
495,105,495,495,323
494,892,494,493,835
494,136,497,495,197
495,200,496,488,623
497,904,494,491,580
492,109,496,494,157
494,899,496,492,870
494,550,498,488,334
498,110,495,493,225
496,898,496,492,853
496,189,495,490,165
494,92,497,494,685
494,920,495,492,508
495,121,496,492,126
495,904,494,494,863
496,469,495,493,295
497,101,496,492,263
492,916,496,494,867
494,133,496,493,192
495,97,494,493,767
494,870,496,493,509
493,108,496,493,170
494,895,497,495,887
490,383,496,493,294
495,108,495,493,318
494,905,495,494,856
494,122,495,493,214
495,150,496,494,619
492,910,494,495,630
493,119,495,492,188
495,849,495,494,894
493,584,494,493,389
495,104,496,496,255
497,899,495,494,874
495,196,497,493,216
497,92,494,492,671
494,918,496,494,541
497,125,494,493,153
494,882,494,492,861
493,495,496,494,318
494,105,495,494,258
494,909,494,495,858
495,141,495,494,175
497,104,494,493,502
494,923,495,494,644
494,116,494,495,144
495,735,495,495,841
495,683,495,494,397
494,109,495,495,196
493,901,495,492,876
490,271,494,493,228
496,109,495,494,360
495,917,495,492,785
494,127,494,493,189
496,461,494,492,750
495,904,494,494,524
495,102,495,494,172
493,904,494,494,893
494,426,494,495,302
494,102,495,495,299
494,910,494,494,854
495,122,494,494,197
493,139,493,492,597
494,922,494,492,625
494,128,495,494,171
493,827,495,493,881
492,607,496,493,383
492,97,496,494,324
496,917,494,496,828
495,121,497,494,201
496,266,495,494,660
492,912,495,494,580
494,114,494,495,173
494,898,495,494,890
495,516,493,495,349
494,111,493,494,265
492,913,493,495,875
493,171,494,493,201
493,99,493,493,712
493,913,496,495,516
497,103,495,493,156
495,902,496,493,870
493,445,495,492,296
493,105,493,493,265
493,910,494,494,846
493,123,495,493,179
496,99,495,494,756
495,853,496,495,468
494,127,494,495,149
495,891,495,493,880
493,387,496,494,267
496,105,494,496,303
495,909,494,494,846
495,124,496,494,188
493,164,495,497,607
495,922,494,496,598
495,123,495,496,162
494,863,497,495,883
494,566,496,497,370
495,105,497,494,254
495,910,496,496,880
495,195,498,498,207
494,94,497,493,688
495,916,498,494,546
492,114,495,494,162
494,890,498,494,890
492,490,498,494,336
493,109,496,493,278
494,910,493,490,874
494,134,499,497,201
493,93,499,494,771
495,882,502,488,508
494,107,497,498,178
495,901,503,490,887
494,398,501,503,287
496,108,501,497,294
493,906,495,486,837
495,120,497,500,183
496,144,497,494,592
496,926,496,493,591
495,121,487,499,140
495,853,491,497,865
491,585,498,495,358
493,111,494,492,239
493,890,502,492,892
493,184,494,494,204
496,97,496,492,669
497,923,495,495,563
495,127,496,497,157
493,892,494,493,886
493,506,495,489,349
494,95,493,492,369
493,921,495,491,797
495,131,496,492,187
493,414,495,489,747
494,908,495,489,527
493,110,495,490,170
494,901,495,492,883
496,422,497,489,304
495,109,497,492,294
493,912,495,489,855
496,137,498,493,195
495,96,496,492,771
497,817,496,489,463
495,101,495,490,148
494,902,496,490,870
493,372,495,492,248
494,100,495,487,296
492,919,496,494,827
494,128,494,493,171
497,229,496,491,631
494,916,497,493,574
495,126,496,492,149
494,891,495,492,876
493,523,497,491,348
494,102,495,488,250
494,892,496,490,873
492,183,497,493,200
493,95,495,494,703
494,920,495,495,533
499,112,496,495,160
494,898,496,494,884
495,462,496,495,320
494,106,496,492,287
493,907,496,492,856
495,144,494,494,199
494,94,495,493,768
495,864,496,496,492
496,114,496,494,163
495,897,495,494,876
495,395,496,494,281
493,105,494,494,292
494,921,496,493,845
493,130,495,494,184
493,159,496,493,600
495,924,497,494,603
495,117,495,493,153
495,850,496,492,885
494,576,495,494,367
494,103,496,494,241
492,905,494,494,880
493,206,496,494,211
491,93,496,493,671
494,922,496,495,558
495,115,496,493,156
496,893,497,495,882
495,501,497,495,338
495,113,495,495,265
493,903,496,496,870
494,140,496,493,194
494,99,496,493,739
494,910,496,495,503
493,122,496,494,152
494,896,495,495,869
494,434,496,495,288
494,102,495,495,289
493,901,495,493,843
494,133,495,495,188
497,119,494,496,586
496,923,495,494,612
496,119,495,497,162
496,835,496,493,878
493,594,496,496,375
494,112,495,493,231
494,905,494,494,879
494,199,497,495,216
495,102,494,493,421
496,900,495,496,747
494,111,495,494,173
494,613,494,493,798
494,805,494,494,478
494,112,495,493,179
494,904,496,493,880
495,334,495,494,265
494,103,496,494,322
494,913,495,494,827
494,113,495,494,185
493,262,495,493,662
494,900,495,493,564
493,107,495,492,164
494,883,496,495,885
493,514,495,493,336
493,101,497,489,254
495,896,496,490,869
495,160,497,496,185
497,104,496,492,493
493,925,495,493,674
494,126,498,492,161
496,726,496,492,847
495,696,497,488,411
496,91,495,499,294
496,898,499,500,865
495,127,502,505,198
498,111,492,498,594
493,923,504,501,629
498,127,480,499,163
496,826,508,493,889
492,593,500,486,381
494,107,498,498,253
497,899,478,492,897
494,213,491,495,229
498,99,496,486,665
495,916,492,497,551
496,102,499,498,147
494,894,495,492,875
495,496,496,496,330
494,113,495,494,262
494,912,495,497,863
495,157,496,495,188
493,93,492,494,744
496,912,494,488,505
496,121,495,486,156
494,890,497,495,878
495,425,495,494,296
496,98,494,490,425
495,906,496,494,732
492,118,495,493,164
493,617,497,489,801
494,792,496,491,462
494,119,496,493,167
492,895,496,493,879
494,336,498,496,248
493,106,497,495,317
492,915,495,492,817
495,125,495,498,170
493,262,497,490,651
493,914,497,491,557
498,119,496,490,146
493,895,494,491,879
494,509,496,492,342
494,107,496,492,261
493,912,495,492,877
493,153,495,492,206
495,102,495,494,497
495,921,495,493,706
494,115,496,495,191
493,690,496,492,858
494,720,496,494,446
495,122,495,494,219
495,902,495,494,901
494,283,497,493,260
495,103,496,493,370
494,916,496,493,805
495,128,495,494,207
495,382,495,494,734
493,913,495,496,541
495,112,495,493,182
493,896,498,493,882
494,444,495,494,311
493,98,496,496,399
494,906,494,495,741
494,118,496,493,160
493,574,494,493,762
495,839,496,496,464
494,104,496,495,154
495,903,494,491,868
493,360,496,495,248
494,101,492,493,298
496,914,495,494,826
494,131,496,495,183
495,215,494,494,633
494,914,495,495,588
494,127,494,495,168
494,885,494,494,890
492,540,495,494,362
496,102,494,495,269
495,905,495,495,883
495,157,495,493,212
496,97,494,493,721
494,924,495,494,536
495,113,494,493,171
494,909,496,493,882
493,445,496,494,322
494,111,494,496,286
493,897,495,492,865
495,120,494,493,197
496,100,496,495,551
493,924,495,495,649
493,110,494,497,171
495,796,495,494,880
494,649,494,494,392
495,118,496,493,212
494,890,498,494,877
494,224,497,492,218
494,93,495,493,601
494,926,496,490,581
493,119,496,491,152
495,869,495,494,868
493,557,495,495,347
497,104,497,494,239
494,898,496,496,882
495,200,494,489,203
496,98,493,492,689
494,915,499,495,543
496,117,497,494,155
495,882,504,490,886
497,468,499,492,325
496,99,497,489,382
495,910,503,497,768
493,118,492,497,173
494,512,495,499,761
495,886,494,501,505
497,120,497,498,161
494,903,491,493,880
494,408,491,493,277
496,108,474,503,292
494,901,495,493,859
494,132,492,501,183
495,144,495,496,599
494,918,489,492,611
493,119,498,496,167
493,868,494,494,892
495,572,497,492,378
496,109,496,497,247
492,910,496,499,896
498,214,497,493,212
494,95,497,493,667
494,918,496,488,564
496,107,495,490,164
494,882,497,486,888
494,495,495,494,338
494,111,495,495,265
495,916,492,493,856
492,149,495,492,193
496,104,492,492,500
494,910,496,492,654
496,125,496,486,150
495,741,496,493,848
494,689,497,491,408
495,113,494,491,184
493,893,496,490,874
494,251,495,490,205
495,98,496,485,556
493,912,496,488,595
496,123,496,494,133
493,843,495,493,881
494,607,497,496,369
494,108,495,495,233
495,892,494,490,885
494,214,495,492,203
493,102,495,493,433
492,897,495,490,729
493,119,495,495,176
494,630,493,491,805
495,796,494,493,472
492,131,495,493,191
494,908,495,492,888
491,310,497,492,267
494,104,494,493,351
496,895,495,493,825
494,126,496,490,210
494,320,494,494,693
494,922,499,491,570
497,122,496,495,180
494,891,497,493,881
493,492,497,495,342
495,99,497,494,369
493,916,496,493,766
496,123,495,493,168
496,478,494,494,747
495,894,494,492,499
494,113,495,493,147
493,887,495,494,870
495,424,497,493,274
496,105,498,495,279
496,918,496,493,842
494,123,495,495,185
494,139,494,494,588
493,904,497,491,602
496,115,495,493,155
493,862,494,495,875
494,588,495,494,371
493,111,494,496,243
493,897,495,496,880
494,176,494,496,211
496,93,495,494,683
492,911,495,492,543
493,111,493,494,167
495,899,495,493,884
492,498,494,494,332
493,94,494,493,372
492,901,496,495,785
495,131,495,495,179
496,460,495,494,746
493,894,495,494,511
496,111,496,495,167
495,908,496,493,889
493,413,495,494,290
496,98,496,496,442
493,913,496,493,725
496,125,496,496,174
494,620,494,492,795
494,786,494,493,467
495,122,496,493,184
495,888,496,494,881
496,343,495,493,263
494,106,496,494,321
494,908,494,491,823
495,130,495,494,191
495,265,495,495,652
494,904,496,494,559
494,107,496,493,161
494,898,495,493,881
494,506,494,491,332
494,116,493,493,258
495,907,495,493,867
494,167,495,494,185
495,92,496,496,734
494,912,495,493,503
495,110,494,496,160
494,888,494,493,874
493,434,494,493,296
495,97,495,495,407
496,912,496,494,736
496,121,496,495,166
494,592,496,494,795
495,819,498,490,478
496,104,497,492,170
495,906,496,493,886
495,357,498,493,267
495,102,499,494,322
493,894,499,496,828
494,125,494,495,198
497,274,498,493,672
497,923,495,494,574
497,105,499,496,174
495,895,491,496,898
493,501,497,496,345
496,111,497,494,276
495,915,495,493,872
493,154,496,494,197
495,99,497,502,726
496,912,501,495,503
495,117,497,496,151
494,896,493,492,869
496,425,492,493,283
494,102,496,494,278
494,898,497,493,847
495,130,494,498,182
493,121,495,491,582
495,920,496,493,603
495,120,496,493,152
494,865,495,491,879
496,587,496,492,377
494,116,495,494,233
493,902,494,491,887
493,212,496,491,205
494,99,495,493,656
495,914,495,489,546
495,115,495,486,158
495,890,495,493,880
493,499,496,495,330
494,108,498,495,264
495,913,495,490,869
495,159,494,504,186
497,93,497,495,739
494,889,496,495,497
495,117,497,490,152
492,909,496,491,888
491,424,497,487,289
495,103,494,489,291
495,899,498,488,852
494,118,495,494,184
495,133,494,494,595
494,919,496,491,609
495,119,496,496,163
495,856,495,493,886
496,583,496,495,381
495,100,496,494,248
493,914,494,493,880
493,202,496,494,211
494,93,496,494,679
494,916,495,492,542
494,124,497,495,162
495,893,497,494,880
495,495,496,492,328
490,95,496,495,375
494,908,496,493,776
496,117,498,495,172
495,473,495,494,754
495,888,498,496,509
494,102,496,495,163
493,901,496,494,884
490,406,497,495,291
493,97,496,496,430
493,927,496,494,734
495,133,497,495,175
497,633,496,495,807
495,782,496,493,468
497,126,496,494,187
494,891,495,494,889
495,320,496,495,262
495,108,494,493,337
495,910,495,495,817
494,115,497,494,190
494,328,495,494,699
494,910,498,494,546
495,116,495,495,162
496,891,495,494,877
493,477,497,495,319
496,112,496,494,269
496,914,496,494,864
495,148,498,496,194
493,98,495,494,757
493,874,497,495,489
495,121,496,493,153
494,908,495,494,877
495,402,496,494,278
495,106,495,494,294
494,904,495,491,838
494,115,497,494,192
495,173,496,493,607
494,915,495,494,595
493,111,495,497,164
494,895,495,493,883
492,561,496,493,365
493,102,495,493,253
494,899,495,493,879
493,184,495,493,197
494,93,494,492,696
495,923,496,492,537
495,113,495,492,150
494,908,496,493,872
495,468,494,493,321
495,112,494,494,274
496,910,494,494,860
495,128,494,495,192
495,93,495,493,755
494,864,494,492,496
494,98,495,492,246
492,904,495,495,883
492,179,496,493,203
493,96,495,493,678
495,923,497,494,546
496,112,495,496,165
494,892,496,493,876
496,478,496,492,322
495,112,495,494,273
495,907,495,492,862
495,119,495,494,185
495,93,494,493,761
492,868,496,493,492
497,128,495,493,157
494,901,494,493,875
495,382,497,495,262
496,99,494,493,442
495,924,496,492,702
493,114,496,492,158
495,646,495,492,816
493,765,494,494,441
494,108,495,492,182
494,895,496,491,888
494,294,497,489,237
494,97,496,484,531
494,923,498,494,644
494,123,499,491,162
492,772,497,495,870
496,649,496,491,404
496,108,499,496,224
494,888,500,492,889
496,236,494,488,230
494,100,491,498,396
497,915,493,500,778
497,120,498,503,180
495,533,497,493,778
497,867,490,500,507
497,131,499,498,172
498,890,494,507,885
497,385,492,502,277
496,96,502,500,446
493,920,497,496,693
494,114,497,500,150
495,671,494,495,800
496,758,499,491,431
495,116,496,497,165
496,903,495,492,878
496,299,496,490,234
496,99,496,491,524
496,923,497,487,635
494,126,495,494,143
493,780,493,488,866
494,666,499,492,403
494,95,497,490,294
496,909,496,486,860
494,121,496,492,194
495,178,495,491,617
495,911,496,489,595
494,123,495,494,168
496,881,497,490,881
494,574,496,491,363
494,102,497,484,243
495,912,497,490,877
495,195,497,492,201
500,96,497,491,691
487,911,496,491,534
495,113,497,493,161
495,895,497,492,884
493,478,497,491,322
496,108,496,492,273
492,902,497,492,865
494,129,497,493,197
494,91,496,491,769
494,851,497,493,490
496,107,497,495,172
496,896,497,493,889
495,387,496,493,288
496,111,495,494,315
495,915,497,494,854
494,123,497,496,206
496,195,497,495,640
494,905,497,494,597
495,124,496,496,181
496,891,495,494,892
495,540,498,494,370
496,114,496,495,271
495,902,495,493,875
495,160,498,496,208
497,103,497,494,483
494,899,497,495,678
495,119,497,494,160
494,716,495,494,829
493,726,497,493,421
496,107,495,495,180
494,898,495,492,880
493,275,494,494,225
495,111,496,492,352
494,915,494,493,789
494,121,496,494,168
496,451,495,494,757
495,905,496,493,521
494,101,496,494,175
494,899,495,493,885
496,435,496,495,310
495,111,494,495,294
496,906,496,495,868
494,121,494,494,204
495,93,497,494,790
496,814,497,493,487
491,104,495,494,183
495,905,496,494,881
494,353,495,493,269
496,107,493,493,325
496,903,494,495,827
494,116,494,495,193
495,253,495,494,647
494,902,494,493,568
496,119,496,495,161
494,880,496,493,874
493,515,497,494,340
493,111,496,493,254
493,905,493,494,863
494,178,497,495,184
497,101,495,497,485
494,898,495,493,672
494,122,496,491,163
494,716,495,493,848
494,716,493,498,425
495,120,494,493,189
495,898,498,491,886
494,257,495,489,225
497,99,491,493,562
494,905,492,494,614
494,118,491,501,154
496,816,498,486,874
494,627,500,490,388
497,116,509,496,227
497,895,494,492,881
496,229,491,499,197
496,104,496,488,406
494,919,502,501,752
495,133,499,496,163
496,542,496,503,784
496,834,498,493,488
494,122,496,494,169
495,902,496,495,898
496,366,495,496,275
493,108,495,493,322
494,905,495,493,837
493,129,494,498,196
492,246,494,499,658
493,924,494,492,589
494,106,495,495,174
495,889,495,493,898
493,532,493,493,364
495,98,494,489,364
494,898,497,491,802
493,130,496,494,196
496,423,496,491,741
494,910,497,489,527
495,107,497,493,170
496,904,495,490,873
494,443,496,492,298
494,110,494,492,266
494,914,495,490,839
496,137,495,492,167
494,99,496,489,766
494,828,496,491,456
494,112,494,493,128
496,911,494,489,855
496,364,497,493,234
489,100,495,492,281
492,902,495,494,831
494,121,496,494,174
496,218,493,493,644
494,911,497,494,580
496,114,496,493,167
494,882,494,493,894
497,540,496,495,360
493,111,494,495,270
495,911,495,494,892
496,176,495,496,219
497,101,495,496,504
497,923,496,494,709
494,114,494,498,203
494,702,495,495,859
494,752,494,494,469
495,106,495,496,225
494,900,494,493,887
494,286,496,496,261
494,113,494,495,344
494,909,495,495,800
494,119,497,496,172
496,371,496,493,699
495,917,496,496,523
495,110,495,495,157
494,902,494,494,877
494,456,495,495,299
497,106,495,493,259
495,908,496,495,856
494,120,495,495,183
495,94,496,494,763
494,858,496,493,490
493,110,495,495,164
494,894,494,495,888
494,384,494,494,284
494,92,492,491,465
494,924,494,493,699
494,110,495,493,167
494,680,495,493,828
493,739,496,495,439
493,119,494,493,193
495,897,495,493,888
494,288,493,496,238
496,110,497,494,353
495,919,494,496,793
495,126,496,494,183
494,415,496,493,733
493,906,496,494,526
494,119,498,493,164
494,907,496,492,885
